0.110
-0.018
0.060
-0.009
0.050
-0.120
0.000
-0.007
0.030
0.038
-0.010
0.070
0.006
-0.033
-0.045
0.003
0.034
0.031
0.092
0.067
0.021
-0.046
-0.088
0.031
0.136
0.180
-0.039
-0.008
-0.055
0.035
0.015
0.059
-0.031
-0.091
0.051
0.037
-0.024
-0.025
0.111
0.004
-0.101
0.001
-0.003
0.065
-0.028
0.067
0.081
0.075
0.037
0.031
-0.072
-0.059
0.092
0.112
0.017
0.054
-0.052
0.154
-0.007
-0.082
0.123
-0.038
0.117
-0.040
-0.048
-0.038
0.036
0.005
0.022
0.142
-0.079
-0.018
-0.034
0.052
0.043
0.074
0.160
0.053
-0.032
-0.007
0.040
0.043
0.016
-0.118
0.009
0.126
-0.167
0.043
0.064
0.089
-0.007
0.014
-0.002
0.003
0.058
0.003
-0.003
-0.008
-0.091
0.073
0.062
0.027
0.117
-0.062
0.018
-0.005
0.096
0.007
0.078
-0.052
-0.045
0.093
0.037
0.011
-0.001
0.064
-0.000
0.004
0.060
-0.022
0.075
0.070
0.005
-0.000
-0.017
0.123
0.041
0.029
-0.063
0.070
-0.101
0.028
0.174
0.111
0.061
-0.080
-0.057
-0.046
0.046
0.019
0.114
-0.046
0.062
0.039
-0.017
-0.069
0.104
0.094
0.021
-0.027
-0.073
0.067
0.082
0.033
0.035
0.090
0.065
-0.037
0.023
0.090
0.077
-0.004
0.109
-0.060
0.137
0.040
-0.044
-0.013
0.009
0.103
-0.080
0.094
-0.092
-0.005
0.032
0.092
-0.070
-0.092
0.007
0.059
0.104
0.088
0.001
0.013
0.066
0.022
-0.036
0.102
0.120
0.087
-0.033
-0.071
-0.012
0.041
0.039
0.001
-0.042
0.128
0.026
-0.082
-0.035
-0.051
0.092
0.042
0.056
0.015
0.004
0.026
0.072
0.030
0.129
-0.050
-0.071
0.013
0.050
0.068
0.080
0.044
-0.092
-0.030
0.025
0.118
-0.047
-0.050
-0.034
0.088
0.026
-0.038
0.057
-0.128
0.013
0.174
0.079
0.014
0.047
-0.035
0.094
0.028
-0.143
0.008
0.027
0.046
0.112
0.065
0.023
0.071
0.040
0.051
-0.024
0.085
-0.001
0.085
0.021
0.055
0.023
0.048
0.085
-0.052
-0.006
0.035
0.070
-0.007
-0.016
0.073
-0.005
-0.033
0.073
0.098
0.073
-0.116
0.098
-0.012
0.078
0.009
0.076
0.004
0.007
0.002
0.080
0.022
0.042
-0.067
0.000
0.120
-0.000
0.163
-0.017
-0.047
0.136
0.030
-0.031
0.017
-0.017
0.116
0.084
0.099
-0.141
0.118
0.100
-0.114
0.070
0.160
0.006
0.044
-0.050
-0.008
0.071
0.069
0.014
-0.013
0.054
0.028
0.035
-0.050
0.004
0.022
0.035
0.119
-0.010
-0.005
-0.089
0.059
0.015
-0.035
0.073
0.059
-0.108
-0.100
0.144
0.135
0.073
0.163
-0.050
-0.052
-0.015
0.036
0.079
0.042
-0.001
0.020
-0.031
-0.028
0.041
0.040
0.024
-0.043
0.027
-0.030
0.026
-0.050
0.048
-0.001
0.034
0.113
-0.015
-0.025
0.002
0.065
0.021
0.114
0.050
-0.031
0.121
0.030
-0.116
0.041
0.035
-0.042
0.022
0.110
0.047
-0.020
0.079
-0.040
0.020
0.028
0.088
-0.009
0.114
-0.120
0.056
-0.002
-0.030
0.013
0.075
-0.012
-0.056
0.003
-0.045
0.106
0.075
0.069
-0.025
0.104
0.031
-0.047
0.051
0.033
0.030
0.066
0.056
-0.016
0.057
0.042
0.035
0.058
-0.001
-0.027
0.001
0.197
-0.030
-0.139
-0.034
-0.033
0.035
-0.036
0.042
-0.017
-0.051
0.033
0.020
0.022
0.105
-0.042
-0.139
-0.056
0.057
0.108
-0.022
0.046
0.072
0.006
-0.001
0.094
0.056
0.061
-0.035
0.086
-0.004
-0.027
-0.077
0.034
0.051
0.165
0.050
-0.038
-0.016
-0.061
-0.055
0.086
0.125
-0.145
-0.069
0.126
-0.039
0.050
0.017
-0.080
0.008
0.209
-0.048
-0.080
0.050
0.008
-0.029
0.029
0.062
0.181
-0.035
-0.090
0.012
0.138
-0.031
-0.060
0.033
0.119
0.133
-0.075
-0.029
-0.003
-0.001
0.032
0.018
0.087
-0.039
0.013
0.174
0.171
-0.037
-0.041
-0.026
-0.075
0.060
-0.030
0.052
0.062
0.079
0.014
-0.003
0.015
0.032
-0.025
0.111
0.121
-0.096
0.076
-0.030
0.016
0.085
0.045
-0.001
0.020
-0.038
-0.008
0.069
-0.010
0.093
-0.057
0.100
0.149
-0.037
0.096
-0.042
-0.007
-0.025
0.038
0.110
0.029
0.052
-0.151
0.029
0.013
0.075
-0.001
0.021
-0.077
0.034
0.065
0.149
-0.044
0.095
0.043
0.135
-0.089
-0.051
-0.019
0.000
0.018
0.116
-0.090
0.006
0.042
0.035
0.067
-0.083
0.045
0.004
0.097
0.111
0.051
0.107
-0.176
-0.007
0.071
0.067
-0.107
0.002
0.040
0.206
0.046
0.071
-0.068
-0.073
0.071
0.127
-0.087
-0.067
0.024
0.074
0.070
0.085
0.083
0.074
-0.006
-0.054
0.101
0.003
0.033
0.106
-0.011
-0.124
0.032
0.129
-0.033
0.034
0.117
0.034
-0.080
0.082
0.068
-0.018
0.062
-0.067
0.128
0.109
-0.012
0.053
0.023
0.016
0.105
0.043
0.043
-0.047
-0.038
0.097
-0.039
-0.007
-0.105
0.097
0.103
0.124
-0.010
-0.187
0.168
-0.049
0.086
0.001
0.031
0.087
-0.054
0.105
-0.011
0.026
0.003
0.032
0.093
0.024
0.020
-0.057
0.103
-0.030
0.028
0.079
0.074
-0.094
0.060
0.083
0.043
0.059
0.039
-0.036
-0.054
-0.040
0.056
0.201
0.094
-0.068
-0.035
0.126
0.057
0.002
-0.000
0.041
0.094
-0.040
-0.043
0.027
0.028
0.043
-0.085
-0.009
0.139
-0.020
0.022
0.063
0.000
0.054
-0.042
0.026
0.020
0.075
0.024
0.005
-0.013
0.067
0.065
0.059
0.019
-0.005
-0.103
-0.075
0.142
0.119
-0.022
0.020
0.021
-0.028
0.030
-0.056
0.018
0.100
0.026
-0.000
0.022
-0.110
0.022
0.028
0.006
-0.055
0.139
-0.085
0.110
0.010
0.033
0.086
-0.052
0.040
0.070
0.021
0.032
-0.101
0.014
0.032
0.074
0.016
-0.049
-0.074
0.071
0.041
-0.139
0.052
0.021
0.033
0.079
0.001
0.117
-0.078
-0.022
0.143
-0.018
0.035
0.020
0.014
0.037
0.058
-0.081
0.018
0.041
-0.032
0.082
0.036
-0.054
-0.086
-0.113
-0.020
0.125
0.013
0.117
0.074
-0.042
-0.054
-0.078
0.060
0.077
0.012
-0.108
0.199
0.054
-0.055
0.181
-0.054
0.020
0.035
0.140
-0.045
0.027
-0.075
-0.050
0.080
0.159
0.067
-0.132
-0.001
0.102
0.061
0.031
0.010
-0.052
0.103
0.093
0.089
0.088
0.041
-0.080
0.075
0.003
-0.008
0.046
-0.034
0.064
-0.003
0.169
0.011
-0.089
0.027
0.027
-0.024
0.005
0.046
0.055
0.027
-0.010
-0.107
0.066
0.028
0.050
-0.013
0.088
-0.091
-0.015
0.131
-0.033
0.071
-0.056
0.007
0.066
0.141
-0.088
0.073
0.025
0.008
0.011
0.104
0.059
-0.007
-0.016
-0.028
0.017
0.120
-0.065
0.056
-0.066
0.025
-0.011
0.071
0.047
0.099
0.023
0.039
0.088
0.002
-0.040
0.051
0.029
-0.081
-0.091
0.081
0.025
0.098
-0.068
-0.031
0.087
0.072
-0.099
0.032
0.211
0.036
-0.102
-0.023
0.004
-0.027
0.021
0.197
0.067
-0.024
0.003
0.017
0.176
0.057
-0.071
0.057
0.058
0.009
0.096
-0.104
0.026
0.087
-0.011
0.060
0.028
-0.011
0.055
-0.050
-0.094
0.070
0.143
-0.026
0.053
0.049
-0.007
-0.086
0.011
0.157
0.101
-0.095
0.040
-0.040
0.107
0.019
0.005
0.057
0.174
-0.045
0.087
0.027
-0.015
0.116
0.077
-0.011
-0.021
0.018
-0.044
0.123
0.007
0.064
0.017
-0.028
0.124
-0.083
0.025
0.115
0.078
0.067
-0.091
0.076
-0.003
-0.154
0.073
-0.047
0.146
0.118
-0.077
-0.020
-0.061
0.177
0.029
0.015
0.021
-0.029
0.110
0.019
0.033
0.112
-0.069
-0.001
0.111
0.096
0.000
0.028
0.052
-0.086
0.070
-0.017
0.098
-0.119
0.111
-0.050
0.123
-0.044
0.047
-0.099
0.035
-0.036
0.017
0.123
-0.015
-0.007
0.097
-0.012
0.017
0.042
0.020
0.028
0.064
-0.019
0.122
0.148
0.073
0.028
-0.030
-0.064
0.037
0.023
-0.034
0.220
-0.017
0.050
-0.038
0.013
0.019
0.091
-0.006
0.109
-0.010
0.038
0.006
0.001
0.107
-0.044
-0.104
0.083
0.038
0.116
0.008
0.027
0.024
0.038
-0.012
0.115
-0.022
-0.038
0.014
-0.045
0.006
0.116
0.081
0.031
-0.056
0.090
0.020
0.017
0.004
0.110
-0.059
-0.037
0.026
0.052
-0.005
-0.028
0.106
-0.050
0.078
-0.070
0.045
-0.021
-0.039
0.076
0.075
-0.016
-0.032
0.088
0.099
-0.060
-0.078
0.052
0.134
0.059
0.068
-0.073
0.041
0.014
-0.080
0.096
0.009
0.068
-0.053
0.043
0.079
0.058
-0.075
-0.053
0.058
0.069
0.064
0.015
0.054
-0.023
0.052
-0.028
-0.054
0.070
0.058
-0.045
-0.015
-0.021
0.054
0.023
-0.050
0.156
-0.008
0.081
0.069
-0.005
0.046
0.023
-0.092
0.068
0.100
-0.103
-0.046
0.090
-0.045
-0.014
0.090
0.063
0.086
0.026
-0.089
0.079
0.099
-0.049
-0.019
0.078
-0.083
0.075
0.001
-0.078
0.139
0.127
0.012
-0.075
0.059
0.136
-0.007
-0.081
-0.028
0.096
0.017
0.003
-0.002
0.084
-0.031
-0.005
0.077
-0.009
0.024
0.098
-0.051
0.046
-0.007
0.166
0.026
0.003
0.010
-0.004
-0.009
-0.022
0.072
0.038
-0.037
0.151
0.044
-0.094
-0.016
0.007
0.013
0.040
-0.081
-0.023
-0.082
-0.029
-0.013
0.042
-0.055
-0.061
-0.046
0.041
0.147
0.027
-0.081
0.043
0.059
-0.028
0.044
0.050
0.063
-0.012
0.009
0.098
-0.053
-0.049
-0.029
0.047
-0.086
-0.005
0.057
-0.098
0.051
0.137
0.044
0.052
-0.081
0.066
-0.126
0.103
-0.087
-0.011
0.019
-0.038
0.129
0.055
0.036
-0.033
-0.056
0.003
0.038
0.144
-0.025
-0.034
0.093
-0.038
0.081
-0.042
-0.028
0.119
0.029
-0.111
0.088
-0.028
0.009
0.097
-0.007
-0.012
-0.075
-0.029
-0.018
0.001
-0.041
0.184
0.017
-0.018
0.089
0.078
-0.013
-0.008
-0.005
-0.009
0.117
0.051
0.055
-0.081
0.028
0.009
0.006
0.043
0.049
0.077
-0.048
0.143
-0.030
0.038
0.062
0.052
-0.004
0.029
0.023
-0.036
-0.054
0.174
0.103
-0.044
0.036
0.072
-0.118
-0.039
0.162
0.082
0.002
0.020
-0.085
-0.002
0.173
0.055
0.083
0.047
-0.021
-0.051
0.118
0.065
0.067
0.008
-0.090
-0.011
0.118
0.052
-0.007
0.047
0.015
0.049
0.004
0.090
0.077
0.037
-0.047
-0.070
-0.098
0.151
0.119
-0.014
0.005
-0.006
-0.030
0.050
0.088
0.010
0.022
-0.081
0.063
0.078
0.087
0.110
-0.024
0.032
0.071
-0.053
-0.040
0.186
-0.014
-0.004
-0.011
-0.007
-0.039
0.079
0.051
-0.051
0.126
0.014
0.046
-0.003
-0.033
-0.053
0.051
0.011
0.180
0.116
-0.009
0.001
-0.009
0.068
-0.108
0.123
0.067
0.037
-0.060
0.019
0.062
-0.051
-0.047
0.006
0.047
-0.028
-0.044
0.088
0.055
0.055
0.050
-0.074
-0.038
0.068
-0.012
0.051
0.062
0.051
0.054
0.062
0.045
0.004
0.002
0.070
-0.040
-0.104
0.029
-0.070
0.004
0.055
0.114
0.130
0.018
0.022
-0.093
-0.023
-0.054
0.043
0.061
0.097
-0.170
0.085
0.075
0.057
0.062
-0.064
-0.109
0.039
0.123
0.111
-0.101
-0.004
0.005
0.023
0.125
0.054
-0.023
0.049
-0.048
0.010
0.023
-0.041
-0.123
0.137
0.024
0.025
0.138
-0.090
0.002
-0.029
0.003
0.006
-0.003
0.177
-0.057
0.039
0.050
-0.053
-0.062
0.004
0.066
0.057
-0.047
0.008
0.106
0.036
0.015
-0.035
-0.049
0.011
0.006
0.012
-0.043
0.200
0.025
0.062
0.031
-0.018
-0.060
0.023
0.106
-0.061
-0.033
0.060
0.045
0.002
0.012
0.057
-0.034
-0.017
0.023
0.044
0.068
0.037
-0.145
-0.032
0.061
0.084
0.069
0.009
0.016
-0.023
-0.060
0.118
-0.010
-0.002
0.115
0.013
-0.023
0.052
0.059
-0.025
0.025
0.064
0.029
0.066
0.051
-0.013
-0.066
-0.078
0.071
0.003
0.140
0.018
0.062
-0.024
-0.020
-0.043
0.069
0.044
0.067
-0.034
0.024
-0.006
0.002
0.020
0.090
0.106
0.108
-0.085
0.108
-0.006
0.013
-0.039
0.072
0.008
0.075
-0.046
0.117
0.046
0.084
0.046
0.026
-0.011
-0.012
-0.085
-0.049
-0.029
0.173
0.057
0.078
0.004
-0.159
-0.002
-0.021
0.029
0.064
0.015
-0.030
0.040
0.045
0.180
-0.085
0.019
-0.030
0.007
0.058
0.033
-0.016
0.051
0.079
-0.011
-0.006
-0.040
0.072
-0.039
0.119
0.199
-0.135
0.064
0.097
0.050
0.027
0.056
0.087
-0.072
-0.096
0.017
0.060
0.097
-0.043
-0.036
-0.031
0.026
-0.012
0.108
0.076
-0.012
-0.071
0.038
0.066
0.041
0.027
-0.038
0.099
0.084
-0.028
-0.113
-0.085
0.102
0.115
-0.068
0.116
0.106
-0.068
-0.012
-0.039
0.051
0.045
-0.044
0.139
-0.093
-0.025
0.132
0.107
0.033
-0.035
0.069
0.112
-0.005
-0.020
-0.029
0.079
0.107
0.033
-0.022
-0.046
0.050
0.066
0.032
0.003
-0.006
0.098
-0.010
0.043
0.030
0.017
0.044
0.077
0.015
0.072
0.039
0.101
-0.048
0.003
0.129
0.017
-0.045
0.059
0.087
-0.033
0.061
0.050
-0.021
0.082
0.031
-0.067
-0.043
-0.085
0.127
0.086
0.026
-0.003
0.052
0.019
-0.009
-0.093
0.092
0.047
-0.009
0.135
0.038
0.037
0.041
-0.024
-0.137
0.071
0.160
-0.084
0.071
-0.008
0.061
0.121
0.147
-0.002
-0.112
-0.017
0.059
0.115
0.035
-0.038
-0.001
0.035
0.076
0.066
-0.081
0.010
-0.101
0.086
0.013
0.004
0.075
-0.027
0.078
-0.029
0.120
-0.027
-0.080
0.085
0.124
0.002
-0.050
0.089
0.053
-0.035
-0.095
0.026
0.015
0.051
0.022
0.038
-0.011
-0.023
0.007
0.030
0.034
0.035
-0.054
0.139
-0.033
-0.001
0.056
0.092
-0.042
0.086
0.017
0.041
-0.060
-0.026
0.054
0.110
0.088
-0.020
-0.107
0.000
0.092
-0.012
-0.023
0.003
0.108
0.132
0.039
0.043
-0.107
-0.002
0.208
0.098
-0.166
-0.002
-0.042
-0.014
-0.017
0.073
0.059
-0.014
-0.046
-0.002
0.054
0.026
0.025
0.009
-0.010
0.019
-0.011
0.051
0.033
0.067
-0.007
0.073
0.056
0.018
-0.093
0.013
-0.002
0.121
0.007
-0.025
0.002
-0.010
0.166
0.082
-0.001
0.051
-0.030
0.032
-0.021
-0.012
0.036
-0.106
0.033
-0.030
-0.011
0.054
0.100
-0.043
-0.006
-0.043
0.023
-0.044
0.012
0.115
0.151
-0.038
0.011
0.068
0.052
-0.022
-0.017
0.116
0.062
-0.049
-0.006
0.014
0.018
0.032
0.061
-0.069
0.097
0.105
-0.019
-0.057
0.050
0.048
0.047
-0.029
-0.067
0.051
0.061
-0.075
0.156
0.034
0.067
0.018
-0.035
-0.004
0.053
0.023
0.083
0.052
-0.026
0.093
-0.106
0.027
0.003
0.038
0.052
0.012
-0.001
0.068
-0.014
-0.016
0.031
0.053
0.057
-0.043
0.044
0.008
0.137
-0.020
0.019
0.021
0.022
0.078
0.018
-0.093
0.050
0.032
0.013
0.015
-0.015
0.046
-0.021
0.096
-0.043
0.028
-0.036
-0.072
0.136
0.096
0.014
0.016
-0.057
0.071
0.021
0.102
0.023
0.014
-0.020
-0.113
0.026
0.067
-0.011
0.070
-0.111
-0.046
0.064
0.074
-0.009
-0.035
0.095
-0.035
-0.064
0.016
0.019
0.049
0.054
0.024
-0.003
0.048
-0.028
0.109
-0.093
-0.027
0.076
0.039
0.036
-0.005
-0.024
0.020
-0.045
0.008
0.040
0.025
0.074
-0.003
0.047
0.093
-0.049
0.040
-0.005
0.072
0.033
0.045
-0.155
0.068
0.015
-0.085
-0.066
-0.019
0.050
0.036
0.016
0.057
0.032
-0.022
-0.002
0.023
0.079
0.034
-0.081
-0.006
0.149
-0.039
-0.061
0.071
0.045
-0.018
0.102
0.012
0.064
0.096
0.058
-0.024
0.096
-0.040
-0.039
0.089
0.022
0.076
-0.076
0.009
0.117
-0.072
-0.034
0.025
-0.017
-0.053
0.106
-0.015
0.009
0.001
0.028
-0.081
-0.028
0.149
0.055
0.015
-0.080
0.068
-0.060
0.049
0.121
0.120
-0.089
-0.034
0.048
0.005
-0.072
0.018
0.005
0.080
0.092
-0.027
0.085
0.102
0.023
0.033
0.109
0.024
0.028
0.008
-0.067
0.005
0.115
0.112
0.088
-0.052
0.044
-0.029
0.039
-0.065
0.109
-0.064
0.075
0.050
-0.038
0.033
0.115
0.047
-0.099
0.153
0.053
-0.057
-0.040
0.125
-0.046
0.013
0.378
-0.248
-0.295
0.077
0.332
-0.188
-0.105
0.132
0.181
-0.044
0.016
0.240
-0.166
-0.105
-0.095
0.203
0.153
0.028
0.032
0.015
0.152
-0.092
0.037
0.107
0.132
0.172
0.036
0.062
0.015
0.012
0.026
0.024
-0.036
0.036
0.104
0.050
0.079
0.013
-0.067
-0.048
-0.104
0.062
0.060
0.091
-0.080
-0.042
-0.042
0.101
-0.056
0.017
0.007
-0.032
0.018
0.239
-0.030
0.033
-0.001
0.024
0.067
0.042
0.065
0.018
0.009
-0.095
-0.021
0.204
0.070
-0.069
-0.080
0.018
0.152
-0.054
0.018
0.021
-0.052
0.021
0.033
0.060
0.118
0.018
0.054
0.106
0.014
-0.092
-0.100
0.031
0.077
-0.003
0.065
0.011
-0.012
0.020
0.003
0.105
-0.069
-0.001
0.064
0.082
-0.027
-0.108
-0.038
0.123
-0.031
0.024
-0.080
0.156
0.091
0.082
0.174
-0.022
-0.053
-0.080
-0.009
-0.075
0.074
-0.020
0.025
0.085
0.017
0.027
0.020
0.003
-0.016
0.042
0.034
0.162
-0.113
0.050
-0.070
0.022
0.075
0.152
-0.000
0.043
-0.021
0.120
0.023
-0.124
-0.012
0.122
0.102
-0.105
0.039
0.135
0.054
0.007
-0.099
0.078
0.017
-0.032
-0.080
0.126
-0.018
0.049
0.136
0.064
0.024
0.059
-0.017
-0.040
0.026
0.086
-0.022
0.047
0.087
0.091
0.084
-0.029
-0.070
0.057
0.092
0.100
-0.100
-0.164
0.081
0.119
0.125
-0.044
-0.090
0.003
0.064
-0.018
0.025
0.019
0.017
-0.022
0.125
0.018
-0.053
0.060
0.084
0.057
-0.067
0.079
-0.077
-0.038
0.035
0.098
-0.010
-0.019
0.052
-0.073
0.170
-0.067
-0.037
0.075
-0.016
0.006
0.134
-0.046
-0.060
0.131
-0.008
-0.011
0.087
-0.031
0.053
0.040
-0.038
-0.038
0.109
0.061
-0.052
0.092
0.026
0.028
0.076
-0.042
-0.040
0.018
0.115
-0.038
0.065
0.010
-0.088
-0.015
0.086
0.064
0.038
-0.026
-0.147
-0.033
0.076
0.064
-0.036
-0.047
0.099
0.034
-0.023
0.020
0.078
-0.037
0.017
0.052
0.037
0.034
0.012
0.083
0.123
0.054
0.056
0.038
-0.168
0.018
0.103
-0.058
0.093
-0.096
-0.139
0.012
0.100
0.063
-0.016
0.080
0.064
0.132
-0.069
-0.063
-0.012
0.103
-0.004
-0.029
0.016
0.105
-0.087
0.047
0.009
0.086
0.017
-0.003
0.017
0.063
0.028
0.163
0.009
0.077
-0.073
-0.020
0.082
0.116
-0.051
-0.025
0.061
0.069
0.021
-0.034
-0.004
0.058
0.010
-0.021
-0.012
-0.027
0.085
0.022
0.001
0.007
0.010
0.039
0.022
0.040
0.020
-0.053
-0.054
0.013
0.127
0.012
0.036
0.015
-0.080
0.050
-0.012
0.050
0.038
0.069
-0.045
-0.092
0.116
-0.016
0.105
0.091
0.135
-0.076
-0.082
0.070
0.112
0.068
-0.037
0.005
0.062
0.035
-0.088
0.057
-0.037
0.019
0.028
0.016
0.098
-0.010
-0.089
0.079
0.012
0.031
-0.016
0.049
0.094
0.134
-0.027
-0.096
-0.029
0.002
0.035
0.091
0.159
-0.059
-0.074
0.005
-0.043
0.009
0.126
-0.049
0.014
0.047
0.125
-0.128
0.008
-0.035
0.106
0.192
-0.066
0.013
0.028
0.017
0.070
-0.012
0.105
0.014
-0.033
0.006
-0.091
0.043
0.063
-0.019
-0.003
0.040
-0.013
-0.040
0.072
-0.054
0.089
-0.070
0.143
0.024
0.044
-0.004
0.075
0.053
0.023
-0.066
0.030
0.070
-0.023
0.040
0.048
0.059
0.160
-0.120
0.020
0.007
0.029
0.066
0.030
0.037
0.012
-0.022
0.182
0.038
-0.128
0.003
-0.014
0.118
0.026
0.090
0.050
-0.002
0.116
-0.066
0.018
-0.035
-0.078
0.082
-0.113
0.125
-0.048
-0.003
-0.034
-0.110
0.130
-0.006
0.077
-0.004
0.043
0.011
0.087
-0.089
0.043
0.064
0.170
-0.036
-0.023
0.103
0.099
-0.020
-0.034
0.042
-0.039
-0.039
0.012
0.048
0.114
0.064
-0.030
0.097
0.052
0.033
0.006
0.001
-0.038
0.007
0.003
0.056
0.031
-0.040
0.007
0.155
0.187
-0.080
-0.042
0.006
-0.094
0.071
-0.041
0.030
-0.108
0.081
0.021
0.059
-0.027
0.014
-0.011
0.017
0.046
-0.059
0.089
0.187
-0.150
0.044
0.013
0.047
0.062
-0.032
0.030
-0.073
0.073
0.076
-0.052
-0.070
0.081
0.005
-0.014
-0.049
0.079
0.052
0.058
-0.016
-0.049
0.147
-0.034
0.138
0.037
-0.049
-0.001
0.015
0.088
0.062
0.086
-0.003
0.055
0.056
-0.029
0.086
0.034
-0.038
-0.026
0.059
0.076
0.069
0.038
-0.077
-0.034
0.051
0.063
0.069
-0.017
0.074
-0.028
-0.005
0.013
0.045
0.035
0.005
-0.079
0.120
0.016
-0.020
0.077
0.102
-0.040
-0.027
-0.121
0.135
0.116
0.019
0.005
0.018
0.081
-0.097
-0.001
0.120
-0.027
-0.066
0.044
0.103
0.027
0.142
0.007
-0.072
0.021
0.030
-0.003
0.135
0.125
-0.010
-0.186
-0.004
0.060
0.040
0.076
-0.015
0.005
-0.004
-0.004
0.057
-0.033
0.105
0.044
0.020
0.085
0.069
-0.008
-0.060
0.007
0.051
0.040
-0.019
-0.045
0.038
0.076
0.093
-0.038
0.051
-0.040
0.019
0.001
-0.041
-0.046
0.003
-0.064
0.111
-0.030
0.071
0.029
0.032
-0.080
0.088
0.068
0.062
-0.124
0.040
0.100
0.107
0.070
-0.173
0.017
0.057
0.027
0.101
-0.071
-0.020
-0.060
0.093
0.047
0.040
0.044
0.137
0.019
0.006
-0.016
0.070
0.202
0.197
-0.133
-0.085
-0.046
-0.054
0.030
0.133
0.014
0.205
0.095
0.007
-0.051
-0.097
0.038
-0.066
-0.008
0.083
0.169
-0.012
0.041
0.075
0.005
0.070
-0.069
-0.059
0.055
-0.102
0.127
0.003
0.083
-0.038
0.008
0.080
-0.013
0.059
0.059
0.108
0.101
-0.022
-0.035
-0.169
0.086
0.115
0.044
-0.008
-0.037
-0.079
0.040
0.042
0.175
-0.052
-0.018
0.114
-0.007
0.055
0.098
-0.020
-0.009
-0.020
0.076
0.037
0.029
-0.066
0.020
0.148
0.008
0.344
0.367
0.443
0.265
0.312
0.073
-0.093
0.013
0.094
0.090
0.064
0.100
-0.028
-0.120
-0.092
-0.152
-0.099
-0.160
-0.225
-0.138
-0.226
-0.112
0.127
-0.060
0.073
0.039
0.032
0.141
0.222
0.044
0.026
-0.060
0.153
0.068
0.168
0.167
0.077
0.118
-0.040
-0.103
-0.103
-0.050
-0.065
0.024
-0.078
-0.133
0.128
0.063
0.040
-0.093
-0.100
-0.069
-0.038
0.163
0.360
0.360
0.428
0.219
0.137
0.044
0.154
-0.078
0.082
0.106
0.120
0.356
0.119
-2.237
-3.703
-1.988
-0.435
1.481
1.784
0.917
-0.137
-0.516
-0.626
-0.636
-0.639
0.185
0.875
1.190
1.064
1.196
0.819
0.659
0.269
0.148
-0.229
-0.295
-0.380
-0.422
-0.296
-0.392
-0.344
-0.201
-0.117
-0.127
-0.097
-0.106
-0.092
0.077
-0.033
0.037
-0.076
-0.093
0.118
0.058
0.010
-0.039
0.037
0.017
0.034
0.035
0.062
0.177
0.065
0.024
0.261
0.112
0.082
0.227
0.019
0.000
0.016
0.104
0.171
0.146
0.246
0.167
0.187
0.111
0.082
0.057
0.134
0.100
0.244
0.370
-0.074
-0.291
-0.016
0.222
0.099
0.157
0.047
0.167
0.074
-0.072
-0.103
0.141
-0.047
0.029
0.049
0.047
0.013
0.099
0.035
0.163
0.006
-0.051
-0.115
0.030
-0.004
-0.017
0.006
-0.023
0.054
-0.156
-0.073
0.025
-0.022
-0.086
-0.164
-0.028
0.080
0.066
-0.015
-0.028
0.040
-0.020
-0.042
0.042
0.120
-0.115
0.163
0.007
-0.099
-0.081
-0.026
-0.055
0.033
-0.044
-0.011
0.039
0.117
-0.088
-0.125
0.010
0.025
0.116
0.051
0.109
-0.084
-0.010
0.156
0.036
-0.052
-0.050
-0.093
0.062
0.225
-0.044
0.052
-0.022
-0.120
0.028
0.165
-0.076
0.076
-0.027
0.025
0.074
-0.024
-0.043
-0.059
0.032
0.126
0.033
-0.055
0.131
0.141
-0.094
-0.113
0.053
-0.009
0.177
0.090
-0.033
-0.029
-0.043
0.062
0.047
0.046
0.040
0.092
0.101
0.146
-0.021
-0.006
-0.032
0.189
-0.013
-0.009
-0.020
0.055
-0.004
0.045
0.024
0.081
0.188
-0.107
-0.062
0.059
0.043
-0.002
0.009
0.024
-0.040
0.040
-0.023
0.160
-0.118
0.072
0.051
0.014
0.104
0.065
-0.051
-0.023
-0.072
0.129
0.110
-0.016
-0.055
0.052
-0.045
0.001
0.140
-0.024
-0.092
0.049
-0.063
0.041
0.018
-0.023
-0.034
-0.084
-0.029
0.126
0.011
-0.004
-0.010
0.054
-0.052
-0.059
0.062
-0.045
0.033
0.087
-0.054
-0.025
0.093
0.120
-0.049
-0.008
-0.102
0.069
0.036
0.106
0.053
-0.057
-0.025
0.082
0.086
-0.056
0.032
0.064
-0.021
-0.022
-0.055
-0.059
0.084
0.138
0.105
0.092
0.019
-0.102
0.087
-0.018
0.013
0.088
0.097
0.134
-0.112
0.065
0.014
-0.117
0.117
0.074
0.046
0.054
-0.018
0.089
0.013
-0.016
0.044
0.063
-0.112
0.150
0.013
-0.037
-0.033
0.072
0.000
0.034
-0.079
0.043
-0.089
-0.012
0.076
0.081
0.125
-0.006
-0.064
0.066
-0.057
-0.042
0.026
0.003
0.074
-0.020
0.096
0.017
0.036
0.033
0.024
0.054
0.120
-0.063
0.030
0.065
0.046
-0.001
0.123
0.080
0.088
0.015
0.042
-0.121
0.135
0.100
-0.040
0.085
-0.071
-0.087
0.104
0.005
-0.014
0.067
0.011
-0.012
-0.053
0.053
0.018
-0.030
0.022
0.057
0.189
0.052
-0.087
0.004
0.111
0.048
-0.006
-0.006
0.008
0.037
-0.120
0.012
0.149
0.056
-0.062
0.052
-0.055
0.023
0.046
0.062
0.073
0.037
-0.040
0.026
0.079
0.068
0.028
-0.005
-0.012
0.120
-0.047
-0.089
0.086
-0.021
-0.019
-0.026
0.179
-0.070
0.044
-0.052
-0.015
0.108
0.026
0.003
-0.081
-0.087
0.053
0.014
0.032
0.023
0.016
-0.023
-0.036
-0.032
0.064
0.018
-0.019
0.015
-0.051
0.082
0.156
0.010
0.239
-0.279
-0.283
-0.062
0.165
0.083
-0.038
0.066
0.207
-0.006
-0.067
-0.104
-0.076
0.042
0.031
0.149
-0.015
0.120
0.011
0.097
-0.075
-0.104
0.051
0.130
0.034
-0.032
-0.023
0.060
-0.067
0.067
-0.057
0.017
0.115
0.062
0.167
-0.035
-0.109
0.043
0.041
0.128
0.029
-0.018
-0.039
-0.013
-0.081
0.006
0.150
0.052
-0.029
0.013
-0.073
0.012
0.055
0.069
-0.050
0.141
-0.020
0.038
0.042
0.013
0.014
0.070
-0.037
-0.093
0.011
0.076
0.084
0.120
0.014
0.012
0.005
-0.058
0.026
0.036
0.019
0.094
0.021
-0.054
-0.021
0.104
-0.059
0.035
0.085
0.086
-0.210
-0.043
0.069
0.080
0.204
-0.145
0.010
0.045
0.083
0.068
-0.140
-0.005
0.034
0.038
-0.105
0.041
0.046
-0.026
-0.045
0.077
0.083
-0.086
-0.018
-0.066
0.035
0.039
-0.003
-0.091
-0.005
0.038
0.079
-0.023
-0.044
-0.003
0.153
0.019
-0.034
0.086
0.007
-0.001
-0.035
0.044
-0.013
0.015
-0.009
0.053
0.018
-0.004
0.033
0.008
-0.058
0.126
-0.069
0.053
0.034
0.064
-0.081
-0.139
0.123
-0.016
-0.021
-0.106
0.121
0.057
0.055
0.066
0.015
-0.136
0.088
-0.002
0.095
0.106
0.076
-0.065
0.021
0.055
-0.032
0.014
0.037
0.083
0.003
-0.040
0.085
-0.026
-0.036
0.016
-0.043
0.047
-0.018
0.007
0.135
0.052
0.040
-0.120
-0.028
0.030
0.144
0.134
0.009
-0.068
-0.078
-0.032
0.017
-0.051
0.138
0.092
-0.038
0.046
0.102
-0.078
-0.010
-0.026
0.130
-0.049
0.069
0.020
-0.065
0.109
0.059
-0.026
0.055
0.016
0.000
0.064
0.027
-0.096
0.002
0.090
0.020
-0.073
0.053
0.074
-0.013
-0.176
0.129
0.030
-0.000
0.087
-0.082
0.019
0.073
0.095
-0.051
-0.085
0.139
0.357
-0.031
-0.235
-0.008
-0.076
-0.071
0.243
0.140
-0.291
-0.195
0.031
0.145
0.041
-0.031
-0.150
-0.094
0.122
0.009
0.001
0.023
0.027
0.041
0.026
0.170
0.053
0.148
0.038
0.057
0.035
-0.021
0.039
-0.068
-0.027
0.095
0.057
-0.094
0.089
-0.072
-0.135
0.042
0.026
0.061
0.109
-0.029
0.118
-0.047
0.073
0.017
0.065
0.109
-0.085
-0.054
-0.069
-0.032
0.005
-0.017
0.047
0.130
0.038
0.004
0.019
-0.018
-0.076
0.045
0.108
0.085
-0.077
-0.036
0.056
-0.018
0.042
0.028
0.105
-0.052
0.014
0.061
0.064
0.055
0.011
0.074
0.073
-0.039
0.026
0.043
-0.049
0.075
0.007
-0.039
-0.027
0.014
-0.048
-0.001
-0.011
0.088
-0.015
-0.003
0.026
0.058
0.013
-0.004
-0.010
-0.006
0.017
0.190
0.066
0.012
0.055
0.110
0.065
0.059
-0.003
0.066
-0.089
-0.082
0.172
0.060
0.007
-0.092
-0.018
0.008
0.000
0.031
0.010
0.055
0.011
0.037
-0.019
0.081
0.031
0.010
-0.047
0.114
0.004
0.003
0.046
0.010
0.015
-0.047
0.010
0.209
0.043
-0.050
-0.017
0.031
-0.013
-0.098
-0.007
0.085
0.102
0.073
-0.067
0.061
0.075
-0.020
0.020
-0.165
0.064
0.107
0.064
-0.022
0.166
0.094
-0.129
-0.148
0.045
0.097
0.003
0.070
0.038
-0.095
0.159
0.004
0.010
0.037
-0.048
-0.024
0.099
0.013
0.052
-0.025
-0.036
0.077
0.051
0.047
-0.038
0.014
-0.009
0.136
0.070
-0.047
0.096
-0.011
0.004
-0.105
0.008
0.052
-0.031
0.067
-0.020
-0.081
0.055
0.028
-0.154
0.082
0.107
-0.010
-0.045
0.061
0.097
-0.108
-0.015
0.087
-0.091
0.074
-0.004
0.143
-0.054
0.185
-0.200
-0.001
0.072
0.013
-0.051
-0.024
0.066
-0.022
-0.014
-0.051
0.083
0.148
0.045
-0.067
0.050
-0.108
-0.000
0.107
-0.029
0.030
0.034
0.014
-0.064
-0.007
0.019
-0.022
0.154
-0.067
-0.009
-0.007
0.027
-0.065
0.083
0.063
0.059
-0.064
0.010
0.097
0.045
0.073
0.028
-0.098
0.007
0.029
-0.005
0.116
0.043
-0.102
0.041
-0.037
0.012
-0.013
-0.027
-0.039
0.017
-0.006
0.079
-0.058
0.069
-0.011
0.035
0.068
0.014
0.093
0.033
0.052
0.061
-0.065
0.046
0.183
0.009
-0.011
0.114
0.091
-0.073
-0.002
-0.040
0.065
0.105
-0.013
0.030
0.081
-0.028
0.039
0.041
0.031
-0.101
-0.064
0.071
0.122
0.013
0.035
0.047
0.098
0.103
-0.046
0.029
0.027
-0.070
0.050
0.038
-0.052
0.006
0.116
0.062
0.057
-0.089
-0.021
0.113
-0.006
0.067
0.064
-0.015
-0.025
0.067
-0.058
-0.006
-0.035
-0.026
0.100
0.058
0.048
-0.023
-0.051
0.165
0.172
-0.007
-0.099
-0.033
0.171
-0.011
-0.001
0.030
-0.039
0.067
0.226
0.073
0.044
-0.083
-0.090
-0.064
0.002
-0.058
-0.007
-0.017
0.135
0.115
-0.023
0.008
-0.058
0.051
-0.078
-0.013
-0.049
0.054
0.079
0.005
-0.094
0.068
0.120
0.001
-0.013
-0.019
0.043
-0.108
0.062
0.083
0.135
0.059
0.001
0.030
-0.048
0.061
0.065
0.011
0.114
-0.024
0.036
-0.010
0.041
0.192
0.001
0.095
-0.148
-0.067
0.139
-0.009
0.098
0.136
0.034
-0.037
-0.045
-0.076
-0.009
0.019
0.050
-0.041
0.029
-0.077
0.099
0.049
0.021
-0.013
0.094
-0.071
0.066
0.023
0.021
-0.013
0.074
0.067
0.034
0.055
-0.115
0.010
-0.031
0.085
-0.048
0.052
-0.016
0.110
0.028
-0.037
0.061
0.041
-0.050
0.080
0.049
0.155
-0.087
-0.030
0.166
-0.009
-0.147
-0.088
0.094
0.000
0.117
0.031
0.071
0.027
-0.039
0.024
0.081
0.053
-0.066
0.146
0.048
0.062
0.040
-0.020
-0.019
0.020
-0.034
-0.026
0.066
0.004
0.025
-0.053
0.031
0.064
-0.099
-0.058
0.010
0.031
-0.043
0.078
0.131
0.010
0.017
0.162
-0.083
0.082
0.012
0.018
0.095
0.007
-0.120
0.097
-0.047
0.123
0.028
-0.070
-0.030
0.093
-0.021
0.031
-0.003
0.125
-0.013
0.034
-0.003
0.037
0.002
0.045
-0.034
-0.099
0.041
0.060
0.073
-0.055
0.001
0.137
0.085
-0.054
-0.047
-0.027
0.076
0.161
0.068
0.046
-0.106
-0.004
0.258
-0.133
-0.173
0.079
0.121
0.229
-0.013
0.342
0.159
-0.085
-0.565
-0.366
0.007
0.271
0.276
0.002
-0.017
0.114
-0.007
-0.051
-0.153
-0.112
-0.029
0.059
0.115
0.031
0.004
0.097
0.198
0.103
-0.095
-0.042
0.006
-0.037
0.042
0.014
-0.108
0.129
0.079
-0.136
0.134
0.079
0.001
-0.074
0.042
0.052
0.113
0.128
-0.073
0.065
-0.079
-0.024
0.156
0.002
0.026
0.036
-0.016
-0.019
0.106
0.235
-0.014
-0.021
0.020
-0.009
-0.021
-0.026
-0.006
0.181
0.004
0.039
-0.003
0.144
0.015
-0.025
-0.075
0.148
0.136
-0.062
0.040
-0.021
0.085
-0.120
0.014
0.164
0.054
0.024
0.020
-0.009
0.072
-0.026
0.069
0.077
0.017
0.073
-0.003
0.046
0.073
0.030
0.004
0.056
-0.066
-0.035
0.109
0.014
0.068
0.096
0.021
-0.008
-0.045
0.001
0.058
-0.052
-0.036
0.023
0.045
0.089
0.004
0.026
0.146
0.066
0.019
-0.101
0.017
0.016
0.093
0.169
0.057
-0.078
0.118
-0.005
-0.054
-0.069
0.090
0.081
0.092
-0.078
-0.051
-0.070
0.094
0.166
-0.011
0.001
0.065
-0.184
0.027
0.080
-0.020
-0.007
0.040
-0.119
-0.075
0.080
0.124
0.040
0.004
-0.122
-0.019
0.090
0.096
0.134
0.025
-0.005
-0.051
0.109
-0.059
0.016
0.091
-0.005
0.032
0.011
-0.035
-0.004
0.173
-0.092
0.018
0.051
-0.089
0.063
-0.070
-0.001
0.076
0.100
-0.044
0.034
0.033
-0.036
-0.041
0.202
-0.059
-0.029
-0.061
0.108
0.060
0.054
0.089
-0.039
0.016
0.035
-0.036
0.023
0.066
0.020
0.065
0.034
0.127
0.021
-0.050
0.109
0.003
0.044
0.031
-0.007
-0.069
0.063
0.003
0.018
0.099
-0.024
0.027
0.065
0.005
0.108
-0.019
0.016
0.102
0.015
-0.045
0.035
0.037
0.131
0.001
0.052
0.077
-0.008
-0.046
-0.095
-0.009
0.036
0.108
0.080
0.062
-0.043
0.078
0.065
0.026
-0.061
-0.041
0.094
0.045
-0.052
0.167
0.086
0.082
0.036
0.018
-0.022
0.048
-0.014
0.061
0.125
0.045
0.101
0.005
0.049
-0.059
0.030
-0.015
0.162
0.073
0.092
-0.086
-0.050
-0.008
0.072
-0.023
0.158
0.342
0.026
-0.198
-0.187
-0.080
0.006
0.188
0.153
0.059
0.006
-0.012
-0.101
-0.029
0.062
0.020
0.041
0.072
0.020
-0.022
0.030
0.066
0.170
0.069
-0.003
0.090
0.041
0.045
0.096
0.025
-0.094
-0.117
0.127
0.049
0.004
0.059
0.040
0.081
-0.010
0.064
-0.017
-0.019
-0.098
0.142
0.043
0.004
-0.059
0.180
0.081
0.056
-0.042
0.026
0.005
0.107
-0.081
0.016
-0.033
0.023
-0.023
-0.034
0.135
0.046
-0.074
0.055
-0.177
0.031
0.150
0.074
0.041
0.021
-0.047
-0.020
0.061
0.218
-0.037
-0.025
-0.081
0.038
0.076
0.082
-0.040
-0.031
0.034
-0.023
0.087
-0.019
-0.041
0.051
-0.015
0.065
0.069
-0.040
0.013
-0.051
0.076
0.156
0.007
-0.084
-0.011
0.020
0.066
0.067
-0.007
0.010
0.195
-0.067
-0.005
0.066
0.077
-0.080
0.080
0.003
0.133
-0.123
0.136
-0.024
0.099
-0.086
-0.005
-0.027
-0.041
0.035
0.013
0.010
0.051
0.074
0.019
0.114
0.020
-0.055
0.011
-0.016
0.002
0.148
0.082
0.012
-0.017
-0.165
-0.059
0.030
-0.026
0.010
0.033
0.107
-0.056
-0.002
0.046
0.025
0.013
0.013
0.089
-0.013
0.151
-0.013
0.052
-0.036
0.101
0.067
0.105
-0.049
-0.030
0.069
-0.071
0.072
0.101
-0.035
-0.031
0.021
-0.052
0.011
0.117
0.020
0.011
-0.026
0.038
-0.026
0.010
-0.039
0.004
0.020
0.023
0.097
0.031
0.102
0.007
-0.082
-0.028
0.082
0.047
0.067
-0.066
0.080
-0.004
-0.005
-0.078
0.083
0.086
0.062
-0.065
0.012
0.065
-0.044
0.157
0.080
-0.138
-0.279
0.132
0.250
0.152
0.122
-0.128
0.086
-0.168
-0.064
0.075
0.294
-0.084
-0.056
-0.032
-0.093
0.161
0.100
0.278
0.122
-0.004
-0.009
-0.018
0.065
0.076
-0.009
0.047
-0.083
0.043
0.032
0.213
0.002
-0.010
0.016
0.020
-0.014
-0.065
-0.144
0.050
0.159
0.126
0.031
-0.062
0.008
0.041
0.053
0.022
-0.038
0.165
0.259
0.254
0.223
-1.330
-0.490
0.301
0.525
0.359
0.202
-0.005
-0.142
-0.085
-0.250
-0.140
0.054
0.185
0.192
0.117
0.099
0.113
0.079
0.144
-0.017
0.053
-0.073
0.081
-0.006
0.035
-0.146
-0.000
0.032
0.108
0.083
-0.022
-0.105
-0.009
0.209
0.000
0.065
-0.096
0.006
0.053
0.066
0.093
0.074
-0.111
-0.016
0.040
0.093
0.064
-0.103
0.036
0.080
0.119
-0.014
0.010
-0.114
0.104
0.119
0.013
-0.106
-0.037
0.120
0.045
0.046
-0.105
-0.037
0.055
0.124
0.227
0.091
-0.045
-0.028
-0.045
0.179
-0.007
0.006
0.173
0.116
-0.028
0.012
-0.092
0.103
0.114
0.039
0.010
-0.028
-0.002
0.003
0.066
-0.058
0.114
0.169
0.038
-0.017
-0.043
0.017
-0.033
0.062
0.121
0.138
0.114
-0.036
-0.067
-0.025
0.028
0.074
0.075
-0.090
0.028
0.081
0.101
0.016
-0.030
0.123
0.009
0.015
-0.091
0.029
-0.045
0.083
0.022
0.079
0.077
-0.006
0.007
-0.019
-0.045
0.061
0.088
0.001
0.045
0.052
0.056
-0.014
0.093
-0.063
0.047
0.145
-0.078
0.007
0.037
0.062
-0.033
0.033
0.018
0.067
0.008
0.032
-0.018
-0.012
0.078
-0.011
0.102
0.006
0.089
0.050
-0.059
-0.033
0.128
0.076
-0.047
0.073
0.030
0.017
0.096
-0.102
-0.054
0.105
0.021
0.073
0.024
0.003
0.055
-0.099
-0.009
0.033
0.022
-0.077
0.176
0.089
0.014
0.012
0.022
0.003
0.129
0.047
-0.086
-0.096
0.014
0.101
-0.007
-0.116
-0.084
0.054
0.017
0.059
0.010
0.144
-0.041
0.074
0.010
0.076
-0.018
0.026
0.005
0.099
0.016
0.075
-0.087
-0.049
0.104
-0.022
-0.069
0.032
-0.014
0.038
-0.032
0.031
-0.041
0.078
0.073
-0.024
0.080
0.080
0.063
0.051
0.011
0.013
0.049
-0.087
0.003
0.116
-0.044
0.032
0.001
-0.103
0.044
0.001
-0.061
0.044
0.090
-0.004
-0.030
0.014
0.074
-0.033
0.054
0.004
0.030
0.042
0.030
0.076
-0.071
0.056
0.009
0.080
-0.008
0.063
-0.076
0.062
0.113
-0.025
0.006
-0.004
-0.032
0.003
0.101
0.119
0.019
0.015
-0.009
0.005
0.132
0.114
0.052
-0.013
0.099
0.069
-0.051
0.088
-0.024
0.011
0.041
0.076
-0.033
-0.076
0.057
0.005
0.015
0.012
0.120
0.059
0.040
-0.020
0.115
0.112
0.022
0.033
0.002
0.011
0.002
-0.013
0.008
0.027
-0.011
0.018
0.060
0.039
-0.111
-0.034
-0.025
0.127
0.014
0.087
-0.045
0.115
0.142
0.011
-0.015
0.176
0.178
-0.067
0.053
-0.004
0.037
-0.030
0.088
0.024
0.056
-0.049
-0.118
0.070
0.122
-0.039
-0.000
-0.066
0.103
0.040
0.055
-0.043
0.104
0.032
0.032
0.041
-0.138
0.088
0.076
-0.104
0.071
0.099
0.068
0.028
-0.041
0.017
0.002
-0.041
0.035
0.037
0.074
0.039
-0.102
0.108
0.017
0.137
-0.081
0.053
0.009
0.030
0.098
-0.129
0.031
0.006
0.088
0.096
-0.033
-0.025
0.022
0.080
-0.037
0.005
0.134
0.149
-0.091
0.027
0.123
-0.077
0.051
0.067
0.054
0.065
-0.046
-0.018
-0.066
0.072
0.011
0.034
-0.049
0.100
0.091
-0.023
-0.026
0.035
0.040
0.121
-0.001
0.099
0.067
-0.027
0.005
0.021
0.000
0.071
-0.034
0.075
-0.073
0.018
0.087
-0.008
-0.015
0.113
-0.025
-0.060
-0.013
-0.052
0.112
0.058
0.071
-0.015
0.103
-0.080
0.039
-0.024
0.087
0.041
0.109
-0.027
-0.128
-0.053
0.046
-0.018
0.101
0.015
-0.018
0.097
-0.127
0.042
0.025
0.032
-0.033
0.065
0.063
0.016
0.078
0.128
0.054
-0.068
-0.084
-0.030
0.048
0.006
0.130
-0.041
-0.079
-0.054
-0.006
0.011
-0.058
0.114
0.039
-0.081
0.034
0.071
0.125
0.007
-0.072
-0.002
-0.054
0.109
-0.005
0.046
0.073
-0.073
-0.098
0.053
0.067
0.147
-0.010
-0.086
0.075
0.030
0.045
-0.100
0.131
0.130
-0.011
0.028
0.020
-0.112
0.095
0.010
0.043
0.118
0.001
-0.038
0.061
-0.053
0.033
0.099
0.165
0.017
-0.116
-0.042
0.013
0.039
0.009
0.142
0.021
0.020
-0.040
-0.032
0.090
-0.070
0.003
-0.015
0.115
-0.090
0.206
-0.064
-0.055
0.086
0.095
0.100
0.024
-0.040
-0.045
-0.072
-0.027
0.224
0.082
-0.006
0.043
0.011
0.020
-0.015
0.016
-0.024
0.021
0.085
0.034
-0.095
0.038
0.100
0.014
-0.022
-0.048
-0.072
0.076
0.083
0.016
-0.040
-0.017
-0.025
-0.004
-0.007
0.030
-0.080
0.015
0.067
0.033
0.084
0.132
-0.023
-0.064
-0.024
0.015
0.029
0.054
-0.051
0.117
0.092
0.007
0.014
-0.001
0.014
0.060
0.030
0.037
0.066
-0.039
-0.057
-0.119
-0.007
-0.002
0.078
0.078
0.013
0.059
-0.013
0.043
-0.009
0.022
0.037
0.170
0.065
0.096
0.034
0.035
0.090
-0.020
0.043
-0.024
-0.072
0.085
-0.098
-0.031
-0.032
0.122
0.072
0.015
-0.052
0.084
-0.056
0.088
0.030
-0.019
0.048
0.056
-0.006
0.083
0.079
0.080
-0.019
-0.029
0.093
-0.041
-0.124
0.000
0.149
0.101
0.006
-0.046
0.052
-0.019
0.057
0.042
-0.043
0.006
0.020
0.183
-0.042
0.049
0.015
0.096
-0.075
-0.035
0.038
-0.122
0.092
-0.029
0.087
0.060
0.001
-0.046
-0.034
0.047
0.036
0.078
0.043
-0.105
-0.021
-0.025
0.156
-0.023
-0.001
0.106
0.010
0.034
0.072
0.012
0.064
-0.044
0.053
-0.038
0.037
-0.058
-0.012
-0.069
0.027
0.083
-0.040
-0.115
0.050
0.012
0.039
0.011
0.185
0.010
0.037
0.066
0.017
0.054
-0.019
0.085
0.067
0.022
0.004
0.060
-0.072
0.029
0.194
0.085
-0.004
-0.009
0.020
0.003
0.062
-0.036
0.253
0.107
-0.126
-0.033
-0.109
0.058
0.097
-0.006
-0.087
-0.075
0.122
0.119
0.001
0.041
-0.006
0.097
0.196
-0.046
0.032
0.087
0.047
-0.052
-0.021
0.101
0.038
0.054
0.048
-0.080
0.033
0.025
-0.000
0.092
-0.013
0.091
0.048
0.075
-0.010
0.027
0.046
0.015
-0.074
0.075
-0.009
-0.000
0.121
0.036
0.087
0.056
-0.067
-0.048
0.049
0.010
-0.052
0.101
0.023
0.008
0.016
0.073
0.065
-0.050
0.080
-0.052
0.002
0.024
0.016
0.037
0.061
0.053
-0.028
-0.012
0.108
0.153
-0.026
-0.020
-0.019
0.019
0.065
0.006
-0.017
0.067
0.121
-0.007
0.125
-0.017
-0.008
0.075
-0.089
-0.078
0.018
0.155
-0.006
0.038
-0.009
-0.060
-0.075
-0.036
0.005
0.120
0.044
0.082
-0.064
-0.001
0.127
0.082
0.030
-0.063
0.165
0.044
-0.181
0.038
0.005
0.089
0.073
-0.107
0.021
-0.110
-0.036
0.148
0.073
-0.153
0.056
-0.037
0.070
0.177
0.035
-0.047
0.032
0.062
0.152
0.013
-0.035
-0.010
0.004
-0.016
-0.005
0.025
0.022
-0.003
0.060
-0.061
-0.022
0.097
0.056
0.004
-0.061
0.042
-0.013
0.075
0.081
-0.039
-0.024
0.024
0.045
0.067
0.135
0.003
-0.093
0.075
-0.043
-0.069
0.043
-0.085
0.059
0.027
0.102
-0.025
0.188
-0.156
-0.086
0.021
0.117
0.019
0.025
-0.074
0.080
-0.008
0.057
0.074
-0.025
-0.060
0.093
0.128
0.095
-0.088
0.034
0.016
-0.050
0.072
0.027
0.124
0.002
0.031
-0.077
-0.013
0.052
0.148
-0.036
0.083
-0.187
0.024
0.022
0.064
-0.089
0.121
0.114
0.153
-0.094
0.004
0.060
0.103
0.042
0.063
0.065
-0.012
0.081
0.025
-0.005
0.024
-0.063
0.028
-0.022
-0.053
0.027
-0.104
0.200
0.038
0.037
-0.016
-0.076
0.015
0.129
-0.009
0.022
-0.024
-0.005
0.090
-0.018
0.020
0.151
-0.054
0.078
-0.027
0.031
0.092
-0.087
0.074
0.010
0.035
-0.016
-0.040
0.007
0.026
-0.056
0.069
0.124
0.048
0.052
-0.050
0.011
0.012
0.050
0.062
0.050
-0.067
0.100
0.043
0.053
0.048
0.013
0.046
0.019
0.080
0.048
0.047
-0.122
-0.001
-0.034
0.106
-0.029
0.190
-0.057
-0.049
-0.020
0.114
-0.055
0.078
-0.038
0.053
-0.101
0.091
0.066
0.167
-0.112
-0.030
0.076
0.020
0.073
-0.162
0.057
-0.027
0.076
0.158
0.122
-0.091
-0.130
0.081
0.109
0.071
0.032
0.002
-0.010
0.175
-0.063
-0.050
-0.138
0.137
0.084
0.038
-0.092
-0.032
0.085
0.037
0.019
0.084
0.051
0.077
-0.045
0.161
0.095
0.062
-0.016
-0.076
0.019
0.094
0.065
-0.007
0.058
0.048
-0.090
-0.024
-0.019
0.084
0.115
-0.039
0.037
-0.073
0.106
0.086
0.025
0.034
-0.104
0.139
0.069
-0.037
0.003
0.011
0.138
-0.001
-0.001
0.011
-0.122
0.074
0.035
0.060
0.065
0.172
0.149
0.104
0.318
0.436
0.699
0.292
-0.522
-0.978
-0.607
-0.100
0.408
0.584
0.349
-0.081
-0.260
-0.379
-0.588
-0.444
-0.260
0.019
0.185
0.054
0.060
0.095
0.042
0.051
0.039
0.283
0.217
0.252
0.209
0.208
0.000
0.112
0.049
0.083
0.149
-0.036
0.012
0.014
0.166
-0.014
-0.205
-0.073
-0.060
-0.012
0.057
-0.056
-0.045
-0.104
-0.075
0.017
-0.077
-0.097
0.070
0.059
0.086
0.034
-0.030
-0.028
0.024
-0.001
-0.044
-0.006
-0.027
0.046
0.112
0.136
0.077
-0.018
-0.015
0.058
-0.028
-0.049
0.064
0.057
-0.029
-0.071
0.121
-0.075
0.025
-0.087
-0.042
0.050
0.224
-0.018
-0.025
0.047
0.060
0.048
0.027
0.063
0.074
0.074
0.030
-0.029
0.124
-0.021
0.001
-0.007
0.039
-0.013
0.111
0.060
0.193
-0.036
-0.082
0.042
0.066
0.074
-0.004
-0.055
0.032
-0.012
0.084
-0.047
0.208
0.017
-0.018
-0.132
-0.041
0.031
0.078
0.095
0.085
-0.024
-0.033
-0.009
-0.095
0.005
0.057
0.090
-0.025
0.030
-0.040
-0.089
0.040
0.097
0.142
-0.060
-0.123
-0.066
0.058
0.023
0.081
0.109
0.087
-0.122
-0.056
-0.036
0.143
0.110
-0.023
-0.087
0.089
0.072
0.008
0.085
-0.157
0.018
-0.016
0.072
0.068
-0.012
0.021
-0.018
-0.051
0.085
0.013
-0.015
-0.066
-0.049
0.020
0.205
0.039
-0.138
0.013
-0.070
0.070
0.002
0.071
0.043
0.050
-0.019
-0.019
0.028
0.075
0.021
0.048
0.040
0.052
0.007
0.076
-0.014
-0.018
0.089
0.007
-0.081
-0.095
0.171
0.058
0.052
0.027
-0.053
0.099
0.131
0.004
-0.119
-0.118
0.097
0.113
0.103
0.037
0.073
-0.058
0.073
-0.029
0.007
0.025
-0.048
-0.038
0.050
0.147
-0.042
0.085
-0.005
0.028
-0.068
0.072
-0.018
0.055
0.088
-0.005
0.033
0.052
0.036
-0.133
-0.006
0.089
-0.049
0.087
0.034
0.046
0.077
0.066
-0.108
0.036
0.111
-0.028
0.010
-0.017
0.132
-0.025
-0.015
0.053
0.007
-0.008
0.022
-0.029
0.056
0.154
-0.006
0.058
-0.017
-0.102
0.065
0.038
0.017
-0.053
0.108
0.074
-0.058
0.122
0.067
-0.048
-0.015
0.000
0.017
0.152
-0.039
0.047
-0.021
-0.034
-0.045
0.054
0.030
0.152
-0.072
0.083
0.008
-0.093
0.023
0.034
-0.001
-0.026
0.180
0.060
0.004
0.037
0.013
0.002
-0.032
0.020
0.056
0.074
0.008
-0.037
0.072
0.096
0.103
-0.109
-0.010
0.022
0.130
0.021
0.043
0.023
-0.050
0.023
0.063
0.049
0.060
0.122
-0.052
-0.042
-0.047
-0.009
0.053
0.081
0.022
0.091
0.033
0.040
0.067
0.030
0.056
0.067
0.062
-0.057
-0.020
-0.040
0.102
0.051
-0.064
0.079
-0.000
0.015
0.054
-0.041
0.044
0.015
0.136
-0.009
-0.062
-0.017
-0.032
0.022
-0.116
0.047
0.039
0.026
-0.063
-0.031
0.028
0.124
-0.044
0.015
0.107
-0.051
0.048
0.132
0.073
0.003
-0.152
0.153
-0.027
-0.006
-0.037
0.108
-0.002
0.025
0.014
-0.006
0.002
0.032
0.117
-0.040
-0.069
-0.005
0.085
0.057
0.093
-0.022
0.105
-0.023
0.073
-0.022
0.088
-0.078
0.013
0.061
0.093
-0.032
0.000
0.175
-0.047
-0.043
-0.027
-0.014
-0.043
0.125
0.011
0.142
0.022
-0.105
0.059
0.030
0.106
-0.156
-0.028
-0.144
0.140
0.118
-0.052
0.059
-0.043
-0.112
-0.039
0.105
0.084
0.077
-0.094
-0.054
0.153
-0.029
0.123
0.092
-0.006
0.018
-0.019
0.095
-0.037
-0.020
0.208
0.004
0.081
-0.032
-0.034
0.117
0.081
0.026
0.105
0.109
0.075
-0.206
-0.076
0.004
0.175
0.078
0.024
0.070
-0.154
-0.130
0.003
-0.092
0.112
0.041
-0.036
-0.034
0.013
0.122
0.079
-0.101
0.071
-0.045
0.032
-0.008
-0.131
0.011
-0.045
0.090
0.133
0.057
0.020
-0.020
0.125
-0.057
0.165
-0.073
0.039
0.011
0.090
0.032
-0.023
-0.046
0.028
0.093
0.060
0.013
0.056
-0.020
-0.039
-0.038
0.033
-0.047
0.117
-0.136
-0.097
0.049
0.063
0.078
0.011
0.127
-0.034
0.033
0.120
0.042
0.052
0.023
0.123
0.019
-0.028
-0.005
0.018
0.046
-0.034
0.017
-0.070
0.040
0.012
0.086
0.083
0.081
-0.075
-0.055
0.095
0.022
0.026
-0.072
0.102
0.051
-0.105
0.065
0.021
0.085
-0.035
0.109
-0.043
-0.114
0.051
0.011
-0.023
0.183
-0.061
0.105
0.093
-0.074
0.092
0.014
0.002
0.073
0.069
0.010
-0.022
0.068
-0.061
0.014
0.043
-0.058
0.094
0.058
0.085
-0.034
0.073
0.024
-0.015
0.100
0.155
0.031
0.002
0.033
0.062
-0.091
0.068
0.072
-0.049
-0.038
0.042
0.002
0.177
0.047
-0.079
0.102
0.036
-0.031
-0.060
-0.059
0.001
-0.048
-0.027
0.058
0.035
0.040
0.014
-0.025
-0.030
0.128
-0.123
0.032
0.057
0.221
-0.005
0.007
0.074
0.038
-0.009
0.046
-0.058
0.026
-0.006
0.035
-0.013
0.008
0.071
0.084
0.057
-0.026
0.036
0.089
-0.080
0.060
0.121
0.155
0.018
-0.027
-0.040
0.003
0.044
0.133
0.031
-0.070
-0.044
0.084
0.001
0.105
0.022
-0.023
-0.085
0.165
-0.123
-0.132
0.043
0.063
0.096
-0.014
0.036
-0.117
0.067
0.076
0.069
0.074
-0.026
-0.049
0.129
0.072
-0.178
0.083
-0.029
-0.000
-0.097
0.061
0.093
-0.054
0.007
-0.008
0.067
-0.057
0.091
-0.021
0.200
-0.050
0.067
-0.068
-0.098
0.125
-0.020
0.002
0.012
0.012
0.134
0.103
-0.028
0.033
0.106
-0.072
0.078
-0.006
0.048
-0.034
0.075
0.087
0.042
-0.015
-0.012
0.001
0.024
0.007
0.028
-0.056
-0.001
0.053
0.019
0.032
-0.050
0.011
0.025
0.022
0.056
-0.049
0.028
-0.042
-0.001
0.045
0.003
0.070
0.082
-0.088
0.054
0.120
0.004
-0.034
-0.007
-0.011
0.105
0.007
-0.026
0.035
-0.099
0.010
0.090
0.099
0.074
0.167
-0.008
-0.025
0.042
0.059
-0.058
0.036
0.067
0.042
0.022
-0.012
-0.069
0.132
-0.029
-0.093
0.005
0.007
0.076
-0.064
0.053
0.037
0.118
0.062
-0.099
0.008
-0.013
0.051
0.081
-0.007
-0.048
0.052
-0.153
0.060
0.154
0.031
-0.112
-0.006
0.108
-0.058
-0.000
0.063
0.058
0.039
0.054
0.037
0.019
0.004
-0.108
0.012
0.086
-0.065
-0.014
0.010
-0.017
-0.060
0.007
0.084
0.020
-0.022
0.070
0.120
0.094
-0.131
0.023
0.084
-0.053
-0.051
-0.007
0.049
-0.013
0.060
0.080
-0.045
-0.064
0.020
0.077
0.042
0.094
0.029
-0.094
-0.086
0.030
-0.014
0.038
0.043
0.082
-0.138
-0.090
0.108
-0.059
0.084
-0.010
-0.106
-0.077
0.008
0.050
0.045
0.047
0.098
0.096
-0.016
0.018
-0.029
-0.079
0.050
-0.134
0.026
0.059
0.140
0.096
-0.018
0.049
-0.122
0.006
-0.054
0.000
0.090
0.061
-0.044
-0.083
-0.109
0.065
0.093
0.162
0.003
-0.045
-0.086
0.000
0.000
-0.021
0.071
-0.118
0.042
-0.087
0.007
0.000
-0.032
-0.002
0.099
0.051
-0.025
0.020
-0.016
0.040
0.083
0.071
-0.033
-0.070
0.020
0.078
-0.003
-0.030
0.067
0.024
-0.081
0.070
-0.062
0.112
0.014
0.118
-0.114
0.041
0.033
0.050
-0.054
0.055
0.064
-0.090
0.048
-0.003
0.093
-0.003
-0.109
-0.040
0.104
0.021
0.148
-0.030
0.013
0.099
0.126
-0.096
0.020
-0.023
0.010
0.017
0.092
0.034
-0.045
-0.000
-0.003
-0.017
0.030
0.048
-0.052
-0.012
0.008
-0.024
0.018
0.050
0.014
0.116
0.028
-0.075
0.088
-0.013
0.121
0.062
-0.037
-0.193
-0.002
0.138
0.185
0.005
-0.033
-0.039
0.133
0.010
-0.028
-0.106
-0.050
0.128
0.056
0.006
0.167
-0.001
0.042
0.017
-0.026
0.085
-0.040
-0.017
0.097
-0.029
0.020
0.068
-0.024
0.014
-0.082
0.122
0.025
0.028
-0.051
0.014
-0.001
0.006
0.093
0.050
0.027
0.044
0.036
0.059
-0.006
-0.009
0.076
-0.074
0.005
0.019
0.035
-0.117
0.085
0.076
0.062
0.056
-0.037
-0.041
-0.086
-0.013
0.135
0.005
0.038
0.110
-0.010
0.096
-0.032
-0.008
0.061
0.090
0.072
-0.049
0.011
0.025
0.093
-0.096
0.031
-0.020
-0.086
0.177
0.016
0.001
0.091
0.014
-0.022
0.008
0.129
-0.041
0.156
-0.048
0.055
0.082
-0.027
0.038
-0.048
-0.007
0.124
0.033
-0.074
-0.043
0.080
0.054
-0.071
-0.049
0.104
-0.035
0.078
0.039
0.020
-0.052
0.064
0.021
0.075
0.067
-0.066
0.018
0.015
0.123
-0.062
-0.028
0.110
-0.002
-0.052
-0.054
-0.121
0.108
0.085
0.018
-0.012
-0.036
0.014
-0.016
0.029
0.029
0.071
0.162
0.161
-0.088
-0.026
0.046
0.086
0.101
0.024
-0.101
-0.020
0.040
0.085
-0.029
-0.122
0.005
0.107
0.001
-0.005
0.018
-0.037
0.003
0.020
0.025
0.016
-0.095
0.165
0.153
0.037
0.039
-0.025
-0.044
0.033
-0.031
-0.003
0.079
0.149
-0.058
-0.079
0.000
-0.017
0.068
0.018
0.042
-0.103
-0.001
0.054
0.001
0.035
0.049
-0.008
0.077
0.045
-0.107
-0.035
0.130
-0.044
0.027
0.130
0.070
-0.013
-0.062
0.010
0.111
0.102
0.023
0.052
-0.007
-0.031
0.040
0.006
-0.013
0.097
0.104
-0.006
-0.020
0.022
0.070
-0.029
0.029
0.057
-0.043
-0.040
0.010
0.081
-0.052
-0.009
0.062
0.044
0.038
0.032
-0.103
-0.043
0.062
0.128
0.006
0.031
0.061
0.056
0.058
-0.026
0.040
-0.004
0.068
-0.049
0.043
0.079
-0.083
0.079
0.010
0.056
0.014
0.064
0.039
-0.098
0.112
0.077
-0.018
-0.039
0.060
0.141
-0.022
-0.074
-0.114
0.054
0.105
0.024
-0.017
-0.050
0.019
-0.051
0.016
0.065
0.111
0.047
0.056
0.026
0.015
-0.028
0.026
-0.064
0.087
0.008
0.003
0.026
0.027
-0.046
-0.005
0.103
0.011
0.062
0.096
-0.078
0.037
-0.017
0.078
0.030
-0.033
0.002
0.014
0.111
-0.033
-0.110
-0.016
0.046
0.075
0.020
0.062
0.014
-0.059
0.068
0.060
0.072
-0.072
0.041
0.024
0.028
-0.042
0.007
0.087
0.064
-0.025
-0.013
0.016
-0.085
0.022
0.050
0.069
0.043
-0.056
0.007
-0.030
-0.041
0.094
0.181
-0.052
-0.019
0.022
0.057
0.009
0.129
-0.059
0.022
0.054
-0.047
0.124
-0.088
-0.005
0.119
-0.023
0.025
-0.018
0.025
0.020
0.088
-0.053
0.041
-0.031
-0.073
-0.000
0.148
0.063
0.005
0.018
0.067
-0.003
0.044
0.064
0.024
-0.031
0.081
0.109
0.089
-0.088
0.141
0.097
0.040
0.025
-0.028
-0.066
-0.014
-0.021
0.035
0.069
-0.012
0.027
0.043
-0.016
0.052
0.069
0.058
0.058
-0.002
-0.006
0.077
0.051
-0.039
0.095
-0.154
0.049
0.045
-0.040
0.084
0.086
0.085
-0.047
0.120
0.001
-0.035
0.064
0.104
0.022
0.071
-0.013
0.089
0.041
-0.036
0.063
0.111
0.022
0.053
0.050
-0.003
0.057
-0.080
-0.083
0.064
0.089
-0.024
0.090
0.039
0.030
-0.030
0.071
0.009
0.038
0.091
0.014
-0.026
0.025
0.008
-0.065
0.120
0.043
-0.045
-0.039
0.114
-0.039
0.119
-0.006
0.072
0.002
-0.068
0.074
0.115
-0.049
-0.015
-0.025
0.156
-0.060
0.008
0.068
-0.066
0.019
0.019
0.034
0.121
0.074
0.075
0.059
-0.062
0.032
0.050
0.002
-0.076
-0.087
0.080
-0.065
0.028
0.054
0.138
-0.032
0.026
-0.012
-0.124
-0.016
0.080
0.165
0.011
-0.017
-0.009
0.146
0.151
-0.040
-0.048
0.033
-0.086
0.054
0.031
-0.053
0.014
0.128
0.021
0.028
-0.044
0.069
-0.050
-0.002
0.080
0.104
0.044
-0.048
-0.052
-0.002
0.093
-0.061
0.008
0.028
0.050
0.018
-0.073
-0.091
0.042
0.030
0.132
0.080
-0.180
0.034
0.126
0.068
-0.076
0.033
0.146
0.011
-0.012
-0.030
0.010
0.089
-0.086
0.110
0.096
0.069
0.010
0.031
0.008
0.092
-0.042
-0.064
-0.073
0.088
0.084
0.105
0.057
-0.065
-0.040
-0.088
0.083
0.031
0.050
0.017
-0.060
0.050
0.044
-0.031
0.029
-0.126
0.114
-0.045
-0.052
0.131
0.087
0.083
0.002
-0.035
0.059
-0.007
0.125
-0.002
0.014
0.018
0.097
0.112
0.105
-0.026
0.048
0.039
-0.145
0.151
0.042
0.003
0.439
0.873
-0.069
-1.415
-0.385
0.138
0.387
0.744
-0.089
-0.342
-0.110
-0.227
0.493
0.571
0.478
-0.121
-1.309
-1.695
0.271
0.824
0.786
0.904
1.019
-1.023
-0.177
-1.210
-0.477
0.567
1.069
0.342
-1.412
-0.412
0.363
0.669
0.492
0.384
0.039
-0.239
0.001
0.037
0.004
-0.006
0.044
0.058
0.127
0.057
-0.026
0.191
0.064
-0.086
0.070
-0.054
-0.066
-0.153
-0.216
-0.100
-0.078
-0.086
-0.130
-0.035
0.206
0.167
0.492
-0.024
-0.207
0.841
0.685
-0.594
-1.208
0.074
0.043
0.810
0.122
-0.013
0.026
0.629
-0.402
-0.680
-0.086
0.137
-0.022
-0.014
0.005
0.209
0.182
0.550
-0.062
-0.171
0.054
0.035
0.354
-0.193
-0.146
0.334
0.171
-0.444
-0.147
-0.022
0.189
0.011
0.097
-0.012
0.007
-0.023
0.145
0.042
0.103
0.011
0.095
0.031
0.091
0.042
-0.005
0.079
0.003
-0.034
-0.034
0.081
-0.067
0.066
-0.014
0.025
0.015
0.049
0.130
-0.007
-0.003
0.009
-0.027
-0.010
0.015
0.115
0.092
0.068
-0.165
-0.032
0.080
0.005
0.159
-0.010
0.005
-0.018
0.098
-0.104
-0.001
0.052
-0.016
0.035
0.050
0.040
-0.018
0.019
-0.080
0.034
0.147
0.162
-0.091
-0.077
0.016
-0.020
0.012
-0.073
0.153
0.063
-0.048
0.020
0.065
-0.004
0.136
0.122
0.142
-0.048
-0.155
0.084
-0.008
0.141
-0.015
-0.012
0.030
-0.055
0.036
0.004
-0.013
0.180
-0.031
0.023
0.001
0.114
-0.024
0.067
0.055
-0.050
0.001
-0.090
-0.054
-0.036
0.186
0.024
0.105
-0.044
0.024
0.013
0.092
-0.036
0.028
0.034
0.039
0.041
0.024
-0.012
0.058
-0.020
0.138
0.079
0.028
-0.041
0.017
0.024
-0.032
-0.040
-0.005
0.092
0.106
0.086
-0.036
-0.002
0.124
0.033
0.042
-0.167
0.003
0.032
0.136
0.053
0.087
0.038
-0.056
-0.085
-0.079
0.134
0.012
0.037
0.019
-0.081
0.061
-0.049
-0.018
0.106
0.024
0.052
0.022
-0.108
-0.124
0.048
0.070
0.106
-0.010
-0.030
-0.020
0.003
0.062
0.151
-0.036
-0.005
-0.026
-0.030
-0.012
0.061
0.127
-0.021
-0.091
0.061
-0.055
0.050
0.016
-0.094
-0.031
0.066
0.105
0.020
-0.101
0.043
0.049
-0.004
0.027
-0.008
-0.014
-0.004
0.156
-0.033
0.084
-0.015
0.042
-0.003
-0.085
-0.040
0.032
0.048
-0.042
-0.003
0.129
-0.011
0.029
0.004
-0.044
-0.039
-0.135
0.017
-0.032
0.090
0.139
-0.070
-0.045
0.007
0.014
0.038
0.061
-0.120
0.002
0.026
0.047
0.120
-0.021
0.082
-0.030
-0.145
0.129
0.023
-0.039
0.096
-0.042
0.021
0.075
-0.058
0.036
0.044
-0.003
0.058
0.107
0.062
0.017
-0.045
0.017
-0.005
0.007
0.097
0.120
-0.003
-0.064
0.038
0.023
0.048
0.001
0.027
0.029
-0.004
0.092
-0.048
0.054
0.058
-0.021
-0.091
-0.013
0.144
0.070
-0.025
0.107
0.102
0.035
-0.026
-0.040
0.069
-0.091
0.100
0.114
0.117
0.020
-0.001
0.049
0.066
0.016
0.087
-0.173
0.101
0.159
-0.004
0.013
0.039
-0.004
0.036
-0.017
-0.050
-0.031
-0.009
0.155
0.046
-0.001
0.019
0.056
0.067
0.016
0.037
0.055
0.028
-0.004
0.038
0.005
-0.008
0.092
-0.072
-0.010
-0.059
0.091
0.017
-0.012
0.092
0.019
0.045
-0.079
-0.033
-0.008
-0.012
-0.044
-0.064
0.157
0.036
0.037
0.038
0.002
0.047
-0.011
-0.082
0.109
-0.002
-0.004
0.025
0.106
-0.006
-0.017
-0.093
0.025
0.099
0.024
0.043
0.068
-0.068
0.019
-0.020
-0.049
-0.005
0.071
0.039
-0.000
0.078
-0.041
0.011
-0.081
-0.031
0.015
0.116
-0.033
-0.013
-0.106
0.045
0.066
-0.033
0.099
0.053
0.015
-0.074
-0.049
0.001
-0.049
0.093
-0.129
0.105
0.103
0.102
0.107
0.026
-0.005
-0.119
0.028
0.125
0.050
-0.034
0.113
0.017
-0.065
0.079
0.056
0.004
-0.126
0.027
0.031
-0.051
0.089
0.001
0.134
0.031
-0.023
0.014
-0.032
0.157
-0.056
0.099
0.047
-0.009
-0.073
0.057
0.092
0.118
0.018
-0.036
-0.018
0.088
-0.056
-0.037
0.049
0.155
-0.095
-0.027
0.043
-0.023
0.052
-0.111
0.083
-0.035
0.034
-0.040
0.008
0.113
-0.071
-0.052
-0.004
0.026
0.088
0.070
-0.079
-0.120
0.090
0.065
-0.005
0.033
0.134
0.027
0.048
0.005
0.017
0.088
0.046
-0.025
0.043
0.039
0.052
-0.006
-0.018
0.070
0.078
-0.143
0.164
-0.009
0.095
0.023
-0.090
-0.123
-0.104
0.121
0.131
0.068
-0.030
-0.035
0.036
0.061
-0.111
0.087
0.022
-0.002
0.099
0.043
-0.018
-0.022
0.015
0.008
-0.034
0.057
-0.100
0.114
0.066
-0.061
0.038
-0.023
-0.014
-0.045
0.021
0.137
-0.007
-0.084
-0.056
0.095
0.016
0.102
0.149
0.023
-0.048
-0.068
0.067
0.041
-0.049
-0.004
0.035
0.023
-0.017
-0.063
0.029
0.184
-0.010
0.064
-0.070
-0.015
0.045
0.074
-0.073
-0.033
0.026
0.195
0.067
-0.105
0.011
0.072
-0.009
0.004
0.021
0.143
-0.027
-0.055
0.005
0.108
0.086
0.034
-0.089
-0.099
0.034
0.127
-0.078
0.025
-0.086
0.099
-0.091
-0.057
0.108
0.071
-0.003
-0.001
0.004
-0.043
0.042
0.094
0.013
0.015
0.043
-0.058
0.061
0.090
0.044
-0.035
-0.100
-0.028
-0.018
-0.026
0.060
0.138
0.017
0.029
0.084
0.087
0.043
-0.169
-0.052
0.124
0.057
-0.027
0.140
-0.004
0.004
0.023
-0.049
0.060
0.120
0.052
-0.000
0.019
-0.041
0.134
0.050
0.049
-0.135
0.109
0.108
-0.034
-0.053
-0.063
0.009
0.064
0.092
-0.030
-0.032
0.082
-0.031
0.032
-0.069
0.014
0.050
-0.028
-0.008
0.068
-0.004
0.083
-0.005
0.124
0.080
0.009
0.041
-0.072
-0.020
-0.087
0.086
0.101
0.010
0.016
-0.000
0.126
-0.014
0.093
0.047
0.100
-0.151
0.021
0.060
0.176
0.042
0.017
-0.028
-0.053
0.033
0.057
0.039
0.073
-0.021
-0.017
0.093
0.012
-0.027
0.060
0.039
-0.061
0.039
0.169
-0.023
-0.018
0.099
-0.006
0.033
-0.067
-0.035
0.163
0.083
0.034
-0.005
0.026
0.087
0.040
-0.058
0.124
0.028
-0.012
0.104
-0.038
0.057
0.021
0.026
0.084
0.105
-0.094
-0.066
0.013
0.135
0.116
0.060
0.004
-0.029
0.031
-0.014
0.024
0.009
-0.087
0.054
-0.019
0.147
-0.150
0.045
0.055
-0.029
-0.001
0.062
0.099
0.039
0.043
-0.084
0.109
0.004
0.059
0.151
0.014
0.054
0.001
0.052
0.011
0.059
-0.017
-0.013
0.065
-0.055
0.075
0.022
0.027
0.032
-0.099
-0.038
0.054
0.039
-0.019
0.023
0.085
-0.185
-0.026
0.012
0.083
0.128
-0.001
-0.095
0.102
0.018
-0.160
-0.004
-0.014
-0.045
0.092
-0.013
-0.001
0.083
-0.068
0.021
0.023
0.014
0.095
-0.003
0.035
-0.097
0.029
0.117
-0.065
-0.033
0.114
0.098
-0.125
-0.000
0.007
-0.002
-0.010
-0.015
0.062
-0.063
0.083
0.144
-0.097
-0.050
-0.058
0.005
0.017
-0.015
0.019
0.026
0.105
-0.131
0.141
0.031
-0.049
-0.062
0.005
0.003
0.000
-0.005
0.001
-0.008
0.094
0.067
-0.059
0.055
-0.072
0.150
-0.018
0.098
0.039
-0.003
0.070
-0.136
0.074
-0.068
-0.007
0.135
-0.055
0.052
0.107
-0.128
-0.013
0.081
-0.015
0.018
0.032
0.110
0.097
0.015
0.018
-0.068
0.013
0.066
0.114
-0.047
0.019
0.018
0.059
-0.048
0.032
-0.022
0.025
0.015
0.021
-0.016
0.081
0.058
0.061
-0.047
0.024
0.058
0.016
-0.111
0.046
-0.005
-0.006
-0.043
-0.070
0.097
0.047
-0.055
0.189
-0.037
0.086
-0.024
0.017
0.114
0.020
0.020
-0.024
-0.107
0.043
-0.004
0.136
0.113
-0.036
0.100
-0.063
0.048
-0.091
-0.034
0.034
0.027
-0.008
0.055
0.047
-0.026
-0.015
-0.040
0.044
0.017
-0.087
0.016
0.018
0.004
0.104
-0.062
0.052
-0.006
0.078
-0.028
0.079
0.016
0.071
-0.030
-0.087
0.007
0.065
0.013
-0.061
-0.027
0.063
0.046
-0.009
0.161
-0.064
-0.043
0.071
0.130
-0.023
-0.017
-0.042
0.002
0.040
0.109
0.072
0.020
0.012
0.035
-0.034
0.036
-0.107
0.077
0.008
0.022
0.150
0.009
0.022
-0.008
-0.013
0.098
-0.030
-0.025
0.052
0.064
0.039
-0.158
-0.027
0.076
0.077
0.064
-0.047
-0.063
0.232
0.050
0.014
-0.095
-0.044
0.099
0.135
-0.021
-0.030
-0.008
0.100
-0.062
0.088
0.079
-0.017
0.020
0.059
0.015
-0.081
0.002
0.055
0.110
0.074
-0.010
-0.117
-0.019
-0.036
0.232
0.133
-0.035
-0.055
0.132
0.014
-0.038
-0.016
-0.095
-0.005
0.081
0.195
-0.006
-0.173
-0.038
0.016
0.099
0.121
-0.036
0.023
-0.028
-0.003
0.015
-0.012
0.095
-0.013
-0.004
0.072
-0.091
-0.115
0.095
0.004
0.103
0.045
-0.053
0.112
0.079
0.011
-0.069
0.035
0.048
0.057
-0.018
0.016
-0.022
0.048
-0.021
0.035
-0.001
0.028
-0.004
0.039
-0.014
0.004
-0.052
-0.098
0.011
0.065
0.137
-0.013
0.043
-0.112
0.023
0.075
0.111
0.000
0.041
0.035
0.020
-0.049
-0.098
0.059
-0.059
-0.018
0.113
0.013
-0.010
0.037
-0.081
0.071
0.009
0.085
-0.007
0.083
0.062
-0.033
-0.071
-0.070
0.003
0.090
0.052
-0.007
-0.098
0.011
0.042
0.036
-0.054
-0.063
0.025
-0.027
0.072
-0.049
0.023
0.064
0.047
-0.130
0.106
0.055
0.057
0.051
-0.052
-0.007
0.098
0.107
0.006
-0.014
-0.133
-0.082
0.097
0.119
0.029
0.017
-0.155
0.002
0.091
0.065
0.066
-0.000
0.004
-0.148
0.152
0.026
0.028
-0.032
0.010
0.061
-0.031
0.026
0.077
0.010
-0.033
0.015
-0.009
0.148
0.163
-0.125
-0.089
-0.002
-0.027
0.069
0.085
0.102
0.135
0.004
-0.017
-0.008
-0.051
0.055
0.034
-0.037
0.054
0.056
0.005
-0.086
0.189
0.014
-0.068
-0.060
-0.014
0.051
0.113
-0.008
-0.030
0.009
0.184
0.111
0.033
-0.057
-0.020
0.003
0.015
0.047
-0.005
0.066
-0.072
0.087
0.171
0.062
-0.015
0.022
-0.078
-0.210
0.118
0.083
0.106
-0.085
0.018
0.168
0.025
0.014
0.089
-0.023
0.060
-0.087
-0.080
0.104
0.094
0.013
0.003
0.047
-0.041
0.056
0.012
0.033
-0.054
0.071
0.009
0.202
-0.110
0.003
0.097
-0.000
-0.018
0.031
0.004
-0.075
0.012
0.113
0.117
-0.095
-0.056
0.034
-0.034
0.106
0.100
-0.155
0.044
0.013
0.229
-0.123
-0.055
-0.125
0.175
0.217
0.279
0.063
-0.041
-0.077
-0.333
-0.271
0.108
0.264
0.143
0.023
0.087
0.167
-0.263
-0.240
0.009
0.023
0.107
0.410
0.109
-0.220
0.175
-0.154
-0.195
0.122
0.112
0.152
0.214
0.015
-0.183
-0.094
0.001
-0.100
0.029
0.147
-0.025
-0.050
0.035
0.083
0.145
-0.004
-0.110
-0.089
0.045
0.025
0.002
-0.061
-0.084
0.074
-0.013
-0.021
0.061
-0.067
0.096
-0.058
0.034
0.110
-0.050
0.020
0.043
-0.003
0.104
-0.030
0.092
-0.097
0.028
-0.040
0.165
-0.052
-0.036
0.048
0.019
0.209
-0.016
-0.065
-0.089
0.001
0.130
0.126
0.029
-0.142
-0.053
0.119
0.172
0.043
0.013
-0.027
-0.007
-0.178
-0.009
-0.014
0.075
0.134
-0.115
0.004
-0.016
0.025
0.004
-0.012
0.027
0.112
0.020
-0.012
0.132
-0.013
0.205
0.006
-0.016
-0.018
0.136
-0.049
0.108
-0.045
0.098
0.034
-0.059
-0.021
0.003
-0.017
0.192
-0.016
0.068
0.054
0.008
-0.037
0.095
-0.016
0.035
-0.003
0.172
-0.013
-0.099
-0.056
0.157
0.004
0.039
0.056
0.130
0.032
-0.021
-0.024
0.065
0.002
0.113
0.050
-0.061
0.105
-0.015
0.033
0.142
-0.090
0.111
-0.037
-0.088
0.127
-0.016
-0.001
0.050
0.027
0.102
0.070
-0.007
-0.022
-0.080
-0.002
-0.054
-0.030
0.072
0.040
0.006
0.020
-0.038
-0.012
0.073
0.070
0.019
0.049
0.040
-0.046
0.098
0.043
-0.016
0.075
0.084
-0.107
0.098
-0.013
-0.049
-0.048
-0.059
0.138
0.065
-0.027
0.092
-0.037
-0.056
-0.021
0.070
0.107
0.044
0.081
-0.049
-0.013
-0.004
0.058
0.122
0.013
-0.022
-0.052
0.004
0.026
0.092
-0.018
-0.050
-0.063
0.040
-0.034
0.106
-0.080
0.050
0.112
0.057
-0.054
0.063
0.005
0.022
0.019
0.009
0.139
0.059
0.091
-0.001
-0.103
0.012
-0.039
-0.016
0.012
-0.053
0.091
0.064
0.016
0.075
0.006
0.051
0.078
-0.125
0.036
0.004
0.075
-0.023
0.017
0.014
0.167
0.050
-0.058
-0.006
0.037
0.104
-0.028
0.136
0.020
-0.105
-0.001
-0.034
0.102
0.039
0.126
-0.006
-0.006
0.047
-0.024
0.160
0.083
0.006
-0.166
-0.009
-0.014
-0.033
-0.018
-0.007
0.064
0.030
0.107
-0.013
0.000
0.030
0.037
0.058
-0.067
-0.018
-0.033
-0.025
0.039
0.069
0.144
-0.039
-0.067
0.011
0.018
-0.045
0.106
-0.063
-0.030
0.058
0.072
-0.044
-0.049
0.071
-0.074
0.039
0.130
0.067
-0.017
0.002
0.038
0.049
-0.050
0.027
-0.039
0.045
-0.023
-0.010
-0.059
0.019
-0.058
0.130
0.019
0.153
-0.057
-0.010
-0.080
-0.016
-0.051
0.052
0.115
-0.047
-0.042
0.068
0.019
0.062
-0.115
-0.039
0.129
-0.014
0.077
-0.014
0.008
0.036
0.030
0.076
0.035
-0.102
0.044
0.104
-0.004
0.090
0.001
-0.026
-0.036
0.116
0.015
0.016
0.048
-0.032
0.084
0.009
-0.016
0.038
-0.113
-0.054
0.113
0.013
-0.031
-0.034
0.091
-0.092
0.138
0.098
0.005
-0.038
0.036
0.035
0.013
0.043
0.035
0.076
0.101
0.059
-0.074
0.008
0.005
0.052
-0.045
0.007
0.012
0.037
0.045
-0.003
0.046
0.139
-0.080
0.046
0.026
-0.028
0.069
-0.074
0.040
0.038
-0.006
-0.040
0.028
0.156
0.078
-0.017
-0.053
0.065
-0.063
-0.012
0.059
0.064
0.091
-0.000
0.007
0.068
0.150
-0.014
-0.090
-0.024
0.034
0.038
-0.022
-0.000
0.074
0.123
0.014
-0.043
-0.015
-0.018
0.037
0.006
-0.108
0.048
0.137
0.065
-0.013
0.039
-0.089
-0.005
0.112
-0.024
-0.050
0.054
0.007
0.097
0.158
0.044
-0.042
-0.109
-0.102
0.047
0.009
0.063
0.060
0.057
0.064
-0.025
0.051
-0.020
0.097
0.051
0.061
0.019
0.140
-0.047
0.003
-0.003
-0.128
0.113
0.156
0.085
0.018
-0.003
0.051
-0.048
-0.023
0.091
0.039
-0.010
-0.010
0.053
-0.006
-0.041
0.019
-0.073
-0.007
-0.032
0.030
0.046
0.023
-0.057
0.066
-0.018
0.046
0.066
0.026
0.035
-0.083
0.136
0.026
0.081
0.016
-0.137
0.059
-0.110
0.005
0.072
0.107
-0.097
0.031
0.098
-0.010
0.047
-0.025
-0.043
-0.038
0.071
0.019
-0.014
-0.050
0.089
0.083
-0.016
0.089
-0.051
0.025
0.026
0.037
-0.039
0.042
-0.064
0.037
-0.090
0.042
-0.007
0.106
-0.015
-0.138
0.077
0.080
-0.021
0.087
-0.029
0.084
0.008
0.026
-0.026
0.068
0.004
-0.043
-0.015
0.002
0.009
0.074
0.071
-0.094
0.028
-0.042
-0.011
-0.044
0.092
0.059
0.009
-0.004
0.053
0.047
-0.031
0.126
0.109
-0.043
-0.111
-0.082
0.110
0.027
0.004
-0.010
0.059
0.166
0.004
-0.035
-0.042
-0.038
0.186
-0.006
0.020
0.046
0.059
-0.059
0.128
-0.019
0.005
0.035
0.002
0.067
-0.013
0.109
-0.105
-0.039
0.068
0.133
0.108
-0.056
-0.036
0.053
0.074
0.111
0.052
0.009
0.046
-0.030
-0.057
0.049
-0.039
-0.015
0.018
0.162
-0.039
0.132
0.047
0.000
0.012
0.051
-0.108
-0.052
0.040
0.074
0.051
-0.113
0.065
-0.028
-0.063
-0.007
0.188
0.013
-0.069
-0.051
-0.098
0.086
0.078
0.068
0.146
0.053
-0.010
-0.002
0.053
0.041
0.013
-0.045
-0.020
0.080
0.055
0.035
-0.000
0.080
0.115
0.102
0.059
-0.101
0.035
0.038
-0.013
-0.011
-0.048
-0.042
0.031
0.049
0.023
0.030
-0.126
0.087
0.088
0.032
-0.009
0.049
-0.010
-0.011
0.112
0.060
-0.020
0.031
-0.043
0.013
0.048
0.068
0.002
0.155
0.018
0.056
0.004
-0.079
0.086
0.116
-0.013
-0.167
0.087
-0.055
0.038
0.043
0.066
0.009
0.056
-0.018
0.033
0.011
-0.017
0.026
0.025
0.165
-0.137
0.032
-0.002
-0.018
0.031
0.097
0.004
0.048
-0.049
0.110
0.123
0.045
-0.010
-0.053
0.080
0.152
0.058
-0.027
-0.122
0.087
0.053
0.035
-0.047
0.003
-0.109
0.083
0.016
0.101
-0.049
-0.012
0.063
-0.019
0.052
-0.013
0.008
0.062
0.029
0.002
0.051
0.030
0.070
-0.050
-0.006
-0.024
0.005
0.089
-0.012
-0.081
0.028
0.057
-0.018
0.015
-0.003
-0.042
0.020
0.008
-0.012
0.032
-0.064
0.075
-0.068
-0.056
0.181
0.077
0.034
0.015
-0.062
0.253
-0.082
-0.060
-0.068
-0.056
0.078
0.101
0.016
-0.078
-0.050
0.114
-0.059
0.046
-0.015
0.024
0.120
-0.010
0.097
0.027
0.022
-0.013
-0.068
-0.010
0.029
0.056
0.144
-0.033
-0.031
-0.036
-0.022
-0.072
0.105
0.037
-0.090
0.095
0.130
-0.032
0.085
0.075
-0.147
0.039
-0.010
0.062
0.022
0.056
-0.068
0.014
-0.046
-0.039
-0.028
0.191
-0.020
-0.042
0.088
0.018
-0.130
-0.003
0.022
-0.062
0.022
0.136
0.000
0.003
0.037
0.040
-0.075
0.111
0.143
0.055
-0.107
0.011
0.042
0.051
0.042
0.006
0.044
-0.001
0.041
0.007
0.053
-0.002
0.012
0.063
0.110
0.066
0.022
-0.031
0.070
0.008
-0.052
-0.034
-0.010
-0.023
0.059
-0.028
0.038
0.061
0.119
0.010
-0.010
-0.220
-0.043
0.078
0.029
0.075
0.035
0.077
0.084
-0.024
-0.072
0.084
-0.018
0.075
0.167
0.086
0.004
0.058
-0.073
-0.039
0.034
0.066
-0.041
-0.019
0.052
0.252
0.064
-0.063
-0.089
-0.089
0.070
0.096
0.039
0.008
-0.048
0.039
0.121
0.127
0.039
0.157
0.085
-0.050
-0.093
-0.128
-0.148
0.159
-0.053
0.051
0.095
0.206
0.065
0.050
0.054
-0.245
-0.135
0.006
0.043
0.215
0.240
0.085
0.059
-0.014
-0.163
-0.052
-0.030
-0.065
0.060
0.168
0.023
0.232
0.081
0.032
0.022
-0.079
-0.012
-0.031
-0.089
0.101
0.033
-0.016
0.027
0.008
0.014
0.036
0.022
0.040
0.100
0.002
0.008
0.053
0.076
-0.033
-0.017
0.089
0.029
-0.013
-0.014
-0.052
0.071
0.020
-0.036
0.064
0.031
0.180
-0.007
-0.090
-0.019
-0.061
-0.042
0.080
0.106
0.036
0.077
0.005
-0.047
0.057
0.024
0.035
-0.082
0.085
-0.009
0.018
-0.017
0.109
0.048
-0.056
0.019
0.032
0.057
0.046
-0.045
0.041
0.024
0.088
0.026
0.074
-0.124
0.104
-0.048
0.151
0.061
-0.022
-0.014
-0.006
-0.088
-0.010
-0.047
0.088
0.082
0.037
0.117
-0.105
0.033
0.111
0.047
-0.081
0.001
0.012
-0.002
0.000
-0.046
0.056
0.049
0.111
-0.005
-0.011
0.032
0.056
0.063
-0.024
0.077
0.003
0.030
0.035
0.031
0.114
0.110
-0.023
-0.027
-0.026
-0.111
0.165
0.029
-0.066
-0.040
0.075
0.025
-0.023
0.026
0.039
0.070
-0.033
-0.084
0.060
0.065
-0.106
-0.017
0.090
0.153
0.077
-0.006
0.030
0.016
-0.128
0.118
0.160
-0.033
-0.006
-0.007
-0.024
0.050
0.031
0.123
-0.126
-0.025
0.044
0.126
-0.052
0.056
-0.005
-0.030
-0.058
0.029
0.005
0.059
0.211
-0.017
-0.045
-0.001
0.017
-0.040
-0.022
0.044
0.032
0.053
0.140
-0.021
0.012
-0.044
0.099
-0.019
0.096
-0.164
0.087
0.046
0.084
0.038
-0.072
-0.120
0.052
0.037
-0.042
-0.045
0.032
0.142
0.064
0.046
-0.036
0.037
0.047
-0.060
0.141
0.064
-0.008
-0.081
0.096
-0.024
0.010
0.190
-0.101
-0.143
0.092
0.017
0.078
0.107
0.055
0.017
0.022
0.005
0.003
0.105
-0.019
0.149
0.005
0.036
-0.019
-0.027
0.022
0.056
-0.008
0.006
0.052
-0.000
-0.064
-0.072
-0.013
0.137
-0.034
0.062
0.027
0.019
0.017
0.027
0.004
-0.051
0.012
0.116
0.060
-0.054
0.076
0.088
0.050
-0.033
-0.014
0.089
0.038
-0.046
0.052
0.092
-0.095
0.098
-0.071
0.018
-0.000
-0.176
0.115
0.107
-0.093
0.021
0.064
0.120
-0.069
0.040
0.063
0.065
-0.011
0.129
-0.006
0.073
-0.084
0.026
0.170
0.014
0.244
-0.168
-0.331
0.250
0.124
-0.129
0.114
-0.255
0.076
0.313
0.262
-0.067
-0.416
0.033
0.272
0.173
-0.233
-0.263
0.087
0.131
0.139
-0.032
0.199
0.086
0.016
0.082
-0.080
-0.293
-0.206
0.119
0.283
0.188
0.086
-0.012
0.104
0.086
-0.086
-0.135
-0.142
-0.145
0.061
0.161
0.174
0.202
-0.022
0.116
-0.047
-0.151
-0.164
-0.004
0.084
-0.109
-0.043
0.311
0.165
0.120
0.034
-0.177
0.036
-0.155
0.136
0.016
0.023
0.012
0.103
0.031
0.029
0.050
0.048
0.041
-0.084
-0.169
0.034
0.010
0.056
0.046
0.050
-0.126
-0.003
0.067
0.117
-0.050
0.080
-0.042
-0.022
0.072
0.184
-0.148
0.000
0.003
0.028
0.096
-0.101
-0.016
0.136
-0.023
-0.115
-0.025
0.181
0.031
-0.071
0.023
0.026
-0.004
-0.030
0.093
0.048
0.089
0.019
0.113
-0.086
0.070
-0.083
-0.025
0.034
0.080
0.148
-0.022
0.052
0.019
-0.032
-0.036
0.182
0.021
-0.007
-0.049
0.037
0.083
-0.058
0.036
0.109
-0.028
-0.004
0.087
0.123
0.027
-0.031
0.019
0.096
0.051
0.059
-0.012
-0.046
-0.025
0.135
-0.001
0.049
0.091
-0.019
-0.005
0.128
-0.026
0.024
0.036
0.069
0.014
-0.060
0.017
0.148
-0.033
0.007
-0.106
-0.020
0.007
0.248
0.123
-0.127
-0.090
-0.039
-0.079
0.045
0.174
0.013
0.029
-0.124
0.131
0.021
0.104
-0.077
0.028
0.073
0.046
-0.065
-0.014
0.034
0.105
-0.011
-0.071
0.015
0.020
-0.032
0.147
0.214
-0.129
-0.012
0.112
0.070
0.012
0.016
-0.025
0.049
0.030
-0.049
0.069
0.163
-0.077
0.054
-0.069
-0.083
0.008
-0.006
0.004
0.084
-0.036
-0.031
-0.034
0.124
0.048
-0.070
0.045
0.190
-0.020
-0.114
0.027
0.157
-0.017
-0.041
0.148
0.121
0.058
-0.028
-0.005
0.044
-0.027
0.069
0.059
0.061
-0.003
-0.006
0.149
-0.010
0.004
0.094
-0.089
-0.012
-0.117
0.079
0.182
0.037
0.108
0.042
0.005
0.032
0.033
-0.020
0.005
0.039
0.005
0.029
0.056
0.000
0.039
0.027
0.072
-0.002
-0.152
0.090
0.052
-0.030
0.041
0.206
-0.107
0.011
0.047
0.032
-0.028
0.048
0.103
0.004
0.015
0.084
-0.018
-0.127
0.061
0.106
0.123
-0.053
0.011
0.027
-0.140
-0.122
0.098
0.052
0.087
0.047
-0.032
-0.034
0.069
0.061
0.055
0.110
-0.083
-0.148
0.012
0.103
0.016
0.092
0.009
-0.137
-0.027
0.012
-0.010
0.047
0.077
0.112
0.055
0.013
0.146
0.006
0.029
-0.029
-0.012
-0.014
0.013
0.125
0.082
-0.060
-0.022
0.089
0.112
-0.018
-0.068
0.139
-0.037
0.035
0.023
-0.097
0.010
-0.084
0.082
0.117
0.007
-0.053
-0.086
-0.010
0.116
0.068
0.002
0.024
-0.058
0.010
0.006
0.076
0.014
0.115
-0.068
-0.078
0.074
0.086
-0.028
0.052
0.110
0.047
-0.021
0.027
-0.021
0.099
0.018
0.161
0.014
-0.049
0.142
0.059
-0.008
0.023
-0.160
0.103
-0.119
-0.026
0.008
0.056
0.084
0.051
0.022
0.018
-0.072
0.050
0.048
-0.079
0.015
0.043
0.075
0.016
-0.041
0.033
-0.064
0.030
0.011
0.050
-0.086
0.117
0.009
0.079
0.044
-0.139
0.166
-0.022
-0.010
0.093
-0.055
0.019
0.086
0.098
-0.010
0.011
-0.153
0.019
0.132
0.184
-0.004
0.002
0.020
-0.024
0.038
0.100
-0.156
0.086
0.088
0.050
0.067
0.000
0.120
-0.009
-0.146
0.026
0.112
0.015
0.030
0.068
0.057
0.025
-0.002
0.046
-0.013
0.008
0.143
-0.025
0.037
-0.027
0.044
0.015
0.029
-0.004
-0.040
0.108
-0.108
0.012
0.183
-0.010
0.001
0.013
-0.058
0.060
-0.021
-0.024
-0.013
0.112
0.007
0.082
0.111
-0.025
-0.012
0.078
-0.089
-0.009
0.193
0.062
-0.068
-0.057
0.115
0.118
0.058
-0.156
0.047
0.081
0.051
0.080
-0.127
-0.009
0.080
0.023
0.020
0.023
0.037
-0.034
0.020
0.067
0.037
-0.107
0.112
0.036
-0.022
-0.007
-0.105
0.122
-0.023
0.089
0.136
-0.097
0.066
0.000
0.022
0.054
0.046
0.049
-0.071
-0.019
0.038
-0.034
0.059
0.031
0.097
0.170
-0.009
-0.048
0.087
-0.158
0.093
0.001
-0.035
-0.001
0.161
0.052
0.046
-0.028
0.181
-0.133
-0.053
0.122
-0.097
0.122
0.069
-0.060
0.064
-0.007
-0.139
0.096
0.121
0.050
-0.153
0.026
0.018
0.110
0.113
0.099
-0.009
0.098
-0.100
0.039
-0.051
-0.091
0.045
0.136
-0.067
0.045
-0.006
-0.005
0.028
-0.007
0.059
0.037
0.023
-0.034
0.077
0.050
0.018
0.065
-0.016
-0.072
0.086
-0.029
0.046
0.021
0.031
-0.052
0.034
0.088
0.010
-0.046
-0.031
-0.038
0.091
0.050
-0.091
-0.025
0.014
0.088
0.122
0.082
-0.122
0.095
0.140
0.028
-0.021
-0.056
0.074
-0.058
0.023
0.000
0.106
0.017
0.002
-0.057
0.021
0.046
0.047
-0.007
0.049
0.097
0.029
-0.099
-0.035
-0.005
0.063
-0.008
-0.034
0.152
-0.039
-0.030
0.043
0.041
0.078
-0.068
0.004
0.137
-0.035
0.073
-0.064
0.132
0.084
-0.109
0.054
0.002
0.008
0.119
0.051
-0.081
-0.032
-0.085
0.215
0.096
-0.057
0.045
0.075
-0.045
0.012
0.022
-0.003
0.039
-0.061
0.074
-0.081
0.062
-0.034
-0.002
0.017
-0.107
0.067
0.011
0.062
0.060
0.059
0.019
-0.142
-0.008
-0.068
0.021
0.056
0.042
0.013
0.111
0.072
-0.018
-0.006
0.081
0.060
-0.085
-0.037
0.097
0.026
-0.062
-0.006
-0.005
0.045
-0.061
0.026
0.070
-0.003
-0.008
-0.027
-0.025
0.033
0.023
0.193
-0.054
0.026
-0.037
-0.026
0.067
0.005
0.025
0.012
0.069
0.121
0.112
-0.135
-0.133
0.131
0.069
0.134
0.009
-0.052
-0.030
-0.020
0.120
0.070
-0.122
0.072
-0.015
-0.046
0.055
0.182
0.051
-0.007
0.008
-0.014
0.004
-0.032
0.114
-0.005
0.016
0.004
0.041
0.007
0.089
-0.056
0.013
0.113
-0.010
0.016
0.038
0.001
0.027
-0.017
0.176
0.122
-0.014
0.002
-0.049
0.062
0.035
0.049
-0.004
0.051
0.082
-0.114
0.100
0.047
0.078
-0.053
-0.068
-0.048
0.069
-0.031
0.045
0.108
-0.011
-0.010
0.083
-0.037
-0.070
0.018
0.092
0.046
-0.068
-0.019
0.038
0.071
0.017
-0.003
0.007
0.012
0.002
0.043
0.063
-0.059
0.030
0.064
-0.007
0.051
0.122
0.078
-0.054
-0.022
0.089
0.004
-0.107
0.014
0.112
-0.065
-0.001
0.038
0.031
-0.069
-0.028
0.003
0.091
-0.023
0.015
0.132
0.089
0.011
-0.041
0.022
0.065
-0.027
0.007
-0.076
0.071
0.094
0.052
0.020
0.075
0.002
0.005
-0.049
0.038
0.137
-0.053
0.105
-0.129
-0.027
0.055
0.100
-0.027
0.006
0.035
-0.009
0.230
-0.008
-0.127
-0.024
0.147
0.082
-0.028
-0.119
-0.142
0.086
0.236
0.176
0.004
-0.176
-0.042
0.128
-0.091
-0.065
-0.065
0.090
0.093
0.081
0.080
0.008
0.094
-0.046
-0.082
0.062
-0.027
0.075
0.052
-0.009
-0.023
0.013
0.078
-0.050
0.065
-0.031
-0.035
0.029
0.024
-0.019
-0.016
-0.054
0.039
0.009
-0.078
0.134
0.001
0.067
0.091
0.118
-0.020
0.117
0.090
-0.097
-0.030
0.105
-0.141
-0.048
0.039
0.119
0.033
-0.082
-0.086
0.047
-0.077
-0.017
0.043
0.014
-0.003
-0.098
0.092
0.003
0.074
0.021
-0.036
-0.046
-0.001
-0.025
-0.064
0.104
0.076
0.008
-0.041
0.085
0.125
0.031
-0.016
0.056
-0.007
-0.058
0.026
0.135
-0.024
0.067
0.004
-0.109
-0.106
-0.018
0.136
0.064
0.062
0.208
-0.090
-0.041
0.091
-0.019
0.016
-0.019
0.056
0.129
0.017
-0.073
-0.063
-0.000
0.262
-0.029
-0.082
-0.141
0.041
0.227
0.032
-0.047
0.011
0.106
-0.021
-0.049
0.000
0.093
0.162
-0.002
0.021
0.043
-0.058
-0.078
0.129
0.075
0.026
0.010
0.114
0.099
0.023
-0.015
-0.051
0.002
0.114
-0.004
0.038
0.047
0.139
-0.087
-0.057
0.013
0.007
0.091
-0.053
0.027
-0.032
0.056
0.146
0.048
-0.025
0.054
0.088
-0.016
-0.055
-0.027
0.152
0.003
-0.061
0.131
-0.072
0.011
0.167
0.058
0.073
-0.139
-0.018
0.113
0.109
0.057
-0.034
0.081
-0.067
0.131
-0.017
-0.035
0.018
0.004
-0.065
-0.100
0.143
0.031
-0.054
0.087
-0.064
0.038
-0.013
0.148
-0.001
-0.076
0.057
0.063
-0.071
-0.046
0.091
-0.005
-0.025
-0.017
-0.009
-0.107
0.029
0.213
0.158
-0.093
-0.158
-0.062
0.076
0.055
0.119
-0.037
0.085
0.000
-0.017
0.080
0.034
0.070
-0.051
-0.095
0.048
-0.024
-0.038
0.004
-0.019
0.045
0.016
0.058
-0.029
0.067
0.084
0.090
0.040
-0.026
0.017
-0.038
-0.044
0.102
0.092
-0.012
-0.168
0.116
0.135
-0.082
-0.051
0.005
-0.033
0.053
0.064
0.101
-0.021
0.051
-0.009
0.051
-0.025
-0.087
0.137
0.034
-0.006
0.019
0.094
-0.063
-0.002
0.032
0.017
-0.101
-0.045
0.012
0.103
0.134
-0.011
-0.071
-0.030
0.022
-0.048
0.011
0.133
0.104
0.020
0.007
-0.024
-0.043
0.018
0.132
0.075
-0.080
0.053
0.004
0.095
-0.017
-0.061
0.050
0.107
-0.104
0.118
-0.013
-0.026
-0.089
0.046
0.014
0.024
-0.124
-0.017
0.007
-0.028
0.108
0.059
0.090
-0.031
-0.103
0.019
0.115
0.041
-0.144
0.026
0.126
0.034
-0.081
-0.001
0.003
0.074
0.037
0.064
-0.046
-0.015
0.039
0.163
-0.034
-0.037
0.030
0.059
-0.051
0.066
0.042
0.045
0.012
0.031
0.050
0.018
-0.079
-0.038
0.054
0.001
0.051
0.065
0.012
0.141
-0.057
0.001
-0.033
-0.004
-0.019
0.098
0.077
-0.056
0.014
-0.008
-0.076
0.132
-0.046
0.049
0.034
-0.024
0.114
0.004
-0.005
0.083
-0.032
0.089
0.052
0.112
0.010
0.070
-0.019
0.141
0.015
-0.009
0.004
0.112
0.076
0.090
-0.036
0.016
-0.065
-0.090
-0.121
0.185
0.096
0.091
-0.024
-0.081
0.163
0.087
-0.130
0.093
0.081
-0.011
-0.047
-0.014
0.059
0.037
0.016
-0.043
0.056
0.047
-0.006
-0.102
0.026
0.126
0.012
-0.002
0.043
-0.006
0.056
0.028
0.018
0.023
0.046
0.029
-0.057
0.050
-0.003
-0.010
0.069
0.019
0.017
0.120
-0.090
-0.120
-0.007
0.190
0.194
0.121
-0.116
0.018
0.149
0.016
-0.008
-0.036
-0.041
0.041
-0.054
0.034
0.063
0.054
0.096
-0.032
0.024
0.010
-0.063
0.048
0.083
-0.142
0.009
0.127
-0.035
0.158
0.039
-0.019
-0.014
-0.057
0.153
0.085
0.017
-0.093
-0.014
0.081
-0.087
0.111
0.094
0.255
-0.214
-0.103
0.052
0.306
-0.111
-0.004
0.157
-0.117
0.059
0.053
-0.062
-0.114
0.018
0.254
0.300
0.091
-0.093
-0.177
0.043
0.027
-0.290
-0.072
0.077
0.322
0.288
-0.071
-0.209
0.038
0.011
-0.033
0.116
0.041
0.082
-0.164
-0.015
0.170
0.104
0.079
-0.002
-0.165
-0.271
0.033
-0.012
0.190
0.147
0.072
-0.016
-0.094
-0.072
0.128
0.023
-0.062
0.105
0.109
0.013
0.040
0.047
0.089
0.048
-0.048
0.121
0.138
-0.008
-0.440
0.201
0.074
-0.234
0.196
0.281
-0.251
-0.126
-0.040
0.102
0.351
-0.076
-0.107
-0.284
0.028
0.143
0.111
0.098
0.066
0.077
-0.015
-0.007
0.261
0.054
-0.030
-0.362
-0.107
-0.046
0.165
0.096
0.175
0.043
0.063
0.054
-0.018
-0.105
0.150
0.015
0.039
0.113
0.080
0.105
0.104
0.127
-0.043
-0.013
0.014
0.002
0.128
0.021
0.022
0.073
-0.090
0.046
-0.007
0.055
0.118
0.105
0.026
0.045
0.050
0.028
-0.171
0.055
0.071
0.105
-0.040
0.101
-0.045
-0.034
0.043
-0.103
0.023
0.289
-0.054
0.008
0.099
-0.032
-0.056
0.034
0.004
0.028
0.166
0.024
-0.110
0.020
0.100
0.101
-0.166
-0.077
0.079
0.266
0.080
0.055
-0.075
-0.153
0.111
0.238
-0.252
0.079
0.103
0.101
0.019
0.038
-0.020
0.037
-0.029
-0.082
0.011
0.003
0.155
0.074
-0.012
0.086
0.164
-0.095
-0.130
0.017
-0.091
-0.002
-0.055
0.070
0.017
0.010
-0.007
0.092
-0.058
0.003
-0.038
0.083
-0.040
0.010
-0.073
0.030
0.028
-0.078
0.125
-0.016
0.039
0.101
0.085
-0.033
-0.012
-0.061
-0.068
0.053
0.059
-0.061
0.031
-0.073
0.122
0.025
0.037
0.043
-0.012
0.075
-0.008
0.028
-0.003
0.060
-0.044
-0.005
0.082
0.031
0.053
0.048
0.060
-0.060
0.027
0.011
0.091
-0.036
-0.018
-0.039
0.070
0.059
0.093
0.013
-0.054
-0.060
-0.029
0.056
-0.040
-0.000
0.056
0.059
-0.092
0.065
0.072
0.118
0.014
0.052
0.052
-0.012
0.085
-0.009
-0.075
-0.013
0.080
-0.007
-0.034
0.033
0.056
0.162
-0.070
0.035
-0.086
0.088
-0.085
0.040
0.094
-0.019
0.052
0.089
0.071
-0.091
-0.029
0.032
0.011
-0.085
0.103
-0.004
-0.096
0.029
0.074
0.031
0.112
-0.114
0.050
0.049
0.007
0.066
-0.074
-0.085
0.091
0.114
0.026
0.081
0.018
0.139
0.085
-0.059
-0.043
0.026
0.160
0.032
-0.136
-0.010
-0.047
0.040
-0.020
0.092
0.071
-0.133
0.053
0.134
-0.077
-0.049
0.090
0.047
0.051
0.055
-0.015
-0.019
-0.021
0.030
0.025
0.157
-0.038
0.010
-0.028
-0.011
0.065
0.011
0.011
-0.026
0.106
0.110
0.018
0.016
-0.134
0.054
0.040
-0.019
0.134
0.045
0.032
-0.009
-0.020
-0.096
0.046
0.162
-0.045
0.030
0.123
0.025
0.094
-0.011
-0.037
0.038
-0.006
0.113
-0.024
0.107
-0.078
0.059
0.024
0.110
0.071
0.081
0.021
-0.045
0.089
0.077
-0.022
0.027
0.089
-0.000
0.041
0.051
0.055
-0.079
0.004
0.091
0.092
0.017
0.009
-0.057
0.095
0.018
0.029
-0.087
0.104
-0.072
-0.031
0.075
-0.007
0.157
-0.057
0.034
0.027
-0.061
0.021
0.050
0.034
0.042
-0.064
0.083
0.025
0.035
-0.004
0.078
0.046
-0.021
0.049
-0.055
0.017
0.103
0.040
0.003
-0.010
-0.047
0.043
-0.019
0.020
0.061
0.077
0.057
-0.035
0.088
0.028
0.049
0.041
0.082
0.062
0.042
-0.014
-0.105
0.051
-0.008
0.114
0.062
0.026
0.033
0.061
-0.018
0.020
0.002
-0.074
0.080
0.086
-0.014
-0.050
-0.032
-0.040
-0.018
0.134
0.036
-0.071
-0.088
0.052
0.062
0.018
0.106
-0.009
-0.031
0.062
0.054
0.072
-0.004
0.034
-0.145
0.167
0.079
0.034
-0.130
-0.079
0.182
0.105
-0.010
0.098
0.082
0.055
-0.075
-0.002
0.039
-0.008
0.150
-0.006
-0.120
-0.091
0.104
0.060
0.008
0.121
0.005
-0.083
0.079
0.047
0.044
-0.012
0.046
0.147
-0.030
-0.015
0.076
-0.025
0.049
-0.026
0.105
0.102
0.001
-0.102
-0.051
0.140
-0.041
0.007
0.041
-0.081
-0.058
-0.014
0.051
-0.021
0.006
0.094
0.082
0.013
-0.093
-0.071
-0.009
0.217
0.121
0.017
-0.013
-0.004
0.082
-0.099
-0.102
0.095
0.083
0.079
0.134
0.150
0.054
-0.056
-0.148
0.123
0.042
-0.014
0.091
0.045
0.031
0.066
-0.018
-0.058
-0.033
0.090
-0.034
0.082
-0.004
-0.096
0.064
0.071
-0.047
0.123
0.083
-0.143
-0.004
0.100
0.017
-0.016
0.020
0.020
-0.042
0.122
0.038
-0.013
0.112
-0.037
-0.023
-0.016
-0.041
0.037
0.032
0.166
-0.034
-0.040
0.058
-0.073
0.131
-0.013
-0.032
0.103
-0.043
-0.086
0.081
0.023
-0.038
0.020
0.135
0.058
0.095
-0.038
0.084
-0.042
-0.000
0.043
-0.006
0.016
0.082
0.035
-0.073
0.050
-0.018
0.085
-0.050
0.006
0.037
-0.002
0.008
-0.009
-0.073
-0.045
0.078
0.018
0.021
-0.005
-0.009
0.077
-0.109
0.021
0.024
-0.050
0.077
-0.043
0.074
0.114
-0.018
0.001
-0.021
0.053
0.091
-0.065
0.011
0.047
0.007
-0.010
0.002
0.159
-0.017
0.009
-0.009
-0.020
-0.053
0.238
0.094
-0.021
-0.069
-0.028
0.129
0.010
0.083
-0.000
-0.042
0.020
0.077
-0.042
0.012
-0.004
-0.007
0.048
0.087
-0.002
0.117
0.055
0.048
-0.021
-0.097
0.038
0.074
-0.155
-0.053
0.155
0.069
0.054
-0.074
0.012
0.016
0.201
-0.070
-0.045
0.099
-0.077
-0.045
0.121
0.097
0.147
-0.065
-0.057
0.127
0.036
-0.032
0.030
0.026
0.067
0.112
-0.070
0.095
0.091
-0.010
0.006
-0.020
-0.057
0.119
0.001
0.031
0.054
0.043
0.079
-0.146
0.024
0.109
0.032
0.008
-0.172
0.046
0.051
0.023
0.013
-0.036
-0.052
0.165
0.017
0.018
-0.009
0.021
0.045
0.043
0.067
0.023
-0.049
0.147
0.063
-0.020
-0.068
0.068
-0.007
-0.007
-0.035
0.096
0.074
-0.085
-0.025
0.016
0.116
0.131
-0.146
0.031
0.147
0.010
0.026
-0.024
0.004
0.180
-0.059
0.009
-0.070
0.035
0.136
0.046
-0.040
-0.027
-0.089
-0.059
0.158
0.028
0.109
0.021
-0.022
0.037
-0.010
-0.042
0.129
0.027
0.024
0.021
0.027
-0.068
-0.009
0.150
0.109
-0.021
-0.166
0.095
-0.042
0.073
0.007
0.262
0.081
-0.298
-0.084
0.188
0.465
-0.078
-0.190
-0.188
-0.125
0.080
0.051
0.078
-0.011
-0.062
-0.002
0.080
-0.138
-0.024
-0.052
0.046
0.105
0.062
-0.082
0.080
0.024
0.137
0.156
0.006
0.094
-0.061
-0.009
-0.076
-0.053
0.098
0.058
-0.024
0.012
-0.035
-0.034
-0.010
-0.002
0.020
-0.036
0.089
0.027
0.023
-0.029
0.032
0.021
0.023
0.050
-0.000
0.007
0.016
-0.003
0.029
-0.034
0.021
-0.024
0.010
0.077
-0.009
0.056
-0.049
0.155
0.054
-0.047
-0.048
0.086
-0.031
-0.008
0.097
-0.026
-0.036
-0.011
0.050
0.048
0.130
0.013
-0.032
-0.026
0.015
-0.027
0.077
0.034
0.066
-0.023
0.112
-0.028
0.043
0.097
-0.012
-0.052
0.117
0.088
0.016
0.033
0.068
-0.108
0.008
0.084
0.069
-0.020
0.026
0.097
0.034
0.023
0.020
-0.017
-0.013
0.138
-0.036
0.007
0.103
0.155
-0.036
-0.034
0.016
-0.008
-0.080
0.095
0.059
0.054
0.148
-0.076
-0.006
-0.004
-0.011
0.063
0.010
0.267
0.248
-0.122
-0.086
-0.314
-0.211
0.109
0.346
0.255
0.161
-0.255
0.011
-0.377
-0.208
0.112
0.154
0.157
0.036
-0.085
0.101
0.002
0.052
-0.070
0.250
0.060
0.079
0.088
0.037
-0.106
0.134
0.050
0.054
-0.075
0.162
0.045
-0.073
-0.036
0.084
0.024
-0.001
0.050
0.064
0.116
-0.063
-0.044
0.006
-0.024
0.088
0.003
-0.070
0.140
-0.034
-0.024
0.066
-0.049
0.051
-0.020
0.105
0.159
0.108
0.005
-0.045
0.035
0.145
0.097
-0.044
0.051
0.010
0.013
-0.008
-0.008
0.105
-0.021
-0.016
-0.003
-0.041
0.037
0.107
-0.000
-0.034
0.125
0.114
0.055
0.006
-0.115
0.060
0.129
0.042
0.009
0.078
0.062
0.044
-0.011
-0.085
0.124
0.071
-0.028
-0.120
0.127
0.106
-0.032
0.095
-0.064
-0.122
0.028
0.166
-0.026
0.000
0.053
0.021
0.099
0.048
-0.043
-0.001
0.046
0.151
0.004
-0.143
0.049
0.125
0.087
0.079
0.026
0.006
-0.070
0.019
0.022
0.044
0.009
0.071
-0.007
-0.105
0.007
0.010
0.015
0.018
0.166
-0.030
-0.176
-0.116
0.065
0.096
0.045
0.092
0.012
-0.062
-0.009
0.039
-0.108
0.103
0.032
0.007
0.093
0.101
-0.010
-0.039
0.128
-0.042
0.073
0.076
-0.017
-0.025
0.057
0.088
0.011
0.039
-0.017
0.053
-0.087
0.066
0.053
0.049
0.039
-0.027
0.023
0.077
0.055
-0.092
0.050
-0.030
0.135
0.014
-0.086
0.078
0.148
0.110
-0.167
0.026
-0.057
-0.020
0.060
0.135
-0.041
-0.089
0.023
0.025
-0.023
0.090
0.006
-0.010
0.032
0.010
0.103
-0.135
0.066
0.052
-0.005
0.088
0.058
0.082
0.052
0.030
-0.155
0.119
-0.008
-0.035
0.110
-0.048
0.060
-0.042
0.070
0.083
-0.027
0.032
-0.022
0.017
-0.039
0.133
-0.002
0.107
-0.112
0.094
0.162
0.377
-0.020
-0.026
-0.072
0.052
-0.054
-0.001
0.098
0.047
0.014
0.075
-0.196
-0.140
-0.168
-0.130
0.035
0.331
0.201
0.105
-0.131
-0.169
-0.036
-0.060
0.084
0.013
0.100
0.146
0.036
0.051
-0.001
-0.002
0.112
-0.027
-0.054
-0.054
-0.071
0.006
0.108
0.074
0.109
0.072
-0.093
0.062
0.072
0.018
0.056
-0.036
0.089
0.103
-0.059
-0.109
-0.045
0.154
-0.005
0.111
-0.133
-0.098
0.084
-0.005
-0.041
0.143
-0.036
-0.083
0.018
0.072
-0.083
-0.027
0.141
-0.027
0.092
0.017
0.060
-0.012
-0.093
0.104
0.036
0.165
-0.040
-0.188
0.148
-0.022
0.061
0.134
-0.127
0.031
0.061
0.086
-0.051
-0.056
-0.039
-0.007
0.007
0.100
0.058
-0.066
0.090
0.036
0.013
0.061
0.043
0.110
-0.096
-0.109
0.127
0.116
0.047
0.026
-0.142
-0.132
-0.051
0.255
0.071
0.035
0.142
0.012
-0.097
0.006
-0.007
0.022
0.203
0.004
0.018
0.034
0.045
0.038
0.017
0.037
-0.009
0.064
0.024
0.108
0.024
0.063
-0.060
-0.053
0.042
0.097
-0.042
0.001
0.022
0.131
0.093
0.011
-0.008
0.077
0.016
0.035
0.003
-0.023
0.149
-0.141
-0.090
0.021
0.065
0.012
-0.030
-0.232
0.157
0.299
0.146
-0.106
-0.084
-0.180
-0.393
0.018
0.152
0.144
0.167
0.093
-0.064
0.043
0.015
0.052
0.004
0.045
0.086
0.185
-0.026
-0.060
-0.162
0.040
0.017
-0.034
-0.004
0.063
0.017
0.019
-0.037
-0.143
-0.162
-0.049
0.207
0.055
0.023
0.056
-0.077
0.125
-0.063
0.107
0.048
-0.016
0.069
-0.071
0.010
0.001
-0.151
0.162
0.013
0.084
-0.083
0.038
-0.170
-0.166
0.174
-0.056
-0.009
-0.038
0.090
0.012
-0.057
-0.062
0.053
-0.004
0.068
0.218
0.121
0.101
0.055
-0.036
0.039
-0.036
0.130
0.020
0.073
-0.033
0.053
-0.052
-0.014
0.117
-0.058
-0.020
0.038
-0.288
-0.616
-0.121
0.319
0.277
0.242
0.038
0.030
-0.042
-0.169
-0.043
0.113
0.255
0.116
0.075
0.170
0.025
0.017
0.060
0.002
0.055
0.011
0.075
0.086
-0.066
-0.095
0.105
0.003
-0.063
0.075
-0.015
0.038
-0.027
-0.015
-0.031
0.008
-0.051
0.123
0.479
0.180
-0.118
-1.395
-0.377
0.371
0.597
0.538
0.223
-0.027
-0.258
-0.248
-0.155
-0.075
0.018
0.084
0.174
0.155
0.062
0.053
0.233
-0.075
0.203
0.122
-0.020
-0.088
-0.084
-0.007
0.168
0.707
-0.498
-0.178
0.373
0.270
-0.645
0.223
0.267
0.122
-0.377
-0.199
0.253
-0.908
0.333
1.046
0.352
-1.542
-0.411
0.929
0.825
0.226
-0.219
-0.216
-0.106
0.045
-0.087
0.087
0.270
0.065
0.074
0.015
-0.076
-0.159
-0.067
-0.164
-0.097
0.042
-0.180
0.123
-1.555
-0.367
0.749
1.203
0.045
0.566
-0.105
-0.049
-0.208
-0.500
-0.268
0.080
0.504
0.586
0.388
0.200
-0.066
-0.010
0.058
-0.261
-0.262
0.088
0.068
0.252
0.233
-0.216
-0.191
0.087
0.108
-0.107
-0.184
-0.045
0.295
-0.184
-0.221
0.353
-0.140
-0.010
0.073
-0.448
0.177
-0.223
-0.050
0.108
0.541
-0.091
-0.299
-0.250
0.066
0.107
0.085
0.079
-0.013
-0.019
0.157
0.202
0.036
0.010
0.065
0.101
-0.100
0.085
0.092
0.006
0.056
0.164
0.100
0.004
0.007
0.364
0.052
0.015
-0.338
-0.352
0.078
0.209
0.349
0.010
-0.041
0.065
0.066
0.153
-0.434
-0.042
-0.232
0.073
0.185
0.293
0.194
0.088
-0.070
-0.173
0.057
-0.139
-0.002
0.125
0.048
0.169
-0.084
-0.057
0.053
0.119
0.101
-0.043
0.001
0.053
-0.117
0.003
0.018
0.043
-0.073
0.224
-0.109
-0.049
0.132
0.073
-0.064
-0.024
0.101
0.089
0.009
-0.018
0.030
-0.108
0.054
-0.032
0.006
0.038
-0.001
0.104
-0.012
0.021
0.041
0.035
0.072
-0.030
0.031
0.132
-0.095
-0.067
-0.053
0.051
-0.064
0.031
0.078
0.040
0.084
0.041
-0.100
0.031
0.063
0.024
0.069
0.053
0.039
-0.018
-0.025
0.101
-0.060
-0.014
-0.002
-0.028
0.054
0.082
0.002
-0.084
0.025
0.106
0.019
0.145
0.160
-0.145
-0.098
0.076
0.038
-0.057
-0.058
0.058
0.011
-0.044
0.073
-0.021
-0.046
-0.019
-0.010
0.042
-0.038
0.099
-0.073
0.029
0.040
0.078
-0.015
0.001
-0.005
0.076
-0.058
0.158
0.074
-0.078
0.027
0.105
-0.057
-0.004
0.007
-0.026
0.106
0.045
0.077
-0.068
0.081
0.026
0.079
-0.103
-0.103
0.063
0.014
-0.035
0.177
0.052
-0.051
-0.064
0.322
-0.111
-0.176
-0.161
-0.061
0.051
0.054
0.111
0.244
0.135
-0.097
-0.262
0.024
0.136
0.051
-0.048
0.068
-0.010
0.152
0.008
0.034
-0.055
0.042
0.076
-0.054
0.070
-0.052
-0.067
-0.042
0.058
-0.031
0.125
0.013
0.067
-0.056
0.152
0.049
-0.052
0.019
0.112
-0.095
-0.125
0.124
0.052
0.063
0.089
-0.039
0.062
0.072
-0.011
-0.023
0.019
0.108
-0.017
0.006
0.065
0.049
0.036
-0.002
0.102
0.036
-0.035
0.029
-0.034
-0.040
-0.045
0.186
0.009
0.173
-0.101
-0.032
0.063
0.047
-0.013
0.021
0.021
0.071
0.042
-0.027
-0.046
0.027
0.135
-0.048
0.035
0.038
0.067
0.054
0.070
-0.041
0.008
-0.063
0.035
0.141
0.149
-0.089
-0.044
0.026
-0.055
0.099
0.064
-0.053
0.064
0.247
0.017
-0.083
-0.109
0.067
0.132
0.050
-0.032
-0.019
-0.011
0.067
-0.050
0.001
-0.023
0.091
0.056
-0.029
0.070
-0.028
0.124
0.062
-0.011
0.027
0.023
0.045
0.121
0.003
0.063
-0.010
0.069
-0.017
0.016
0.065
0.077
-0.017
0.029
-0.066
-0.023
0.091
-0.001
-0.097
-0.012
0.090
0.141
-0.067
-0.021
-0.005
0.026
0.118
0.039
0.181
0.031
-0.026
-0.077
0.083
0.101
-0.088
-0.068
-0.056
0.107
-0.027
0.036
0.048
-0.087
-0.038
-0.001
0.083
0.093
-0.030
0.031
0.154
-0.108
0.100
-0.096
0.034
0.144
-0.120
0.014
-0.020
0.122
-0.011
-0.012
-0.103
0.064
0.172
-0.030
-0.052
0.019
0.107
0.044
-0.090
0.051
0.029
-0.082
0.066
0.001
0.020
0.031
0.027
-0.097
0.024
0.038
0.061
0.077
0.069
0.034
-0.087
0.106
0.064
0.022
0.106
0.043
-0.098
0.045
0.039
0.103
0.009
0.041
-0.106
0.050
-0.045
0.047
0.116
-0.037
0.106
0.017
-0.190
0.014
0.016
0.146
0.097
0.025
0.031
0.067
0.013
0.039
0.070
0.058
0.003
-0.066
0.011
-0.014
-0.035
0.015
0.105
0.027
-0.013
0.062
0.030
0.070
0.109
0.036
-0.033
-0.060
0.001
0.030
0.037
0.105
-0.018
0.061
-0.033
0.067
-0.092
-0.069
0.060
0.062
-0.133
0.110
0.063
0.002
0.055
0.008
0.216
0.027
-0.059
-0.056
0.019
0.058
-0.066
0.111
0.055
0.107
-0.020
0.008
-0.091
0.011
0.072
0.065
0.091
0.100
-0.063
0.014
0.036
-0.086
0.091
0.000
-0.014
0.033
0.023
0.084
0.069
0.001
-0.017
-0.049
0.138
0.032
0.014
0.108
0.030
-0.140
-0.041
-0.002
0.059
0.123
-0.006
0.035
0.019
0.054
0.032
-0.036
0.036
-0.002
0.062
0.082
0.002
0.131
0.003
-0.073
-0.025
0.033
0.071
0.175
-0.087
-0.083
0.093
-0.031
0.187
0.034
0.019
0.010
0.131
0.023
-0.069
0.153
0.096
0.011
-0.009
-0.055
0.063
0.066
-0.004
-0.002
0.025
0.146
-0.050
0.105
-0.011
-0.012
0.007
0.125
0.050
-0.051
-0.087
0.020
0.116
-0.027
0.039
0.006
0.013
-0.003
-0.100
0.028
-0.003
0.098
0.009
0.055
-0.003
-0.002
0.111
0.094
0.059
-0.136
0.145
0.063
-0.024
0.053
-0.053
-0.012
0.096
-0.049
0.097
0.069
0.078
-0.090
0.030
-0.016
-0.020
0.093
-0.010
0.087
0.066
0.043
-0.061
-0.011
0.056
0.026
0.041
0.051
-0.012
-0.066
0.094
0.047
0.030
0.016
0.037
-0.067
-0.003
-0.000
-0.040
0.051
0.052
-0.012
-0.005
-0.069
0.092
0.093
0.032
-0.010
0.007
0.153
-0.045
0.061
-0.051
-0.064
0.111
0.033
0.058
0.010
0.037
0.054
0.071
-0.039
0.016
-0.012
-0.057
0.023
-0.018
0.034
0.107
-0.082
0.049
0.096
0.039
-0.049
-0.122
0.059
0.078
0.025
0.030
0.050
0.059
0.093
-0.062
-0.069
-0.078
0.099
0.114
-0.043
-0.077
0.069
0.068
0.123
-0.055
0.083
-0.068
0.010
0.043
-0.041
-0.001
0.020
-0.025
0.026
0.055
0.066
-0.163
0.067
0.074
-0.048
0.025
0.129
-0.058
0.107
0.007
0.028
-0.075
0.093
0.089
0.022
0.041
-0.034
0.056
0.006
-0.107
0.009
0.014
0.214
-0.025
-0.073
0.022
0.138
-0.030
0.043
0.106
-0.105
-0.030
0.108
0.058
0.090
0.007
-0.025
0.133
0.031
-0.079
0.011
0.021
0.025
-0.044
-0.202
0.092
0.091
0.013
0.048
0.023
-0.028
-0.016
0.039
-0.029
0.130
0.040
-0.114
0.046
0.019
-0.052
0.058
0.128
-0.079
0.043
0.147
-0.055
-0.041
0.078
-0.061
0.176
0.078
0.035
-0.028
0.020
-0.065
0.009
0.072
0.142
-0.018
-0.095
-0.075
0.257
0.149
-0.020
-0.018
-0.064
0.063
-0.051
0.044
0.037
-0.059
0.161
0.002
-0.040
-0.039
-0.020
0.110
0.016
0.051
-0.100
-0.011
0.053
0.111
-0.115
-0.040
0.202
0.026
-0.033
0.012
-0.079
0.023
0.035
0.023
-0.032
-0.002
0.070
0.005
0.147
-0.093
0.067
0.015
0.015
-0.016
0.014
0.067
-0.014
0.097
0.027
-0.036
0.084
-0.059
-0.076
-0.116
0.330
0.180
-0.227
-0.153
0.090
0.223
-0.003
0.058
-0.092
-0.055
0.033
-0.003
0.219
0.105
-0.074
0.021
0.040
-0.103
-0.031
-0.116
-0.048
0.089
-0.094
0.074
0.002
0.019
0.031
0.009
-0.006
-0.015
0.014
0.040
0.016
-0.046
0.060
0.095
0.063
-0.003
0.134
0.064
0.030
-0.034
-0.101
-0.039
0.206
-0.153
-0.031
0.090
0.092
-0.029
0.009
0.063
0.014
-0.066
0.056
-0.184
0.072
0.181
-0.027
0.014
0.010
-0.077
0.077
0.032
-0.011
0.002
0.041
0.135
0.048
0.031
-0.038
0.055
0.011
-0.002
0.045
0.089
0.062
0.003
0.067
0.042
-0.033
0.083
0.043
-0.066
-0.013
0.039
0.063
-0.015
0.154
0.063
-0.029
-0.024
0.070
-0.059
0.027
0.125
0.002
0.011
0.003
0.114
-0.022
-0.008
0.014
0.040
0.038
-0.008
-0.004
0.090
-0.012
-0.012
-0.029
-0.093
0.104
0.227
0.113
-0.074
-0.074
-0.012
0.122
-0.035
0.016
0.165
0.149
-0.015
0.005
-0.017
-0.002
0.036
0.091
-0.002
-0.083
0.056
0.047
0.077
0.038
-0.045
0.005
0.086
-0.041
0.058
-0.017
-0.057
0.125
0.074
-0.035
0.000
0.049
0.046
-0.017
-0.039
0.085
0.007
0.054
0.156
0.079
-0.185
-0.080
-0.104
-0.082
0.094
0.237
0.024
0.008
-0.063
0.073
0.000
-0.078
0.019
0.099
-0.067
-0.013
0.132
0.084
0.020
0.015
0.122
0.035
0.120
-0.035
-0.090
0.033
-0.024
0.084
0.111
-0.048
-0.017
0.015
-0.039
0.039
-0.074
0.069
-0.028
-0.017
0.056
0.030
0.054
0.069
0.030
0.146
0.105
-0.033
-0.325
-0.219
0.089
0.235
0.200
-0.043
-0.087
-0.059
0.010
0.005
-0.155
0.263
0.127
0.008
-0.130
0.095
0.072
0.132
0.099
0.132
0.022
-0.054
-0.106
-0.041
0.122
0.000
-0.043
-0.021
-0.024
-0.118
-0.014
0.018
0.085
0.084
-0.063
0.021
0.096
0.031
-0.077
-0.014
0.075
0.148
0.061
-0.082
-0.003
0.012
0.005
-0.014
0.101
-0.098
0.004
0.123
0.182
-0.069
-0.023
0.030
0.152
-0.062
0.028
0.124
-0.021
-0.034
0.082
0.046
0.118
0.021
-0.071
-0.005
0.061
0.058
-0.067
-0.017
0.116
-0.026
0.016
-0.012
-0.051
0.017
0.067
0.009
-0.016
0.003
0.178
0.014
-0.093
-0.031
0.009
-0.034
0.056
0.089
0.057
-0.054
0.019
0.004
-0.028
0.010
-0.010
0.130
0.106
0.027
-0.067
0.079
0.033
0.089
0.088
-0.038
0.048
0.063
0.019
-0.035
-0.005
0.025
0.032
0.073
-0.003
0.035
0.010
0.019
0.067
0.116
-0.014
-0.011
0.048
0.003
0.011
0.015
-0.112
-0.029
-0.018
0.019
-0.012
0.117
-0.017
-0.046
-0.007
-0.002
0.226
-0.104
-0.105
-0.070
0.069
0.036
0.161
0.122
-0.089
0.036
-0.048
0.057
-0.044
0.272
0.247
0.018
-0.084
0.068
-0.031
-0.123
-0.091
0.178
0.064
0.004
0.068
0.127
0.050
-0.030
-0.100
-0.061
-0.089
-0.036
-0.156
0.061
0.143
0.081
-0.077
0.050
0.060
-0.003
-0.027
0.031
0.003
0.171
0.051
0.020
0.021
0.135
0.097
0.118
-0.047
0.057
-0.101
0.019
0.031
-0.026
-0.034
-0.050
0.037
0.087
0.105
-0.075
0.065
0.120
0.081
-0.008
0.085
0.069
-0.006
0.001
0.097
0.088
-0.079
-0.020
0.141
-0.012
0.074
-0.026
0.040
0.013
-0.022
-0.034
0.139
-0.005
-0.088
0.140
-0.056
-0.036
0.036
0.110
0.010
0.117
0.025
0.074
-0.132
0.051
0.022
0.090
0.007
0.125
-0.102
0.037
0.110
0.108
0.042
0.059
0.051
0.038
0.029
0.026
-0.013
-0.056
0.069
0.061
0.083
0.060
0.079
-0.042
0.022
0.061
0.153
0.130
-0.223
0.001
0.139
0.260
-0.179
-0.281
0.083
-0.070
0.125
0.127
0.008
-0.186
-0.126
-0.038
0.206
0.117
0.110
-0.056
0.007
0.108
0.165
0.103
-0.180
0.269
0.034
-0.111
0.120
-0.072
-0.246
0.349
0.412
-0.289
-0.057
0.042
0.005
-0.128
-0.003
-0.007
-0.066
0.060
0.104
0.036
0.010
-0.039
0.137
0.039
-0.054
-0.002
-0.065
-0.041
0.089
0.093
0.041
0.045
0.058
-0.049
0.032
0.034
-0.073
0.119
-0.023
0.119
-0.446
-0.157
0.142
0.199
0.241
-0.205
0.112
0.159
0.025
0.099
-0.233
0.137
-0.007
-0.118
0.184
0.106
0.331
-0.042
0.091
-0.323
-0.123
0.049
0.246
-0.001
-0.258
0.007
0.106
0.213
0.116
-0.194
-0.276
0.002
0.307
0.117
0.015
-0.173
-0.258
0.231
0.130
0.136
-0.025
-0.022
-0.004
0.191
0.053
-0.064
-0.046
-0.092
0.074
-0.020
0.046
0.103
-0.060
-0.028
0.140
0.073
-0.021
0.012
-0.056
0.003
0.073
0.083
0.096
-0.021
0.015
-0.016
0.020
0.038
-0.013
0.031
0.066
-0.125
-0.084
0.332
-0.034
-0.219
0.057
0.447
-0.170
-0.186
-0.046
-0.036
0.390
0.023
0.079
-0.088
-0.090
-0.213
-0.025
0.248
0.260
0.119
0.184
-0.221
-0.229
-0.145
0.065
0.135
0.094
0.088
0.008
0.049
0.047
0.062
-0.025
-0.045
0.063
-0.027
0.070
-0.015
-0.012
-0.006
0.002
0.054
-0.061
-0.021
0.064
-0.008
-0.141
0.016
0.082
0.155
0.063
-0.063
-0.046
0.008
0.122
-0.017
0.004
-0.037
0.027
0.060
0.106
-0.045
0.002
0.087
0.030
-0.075
0.005
0.116
-0.031
-0.009
0.047
-0.002
0.006
0.066
0.095
0.021
0.048
0.010
-0.050
0.084
-0.034
0.019
0.073
-0.002
-0.008
0.080
-0.013
-0.043
0.027
0.012
-0.022
0.113
0.054
-0.063
-0.006
0.149
-0.026
0.014
0.071
-0.006
-0.046
-0.021
0.042
0.091
-0.070
-0.018
0.049
-0.036
-0.003
0.146
-0.043
-0.104
0.106
0.077
-0.030
0.028
-0.040
0.065
-0.032
0.038
0.044
0.058
0.011
0.038
0.081
-0.008
0.050
-0.005
0.046
-0.011
-0.007
0.054
0.041
-0.011
0.089
-0.011
0.002
0.044
0.032
-0.084
0.097
-0.002
-0.011
0.041
-0.054
0.059
-0.025
0.045
-0.025
0.097
-0.051
-0.054
0.062
-0.028
0.076
-0.011
-0.043
0.057
-0.058
0.082
0.002
0.038
0.004
0.022
-0.001
0.017
0.017
-0.039
0.059
0.001
-0.014
0.004
-0.070
0.078
0.025
0.096
-0.011
0.066
-0.017
0.079
-0.002
-0.110
-0.012
0.079
-0.009
0.108
-0.022
-0.034
-0.009
-0.023
0.154
0.141
-0.075
-0.065
0.019
-0.033
0.066
0.078
0.002
-0.039
0.045
0.105
-0.025
-0.031
0.000
0.029
0.078
0.080
0.050
0.071
-0.032
-0.070
0.080
0.050
-0.011
-0.046
0.033
0.058
0.042
-0.029
0.047
0.071
-0.048
-0.077
0.024
0.105
0.058
0.009
0.014
-0.064
0.188
0.013
-0.055
0.144
0.016
-0.062
-0.054
0.159
-0.021
0.074
0.046
0.037
-0.166
0.043
0.177
0.018
0.046
0.060
0.053
-0.048
0.050
-0.064
-0.025
0.060
0.011
0.096
0.074
0.069
-0.057
0.008
0.006
-0.001
0.104
-0.015
-0.030
0.115
0.064
-0.051
0.156
-0.042
-0.038
0.055
0.057
0.082
-0.067
0.014
-0.079
0.158
0.037
-0.058
0.056
0.090
-0.052
-0.029
0.092
-0.015
0.107
-0.051
-0.069
-0.041
-0.090
0.129
0.043
0.082
0.048
0.005
0.022
0.058
0.069
0.046
0.118
0.021
-0.015
-0.045
-0.058
0.050
0.146
0.008
0.033
-0.057
0.134
0.035
-0.027
-0.060
0.016
-0.012
-0.018
0.181
0.210
-0.119
0.021
0.022
0.004
-0.038
-0.022
-0.097
-0.037
0.114
0.009
0.158
-0.005
-0.023
-0.083
-0.006
0.082
-0.008
0.060
0.085
0.031
0.021
0.042
0.057
-0.007
0.142
0.018
0.046
-0.074
0.055
0.017
0.074
-0.098
-0.081
0.076
-0.004
-0.051
0.088
0.153
0.037
-0.010
-0.081
-0.095
-0.042
0.032
0.105
0.058
0.067
-0.056
0.045
-0.080
0.036
0.095
-0.051
-0.122
0.034
0.118
0.079
0.034
-0.036
0.051
0.026
0.159
-0.125
-0.001
-0.005
0.048
0.093
-0.073
-0.014
-0.087
-0.008
0.027
0.111
-0.002
0.048
0.013
-0.070
-0.027
0.021
-0.032
-0.064
-0.036
0.130
-0.017
0.118
0.034
0.026
-0.050
0.056
0.001
0.035
-0.035
0.058
0.019
-0.007
-0.032
0.016
0.055
0.137
-0.048
-0.036
0.037
0.152
-0.063
0.021
0.023
-0.001
0.032
0.059
0.075
-0.032
0.075
-0.094
0.010
-0.029
0.056
-0.024
0.025
0.069
0.102
-0.040
0.041
-0.023
0.001
0.157
-0.094
-0.082
-0.072
0.086
0.021
0.053
0.072
-0.039
0.165
-0.035
-0.067
0.068
0.032
0.001
0.071
0.054
-0.001
0.065
0.024
0.150
-0.087
-0.006
-0.026
0.014
-0.022
0.018
-0.003
0.076
0.100
-0.020
0.052
-0.002
0.032
0.015
0.081
-0.061
0.034
-0.039
0.182
0.071
-0.012
-0.034
0.009
-0.010
0.136
0.016
-0.041
0.085
0.083
0.056
0.111
0.016
-0.060
0.014
-0.024
0.043
0.004
0.181
-0.160
-0.095
0.023
0.021
0.009
-0.050
0.142
-0.070
0.055
-0.093
-0.004
0.139
0.020
-0.023
-0.150
0.080
0.168
-0.020
-0.055
0.103
0.062
0.104
0.103
0.011
-0.022
-0.128
-0.009
0.046
0.071
0.110
0.013
0.022
0.058
-0.082
-0.050
0.100
-0.026
0.018
0.033
0.074
-0.083
0.006
0.087
0.043
-0.052
-0.105
0.025
0.012
0.075
0.017
-0.035
-0.065
0.034
0.119
-0.022
0.090
0.091
0.009
-0.100
-0.005
0.077
0.106
-0.083
-0.074
0.001
0.058
0.050
-0.017
0.010
0.045
0.009
0.047
-0.027
0.048
0.190
0.015
-0.016
0.066
0.058
0.014
0.024
-0.046
-0.060
-0.038
0.158
-0.032
0.041
0.019
0.060
0.038
-0.001
0.005
0.017
-0.046
0.007
0.118
0.084
0.069
0.014
-0.039
0.042
0.001
-0.045
0.168
0.041
0.003
-0.004
-0.068
-0.063
0.098
0.107
0.068
0.115
0.004
-0.026
0.063
0.050
0.044
0.073
-0.006
0.033
-0.025
-0.054
0.148
-0.010
0.079
0.137
-0.039
-0.036
0.030
-0.008
-0.042
0.017
-0.029
0.164
-0.025
0.021
0.131
-0.030
0.030
-0.046
0.053
0.061
0.043
-0.073
0.114
-0.064
0.014
0.076
-0.055
0.017
0.133
0.025
0.027
-0.013
0.067
0.017
-0.111
0.013
0.027
-0.021
0.163
0.028
-0.089
-0.053
-0.087
0.065
0.093
-0.003
-0.006
-0.037
-0.019
0.109
0.092
0.227
0.107
0.125
-0.057
0.002
-0.181
-0.053
0.104
0.235
0.086
-0.223
0.076
0.098
0.026
-0.089
-0.041
-0.176
0.151
-0.012
0.072
0.116
0.047
0.006
0.095
0.062
-0.150
-0.092
0.170
0.096
0.003
-0.018
-0.004
0.151
0.044
-0.055
0.010
0.126
-0.138
-0.035
-0.035
0.074
0.259
-0.051
0.000
0.046
-0.072
0.062
0.009
0.102
-0.071
0.064
0.076
0.077
0.116
-0.053
-0.022
-0.023
0.068
0.034
0.013
-0.028
0.099
-0.002
0.064
0.105
-0.031
-0.067
0.003
0.025
-0.062
0.083
0.100
0.113
-0.140
0.005
-0.039
0.058
0.069
-0.020
0.125
0.029
-0.133
0.036
-0.032
-0.007
0.152
-0.001
-0.074
0.074
-0.040
0.009
-0.027
0.066
0.144
0.050
-0.094
0.027
0.008
-0.007
0.011
0.063
0.114
-0.044
-0.003
-0.015
0.114
-0.012
-0.032
-0.071
0.058
0.026
0.018
0.039
0.035
-0.056
-0.052
-0.088
0.114
0.129
-0.019
0.069
0.007
0.053
-0.024
0.025
0.037
0.012
0.029
0.033
-0.032
-0.043
0.039
0.079
-0.052
0.046
-0.036
-0.010
0.140
-0.098
0.011
0.056
0.142
-0.017
-0.004
-0.006
0.127
0.127
-0.064
0.002
-0.008
-0.027
-0.011
0.051
-0.048
-0.066
0.066
0.093
0.077
-0.067
-0.107
0.025
-0.044
0.116
0.061
-0.052
-0.034
0.034
0.071
-0.065
-0.006
0.063
0.010
0.099
-0.041
0.088
0.106
0.087
-0.015
0.023
-0.000
0.025
0.128
-0.014
-0.078
0.022
0.024
-0.060
0.025
-0.140
-0.027
0.102
0.090
0.001
0.148
-0.017
-0.045
-0.012
-0.014
-0.013
0.030
0.138
-0.074
0.107
-0.023
0.059
-0.052
0.184
0.064
-0.051
-0.104
0.079
-0.033
-0.015
0.120
0.197
0.076
0.057
-0.202
0.020
0.006
-0.010
0.051
0.083
-0.004
0.012
-0.121
0.140
-0.083
-0.041
0.007
0.061
0.075
0.136
-0.032
-0.119
0.035
0.140
-0.002
0.063
-0.008
-0.018
0.034
0.033
0.065
-0.029
0.046
-0.044
0.049
-0.118
0.071
0.039
0.133
0.181
-0.067
0.172
0.057
-0.026
-0.020
0.135
-0.033
0.062
0.092
0.060
0.000
0.022
-0.103
-0.033
-0.086
0.029
0.018
0.033
-0.029
0.081
-0.067
0.118
-0.024
-0.116
-0.007
0.096
0.028
0.027
-0.081
-0.076
0.135
0.097
0.049
-0.018
-0.067
0.065
0.100
-0.143
0.123
0.002
0.138
0.000
0.096
-0.022
-0.203
-0.177
0.144
0.210
0.211
0.038
-0.132
-0.058
-0.112
-0.123
0.019
0.206
0.174
0.033
0.098
0.133
-0.103
-0.165
0.125
0.159
0.195
0.039
-0.104
-0.316
-0.013
0.368
0.297
0.062
-0.067
-0.083
-0.116
-0.136
-0.061
0.004
-0.020
0.077
0.085
-0.004
-0.046
0.107
-0.044
-0.074
0.032
0.097
-0.056
0.004
0.028
0.078
-0.018
-0.015
0.023
-0.002
-0.018
0.080
0.031
-0.010
0.017
-0.033
0.109
0.123
0.049
-0.068
-0.143
0.200
0.086
0.025
0.072
0.110
0.036
-0.005
0.014
0.107
0.016
-0.031
0.003
0.148
-0.126
0.015
-0.018
-0.003
0.108
0.039
0.002
-0.033
0.026
-0.084
0.003
0.140
-0.057
0.067
0.000
-0.026
0.051
-0.050
-0.033
0.000
0.217
0.031
0.077
-0.037
0.051
0.006
-0.034
0.059
0.073
0.013
0.020
0.008
-0.081
0.068
0.067
0.002
0.001
-0.034
0.045
0.041
-0.042
0.049
0.014
0.101
-0.004
-0.015
0.063
-0.099
0.056
0.132
-0.021
0.076
-0.009
0.053
0.091
0.036
-0.075
0.066
-0.006
-0.054
0.011
0.083
0.105
0.054
-0.083
-0.022
0.165
-0.026
0.028
0.014
0.097
0.064
0.038
-0.094
-0.001
0.073
0.056
0.031
-0.183
-0.007
0.133
-0.015
0.081
-0.082
-0.039
-0.048
-0.065
-0.121
-0.029
0.037
-0.011
0.082
0.202
0.162
0.019
-0.190
-0.063
0.042
-0.274
0.314
0.086
0.120
0.023
0.247
0.057
-0.080
-0.031
-0.294
-0.237
0.242
0.116
-0.061
0.153
0.105
-0.113
0.221
-0.031
-0.135
-0.363
0.011
0.008
0.377
0.089
0.019
0.149
0.006
-0.085
0.113
-0.193
-0.054
0.113
0.068
0.136
0.076
-0.007
-0.134
-0.307
0.128
0.128
0.257
0.059
-0.018
-0.068
-0.174
-0.071
0.109
0.010
0.066
0.055
-0.024
0.099
0.038
0.052
-0.051
-0.112
0.066
0.106
-0.054
0.010
0.291
0.145
-0.223
-0.153
0.317
0.154
-0.256
-0.037
0.055
0.115
0.050
-0.068
-0.015
-0.049
0.058
0.277
0.122
-0.017
0.061
-0.073
-0.020
-0.274
-0.269
0.259
0.342
0.055
-0.018
-0.170
-0.128
0.123
-0.320
0.100
0.172
0.213
-0.216
0.218
0.109
-0.164
-0.006
0.186
0.190
-0.113
-0.223
-0.179
0.027
0.215
0.050
0.084
-0.021
0.211
0.048
-0.033
-0.192
-0.002
0.147
0.012
-0.052
0.062
0.046
-0.008
0.002
-0.004
0.078
0.044
0.054
-0.034
0.109
0.074
-0.214
0.107
-0.119
0.161
0.020
0.106
-0.062
-0.004
0.018
-0.053
-0.312
-0.160
0.301
0.003
0.152
0.139
0.017
-0.295
-0.197
-0.055
0.364
0.179
-0.041
-0.056
0.146
-0.044
0.075
0.152
-0.053
-0.022
0.061
0.101
0.153
-0.089
-0.058
0.047
0.121
0.106
-0.109
0.221
0.114
-0.020
-0.057
-0.203
0.048
0.047
0.164
0.041
-0.194
-0.128
-0.168
0.142
0.063
0.026
-0.065
-0.052
-0.012
0.051
0.006
-0.039
-0.022
0.109
0.038
0.112
0.072
0.063
0.135
-0.025
-0.035
-0.077
-0.012
-0.090
0.075
0.044
0.029
0.023
0.074
0.052
-0.078
0.153
0.075
-0.060
0.007
0.045
0.059
0.032
-0.086
-0.030
0.105
0.063
-0.045
0.048
0.134
-0.060
0.055
-0.118
-0.070
-0.039
0.060
0.017
0.019
0.025
-0.006
-0.012
-0.094
0.026
0.171
-0.022
-0.008
0.070
-0.073
0.063
0.145
0.005
-0.022
-0.015
0.028
0.112
0.062
0.030
0.064
-0.017
0.027
0.115
-0.047
-0.038
0.025
0.155
0.135
0.020
-0.011
0.034
-0.042
-0.013
0.097
0.078
-0.023
-0.077
-0.016
-0.015
0.111
0.069
0.059
-0.047
-0.090
0.044
0.015
0.032
-0.033
0.008
0.049
-0.123
-0.007
0.057
0.044
0.147
-0.077
-0.034
0.035
-0.003
0.130
-0.046
-0.001
-0.028
0.109
0.107
0.040
0.107
-0.026
0.056
0.049
0.066
-0.050
0.196
-0.031
0.046
0.016
-0.112
-0.024
0.069
0.106
0.047
-0.155
-0.039
0.041
-0.062
0.120
0.045
0.002
0.003
0.010
-0.057
-0.094
0.052
0.024
0.226
0.029
-0.130
0.014
-0.020
0.022
-0.039
0.045
-0.018
-0.024
0.051
0.047
0.056
0.040
-0.058
-0.070
0.009
0.187
0.147
-0.001
-0.077
0.048
-0.103
0.111
0.072
0.017
0.088
-0.045
-0.031
-0.014
0.107
-0.071
-0.062
0.009
0.076
0.017
0.068
0.078
-0.044
-0.005
0.038
0.075
0.044
-0.040
-0.057
0.012
0.186
0.004
0.058
0.164
-0.155
-0.008
-0.060
0.068
0.139
-0.022
0.032
-0.001
0.084
-0.074
0.003
0.021
0.005
0.022
-0.150
-0.021
-0.046
0.099
0.071
0.051
0.071
0.036
0.010
0.018
0.097
-0.027
0.128
0.032
-0.020
-0.026
-0.097
-0.081
0.192
0.111
-0.043
0.003
-0.049
0.129
-0.022
0.130
-0.061
0.044
-0.029
0.040
-0.017
0.124
-0.006
-0.080
0.036
-0.058
0.041
-0.064
-0.046
0.026
0.065
-0.053
0.142
0.054
-0.027
0.085
-0.003
-0.012
0.058
0.004
0.003
0.000
-0.004
0.044
-0.064
-0.007
0.068
-0.022
-0.007
0.086
0.053
-0.074
-0.039
-0.003
0.106
0.037
0.064
-0.004
0.062
0.102
-0.027
-0.056
0.023
0.040
-0.054
0.108
-0.018
0.039
0.075
-0.054
-0.041
-0.009
0.111
-0.101
0.077
-0.023
0.057
-0.042
-0.025
0.140
0.030
-0.025
-0.002
-0.017
0.152
0.057
0.019
-0.013
0.034
-0.056
-0.025
0.002
0.084
0.057
-0.002
0.039
-0.028
0.018
0.007
-0.016
0.042
-0.024
0.006
0.067
0.039
-0.075
0.077
0.107
0.066
0.109
-0.173
0.026
0.167
0.050
0.051
-0.085
0.005
0.054
0.033
-0.030
0.068
0.041
0.076
0.030
0.086
0.082
-0.039
0.045
0.102
-0.052
-0.178
0.058
0.012
0.015
0.032
0.067
-0.071
0.183
0.006
0.106
0.088
-0.029
-0.014
0.007
-0.012
0.026
0.117
0.039
0.016
0.019
-0.049
-0.045
-0.045
-0.039
0.004
0.101
-0.020
0.102
-0.068
0.107
0.088
-0.031
0.091
-0.066
0.063
0.001
0.084
0.067
-0.003
0.152
-0.130
0.087
0.012
0.055
-0.032
0.011
0.080
0.086
-0.017
-0.046
-0.048
-0.013
0.094
-0.021
0.080
0.117
0.059
-0.026
-0.064
-0.062
0.046
0.031
0.057
0.087
0.094
-0.000
-0.035
0.098
-0.151
0.127
0.052
-0.063
0.080
-0.099
0.100
0.110
0.004
-0.019
0.059
-0.070
0.058
0.073
0.081
-0.089
0.053
0.076
-0.032
0.055
-0.036
0.015
0.049
0.036
0.074
0.037
0.031
0.005
0.025
0.068
-0.039
-0.012
-0.012
0.007
0.165
0.015
0.030
0.032
-0.026
0.157
-0.166
0.017
0.022
-0.082
-0.017
0.081
0.125
-0.026
0.047
-0.052
0.071
-0.016
0.076
-0.009
-0.040
0.064
0.186
0.070
0.038
-0.041
0.056
0.127
0.000
0.056
-0.072
-0.022
0.029
0.027
0.011
0.008
0.031
-0.046
0.046
0.064
0.070
0.057
0.107
0.037
-0.094
0.001
-0.024
0.104
0.058
0.042
0.048
-0.066
0.062
0.051
0.003
0.017
-0.057
0.077
-0.031
0.034
-0.033
-0.039
0.042
0.022
0.019
0.149
-0.023
-0.075
0.036
0.099
-0.061
0.019
-0.012
0.052
0.075
0.158
0.048
0.026
-0.013
-0.087
-0.059
0.042
0.163
0.073
0.094
0.104
-0.132
-0.029
0.007
0.080
0.027
0.046
0.057
0.058
-0.041
-0.004
-0.061
-0.084
0.042
0.101
0.033
-0.096
0.120
0.080
0.043
0.040
-0.054
-0.084
-0.033
0.108
0.077
0.035
0.115
-0.042
0.053
-0.010
-0.026
-0.030
0.079
-0.003
-0.001
0.010
0.061
0.126
0.001
-0.086
0.055
-0.086
0.113
-0.038
0.117
-0.058
-0.024
0.145
0.076
-0.029
-0.186
-0.061
0.169
0.070
-0.039
0.072
0.025
-0.032
0.085
-0.037
0.033
-0.015
0.102
0.048
-0.026
0.032
0.071
-0.047
0.014
0.071
0.087
0.085
0.001
-0.061
-0.007
0.042
0.143
-0.055
-0.042
-0.062
-0.002
0.046
0.112
-0.031
0.032
0.075
0.036
-0.249
0.027
0.241
-0.082
-0.116
-0.007
0.134
0.011
0.028
0.067
0.067
0.068
0.216
0.053
-0.081
-0.199
0.090
0.138
0.115
-0.279
-0.141
0.063
0.108
0.128
0.070
0.027
-0.051
-0.068
-0.047
-0.158
0.065
0.101
0.027
-0.003
0.218
0.139
0.145
0.030
-0.160
-0.038
0.120
-0.102
0.019
-0.115
0.152
-0.034
0.100
-0.043
-0.036
-0.059
-0.001
0.005
0.003
0.015
0.006
-0.023
0.101
-0.113
0.027
0.154
0.004
0.041
-0.061
0.092
0.001
0.058
0.077
0.002
0.002
-0.038
-0.052
0.127
-0.045
0.155
0.128
0.040
-0.003
-0.092
-0.063
-0.033
-0.034
0.030
-0.059
0.064
0.051
0.077
0.054
-0.084
-0.033
-0.059
0.054
-0.114
0.072
0.084
-0.090
0.123
0.023
0.003
0.046
0.131
0.002
-0.148
0.056
0.086
0.015
0.115
0.063
0.030
-0.009
0.009
0.033
0.019
0.023
-0.105
0.062
0.100
0.042
0.038
0.057
0.012
0.007
0.034
-0.075
0.017
0.023
0.113
0.086
-0.040
-0.067
0.006
-0.055
-0.009
0.019
-0.047
0.116
0.066
0.021
0.135
-0.003
-0.022
0.037
0.071
0.020
-0.077
0.102
0.129
0.013
0.094
0.104
0.137
-0.061
0.004
0.115
0.002
0.017
-0.020
-0.212
-0.119
0.102
0.134
0.125
0.049
0.044
-0.047
0.068
-0.143
-0.062
0.017
0.148
0.076
-0.060
0.104
-0.061
0.059
0.080
0.096
0.086
0.061
0.037
-0.041
0.049
-0.173
0.132
0.092
-0.026
0.006
0.012
0.052
0.084
0.106
0.067
0.073
0.004
-0.144
-0.066
-0.062
-0.043
0.152
-0.031
0.015
0.007
-0.033
-0.037
-0.020
-0.100
-0.054
0.016
-0.012
0.028
0.133
0.020
0.010
0.069
-0.017
0.050
0.048
0.015
0.010
-0.058
0.083
0.027
-0.008
0.171
0.080
0.039
-0.024
-0.138
0.098
0.017
-0.016
0.067
0.006
-0.148
0.038
-0.020
-0.012
-0.005
0.020
-0.034
0.040
0.023
0.065
-0.098
-0.028
0.004
-0.051
0.039
0.034
0.023
-0.003
0.154
0.116
-0.012
-0.067
-0.035
0.124
-0.103
-0.009
-0.066
0.048
-0.019
0.079
0.052
0.114
-0.075
-0.002
0.033
-0.003
-0.042
-0.029
0.078
-0.041
0.029
0.053
0.134
0.013
-0.172
0.075
0.039
0.084
0.070
0.020
-0.040
0.009
0.056
0.083
-0.044
0.060
0.085
0.059
-0.019
0.034
-0.059
-0.013
-0.005
-0.012
0.019
0.083
0.023
0.053
0.014
-0.062
-0.039
0.032
-0.040
0.137
0.111
0.069
-0.045
0.050
0.059
0.033
-0.105
-0.001
0.005
0.042
0.054
-0.032
-0.008
-0.088
0.005
-0.080
0.130
-0.014
-0.058
0.059
0.000
-0.037
0.131
0.065
0.092
0.056
-0.026
0.069
0.022
0.125
0.032
-0.035
-0.105
0.110
-0.097
-0.050
0.111
-0.053
0.049
0.014
-0.054
0.059
-0.042
0.063
0.001
-0.026
-0.071
0.034
0.183
-0.013
-0.044
0.029
0.078
-0.016
0.077
0.044
-0.022
-0.106
-0.051
0.096
0.075
0.027
0.062
0.011
0.009
0.123
-0.010
-0.056
0.044
0.016
0.052
0.035
-0.064
-0.030
0.112
0.002
0.148
-0.007
-0.038
0.034
0.073
-0.011
-0.054
0.027
-0.013
0.161
-0.064
-0.063
-0.014
0.076
0.003
-0.011
0.031
-0.038
-0.131
0.030
0.082
0.090
0.082
0.110
0.086
0.023
-0.028
0.036
0.073
-0.006
0.078
0.029
-0.078
0.083
0.035
0.069
-0.114
0.178
0.132
-0.024
0.062
0.105
-0.109
0.027
-0.033
0.056
0.121
0.067
0.120
0.015
-0.093
-0.032
0.026
-0.007
0.129
0.074
0.055
0.015
0.049
0.007
-0.047
0.060
-0.097
-0.102
0.023
0.141
0.092
-0.006
0.035
-0.032
0.039
0.045
0.046
0.074
-0.033
0.057
-0.093
-0.103
0.106
0.025
0.020
0.089
0.110
-0.021
0.062
-0.094
0.167
0.046
0.073
-0.140
0.018
0.078
0.194
0.064
-0.022
-0.025
0.068
0.060
-0.223
0.049
0.066
0.236
0.076
-0.032
0.018
0.063
0.036
0.030
-0.039
0.076
0.038
0.182
0.045
-0.153
-0.036
0.088
0.047
-0.138
-0.002
-0.004
0.061
-0.071
0.025
0.159
0.062
0.007
0.021
-0.114
-0.146
0.217
0.109
0.041
0.170
-0.034
-0.123
-0.021
-0.028
0.065
0.205
0.139
0.177
-0.216
0.010
0.122
0.128
0.005
0.003
0.024
-0.068
0.010
0.156
-0.022
0.069
0.017
0.060
0.031
0.065
0.047
-0.023
0.072
0.026
0.249
0.013
0.096
-0.076
-0.073
0.061
0.016
0.147
0.089
0.007
0.005
-0.016
-0.011
-0.007
-0.110
0.033
-0.035
0.188
0.075
-0.016
-0.073
-0.102
0.079
0.106
0.074
0.021
0.108
0.150
0.035
-0.047
-0.165
0.116
0.208
-0.074
-0.019
-0.129
0.008
0.139
0.158
0.111
-0.074
0.090
0.037
-0.003
0.122
0.029
0.016
0.095
0.021
0.077
-0.032
-0.095
-0.031
0.032
0.148
-0.010
-0.016
-0.069
0.058
0.041
-0.052
0.009
0.039
0.106
-0.040
-0.090
0.116
-0.014
0.076
-0.014
0.088
0.052
-0.043
-0.013
0.031
-0.098
-0.303
0.334
0.212
0.101
-0.225
0.192
0.047
0.122
-0.461
0.009
0.286
0.346
0.017
-0.090
-0.180
-0.095
-0.052
0.044
0.001
-0.099
0.084
0.216
-0.004
0.125
0.046
-0.010
-0.148
-0.012
-0.043
-0.215
0.031
0.395
0.233
0.130
0.065
-0.261
-0.131
0.005
-0.142
0.190
0.241
-0.093
-0.128
0.135
0.035
-0.035
-0.140
0.094
0.016
-0.021
0.043
0.049
-0.030
0.122
0.180
-0.018
-0.025
0.040
0.173
0.089
0.114
0.053
-0.066
-0.138
0.065
-0.076
-0.032
0.029
-0.105
0.005
0.135
-0.094
-0.115
-0.054
0.002
-0.084
0.076
0.095
0.126
0.008
-0.099
-0.055
0.048
0.033
0.130
0.003
0.063
0.069
0.036
-0.001
0.092
-0.047
-0.041
0.051
0.013
0.054
0.131
-0.038
0.010
0.054
-0.029
-0.032
0.017
0.005
0.073
0.074
0.092
-0.023
-0.071
-0.024
-0.104
-0.000
0.108
0.081
-0.110
-0.116
0.095
0.034
0.007
-0.030
-0.042
0.088
-0.011
-0.017
0.054
0.076
0.034
-0.174
0.073
0.052
-0.018
0.032
-0.052
0.024
0.079
0.066
-0.008
-0.015
0.041
0.034
0.054
-0.078
-0.229
0.056
-0.009
0.072
-0.006
-0.033
-0.025
0.041
-0.111
-0.069
0.074
0.098
0.158
0.139
-0.040
0.026
0.055
0.053
0.008
-0.016
0.123
0.068
0.045
-0.050
0.070
-0.047
-0.006
-0.125
-0.027
0.017
0.051
0.039
0.066
0.010
0.058
0.003
0.056
-0.075
-0.024
0.039
-0.004
0.046
-0.018
-0.049
-0.003
0.044
0.031
0.010
-0.013
0.082
0.033
0.076
-0.051
-0.154
-0.053
0.059
0.071
0.080
0.228
-0.062
-0.117
-0.034
0.082
0.099
-0.050
-0.009
-0.006
0.000
0.170
0.093
-0.024
-0.024
-0.008
-0.086
0.093
0.042
-0.144
-0.026
0.079
0.249
-0.029
0.059
0.038
-0.097
0.059
0.087
0.156
0.021
-0.106
0.060
-0.050
0.047
0.060
0.126
-0.036
-0.019
-0.060
0.010
0.039
-0.062
0.082
-0.058
0.011
0.113
-0.000
-0.045
0.112
0.062
-0.076
0.084
0.056
-0.046
0.015
0.015
0.073
0.058
-0.053
-0.001
0.023
0.043
0.004
-0.034
0.125
0.079
-0.067
0.029
-0.003
-0.051
0.138
0.077
-0.065
0.069
-0.014
0.091
-0.081
-0.042
0.096
0.075
-0.025
-0.083
0.018
0.200
-0.090
0.088
0.037
-0.032
-0.001
-0.114
0.204
0.012
0.030
0.054
0.013
0.014
-0.055
0.021
-0.010
0.120
-0.013
-0.007
-0.049
-0.071
-0.013
0.041
-0.020
0.053
0.038
0.043
0.119
-0.006
-0.052
-0.151
0.147
0.015
0.090
0.017
-0.011
0.055
-0.059
0.027
0.044
-0.047
0.070
0.082
-0.082
-0.047
-0.068
0.055
-0.022
0.101
0.029
0.039
0.033
-0.047
-0.022
-0.145
0.129
0.068
0.051
-0.090
-0.019
-0.064
-0.077
0.111
-0.016
0.075
0.021
0.023
-0.035
0.068
0.002
0.106
0.050
-0.075
0.096
0.057
-0.100
-0.020
0.159
0.044
-0.097
-0.023
-0.013
-0.063
0.041
0.016
0.006
-0.011
-0.107
0.033
0.155
-0.009
0.051
0.011
-0.005
-0.103
0.033
0.040
0.095
0.132
-0.017
-0.062
-0.074
0.002
0.017
0.012
0.097
0.122
-0.005
-0.034
0.133
-0.117
-0.108
0.059
0.194
0.089
0.006
-0.015
0.020
0.049
0.015
-0.005
-0.080
0.027
0.062
-0.092
-0.016
0.060
0.000
-0.043
0.169
-0.076
0.056
-0.018
0.049
0.085
-0.011
-0.054
0.032
0.041
0.007
0.001
0.172
0.030
-0.016
0.032
0.100
0.084
-0.029
0.054
0.001
-0.128
0.038
0.090
0.143
-0.032
0.023
0.018
-0.004
0.052
-0.054
0.095
0.106
-0.038
0.006
-0.014
0.055
-0.121
0.128
0.033
0.032
0.089
-0.069
0.058
0.033
0.027
-0.009
0.073
0.033
-0.018
0.146
-0.001
0.064
-0.029
-0.020
0.077
0.007
0.122
0.013
-0.123
-0.039
0.083
0.176
0.036
-0.067
-0.115
0.082
0.053
0.040
0.060
-0.052
0.027
0.083
0.094
-0.074
-0.026
0.128
0.017
-0.011
0.043
0.024
0.142
-0.046
0.082
0.036
-0.015
-0.062
0.076
0.025
0.024
0.106
0.127
-0.047
-0.096
-0.016
-0.034
0.030
0.039
0.011
0.051
0.041
0.026
0.042
0.017
0.028
0.023
0.024
-0.027
0.042
-0.064
-0.009
0.125
-0.002
-0.030
0.014
0.054
-0.029
0.050
0.016
-0.007
-0.024
-0.022
0.078
0.065
0.069
-0.077
-0.003
0.078
0.012
0.065
0.052
0.019
0.079
-0.035
-0.007
0.041
0.023
-0.028
-0.048
-0.020
0.009
0.073
0.041
-0.080
0.041
0.013
0.067
-0.001
0.054
-0.016
0.026
-0.099
-0.066
0.108
0.038
0.133
0.070
-0.040
-0.007
0.090
-0.072
-0.017
0.012
0.035
-0.022
0.016
0.034
0.099
-0.028
0.070
0.081
0.009
0.040
0.041
-0.100
0.100
0.006
0.078
0.084
-0.015
0.142
-0.001
-0.198
0.078
0.036
-0.072
0.018
0.062
0.098
0.032
0.043
-0.031
0.035
-0.005
0.037
-0.025
0.142
0.024
0.105
-0.006
-0.084
-0.015
-0.016
0.007
0.062
0.011
0.103
-0.011
0.010
0.020
0.030
0.024
0.100
-0.070
0.010
0.067
0.126
0.035
0.024
0.028
-0.070
0.092
0.038
0.085
0.017
-0.163
0.071
0.023
0.137
0.107
-0.024
0.021
-0.142
0.069
0.055
0.132
-0.009
0.055
-0.066
-0.008
0.058
0.069
-0.104
-0.008
0.067
-0.016
-0.055
0.030
-0.114
0.184
0.308
0.120
-0.045
-0.179
-0.177
0.032
0.282
0.153
0.068
-0.163
-0.028
0.165
-0.119
0.046
0.093
-0.065
-0.086
0.016
0.052
-0.017
0.120
0.083
0.060
-0.048
-0.041
-0.154
0.133
0.071
0.120
0.007
-0.121
-0.044
0.087
0.011
0.130
0.010
-0.046
0.114
-0.021
0.008
0.000
0.077
-0.003
0.152
-0.119
0.035
-0.120
-0.005
0.041
0.078
0.038
0.040
-0.066
-0.001
0.044
-0.083
-0.001
0.145
0.066
0.037
0.145
0.008
0.108
0.039
-0.068
0.081
-0.023
0.068
-0.014
-0.031
-0.064
-0.105
0.023
0.067
0.090
0.049
0.073
-0.119
-0.033
-0.012
0.034
0.085
-0.076
0.012
0.069
0.053
0.160
-0.027
0.015
-0.047
-0.115
0.001
0.185
-0.023
-0.033
0.069
0.086
0.172
0.013
0.027
-0.114
0.043
-0.057
0.071
0.024
-0.031
0.079
-0.062
0.134
0.012
-0.008
0.002
-0.113
0.088
0.136
-0.040
0.048
0.115
-0.135
0.014
0.025
0.017
0.072
0.077
-0.030
-0.036
0.104
0.173
-0.100
-0.028
0.052
-0.068
-0.014
0.120
0.059
0.074
-0.091
-0.035
0.013
0.000
0.005
0.050
0.039
0.046
-0.009
-0.037
-0.091
-0.008
0.056
0.017
-0.061
0.111
0.104
-0.079
-0.023
0.031
0.027
-0.013
-0.073
0.112
-0.134
-0.002
0.157
-0.035
-0.128
0.131
0.017
0.070
0.051
-0.029
-0.041
0.059
0.002
0.051
0.059
0.036
0.003
-0.151
0.080
0.123
0.054
0.071
-0.010
-0.013
0.028
-0.006
-0.029
0.112
-0.077
0.070
-0.059
0.068
0.053
0.048
-0.022
0.045
-0.023
-0.016
-0.069
0.087
0.050
0.049
-0.039
0.016
-0.043
0.088
-0.001
0.025
0.128
0.023
0.046
0.117
0.004
-0.037
0.080
0.089
-0.071
-0.033
0.187
0.051
0.013
-0.066
0.101
0.005
-0.044
-0.077
0.077
-0.058
0.218
-0.035
0.053
0.039
-0.107
-0.025
-0.200
-0.024
0.115
0.110
0.178
-0.015
-0.002
0.134
0.175
0.075
0.073
-0.057
0.009
-0.037
0.053
0.096
0.045
-0.002
0.160
-0.028
0.064
-0.099
-0.063
-0.013
-0.009
-0.075
-0.055
-0.072
-0.001
0.098
0.013
0.133
-0.063
-0.026
0.014
0.046
-0.017
-0.007
0.152
-0.002
0.087
-0.059
-0.024
-0.159
0.090
0.020
0.079
0.002
0.057
-0.041
0.005
0.092
-0.062
-0.043
-0.020
0.006
0.016
0.031
-0.000
0.027
0.068
0.101
-0.039
-0.066
0.103
-0.062
-0.007
0.137
0.046
-0.083
0.053
0.042
-0.022
0.023
-0.124
0.021
0.180
-0.041
0.019
0.023
-0.009
0.001
-0.036
0.070
-0.043
0.062
-0.034
-0.048
-0.010
-0.040
0.045
0.029
0.092
0.001
0.083
-0.045
0.114
0.002
0.061
-0.030
0.134
-0.008
-0.068
-0.045
-0.190
0.023
0.195
0.244
0.046
0.123
0.114
-0.074
-0.029
-0.073
0.005
0.148
0.090
0.110
0.062
-0.049
0.035
0.042
0.042
-0.085
-0.064
-0.057
0.046
0.068
-0.060
0.005
-0.062
0.052
0.028
0.048
-0.019
0.094
0.023
0.043
0.037
0.005
-0.078
0.042
0.015
0.021
0.077
0.067
0.059
-0.068
0.083
0.118
-0.076
-0.003
0.026
-0.043
0.114
0.010
0.010
0.094
0.059
-0.060
-0.033
0.044
0.019
-0.060
0.079
0.054
-0.050
0.090
0.045
0.064
-0.052
0.069
0.038
-0.044
0.068
-0.026
0.004
0.131
-0.143
0.022
0.016
-0.034
0.001
0.112
-0.062
-0.042
0.022
0.073
-0.063
0.134
-0.000
-0.050
0.123
0.083
0.032
-0.041
-0.082
-0.016
-0.021
-0.087
0.008
0.147
0.034
0.031
0.052
0.037
-0.157
0.020
0.028
-0.009
-0.003
0.198
0.171
0.057
-0.100
-0.139
0.016
0.055
0.155
0.129
-0.047
-0.030
0.088
0.068
0.041
0.128
-0.156
-0.055
0.080
-0.052
0.051
0.080
-0.043
-0.062
-0.013
0.036
0.064
0.031
-0.083
0.072
-0.007
-0.037
0.020
-0.082
0.157
0.189
-0.117
0.008
0.045
0.076
-0.015
0.103
-0.114
0.081
0.083
0.016
0.003
0.162
-0.153
0.055
0.175
-0.059
-0.023
-0.069
-0.018
0.031
0.048
-0.049
0.018
-0.043
0.050
0.049
0.030
-0.126
-0.070
0.168
0.209
0.120
0.084
0.071
-0.104
0.085
0.009
-0.042
0.106
0.059
0.017
0.133
0.087
-0.112
-0.048
0.045
-0.066
0.063
-0.055
-0.007
-0.184
0.045
0.300
0.126
0.005
-0.062
0.047
-0.173
-0.370
0.329
0.278
0.070
-0.158
0.189
0.368
0.138
-0.024
-0.018
-0.235
0.065
0.005
0.152
0.073
0.014
0.132
-0.002
0.053
-0.128
0.016
-0.010
0.103
0.011
-0.040
0.040
0.105
0.018
0.011
-0.041
0.119
0.157
-0.001
0.016
-0.071
0.121
0.032
-0.028
0.011
0.063
0.000
0.017
-0.037
0.103
-0.020
0.023
-0.002
0.068
-0.019
0.038
0.003
-0.098
-0.016
0.001
0.180
0.113
0.035
0.045
0.011
-0.101
0.030
0.154
0.047
0.044
-0.010
-0.002
0.041
0.083
-0.132
-0.261
-0.372
0.173
0.584
0.340
-0.068
-0.478
-0.253
0.206
0.194
-0.312
-0.036
0.552
0.475
0.108
-0.411
0.126
0.126
-0.081
-0.063
0.137
-0.030
0.129
-0.170
-0.269
0.292
0.028
-0.022
0.001
0.057
-0.063
-0.089
-0.046
-0.054
-0.083
-0.071
0.272
0.322
0.048
-0.358
-0.078
0.018
0.091
0.191
0.067
0.059
-0.047
0.031
0.096
0.118
0.135
0.094
0.200
0.175
0.011
-0.029
-0.019
-0.007
0.026
-0.019
-0.032
0.051
0.032
0.002
-0.003
-0.098
-0.032
-0.007
0.060
-0.009
0.048
0.138
0.010
-0.084
-0.026
0.098
0.053
0.163
0.007
0.005
-0.055
-0.024
0.053
0.124
0.131
0.143
-0.039
-0.028
-0.062
-0.057
0.041
0.050
0.096
0.025
0.020
0.058
-0.029
0.071
0.094
0.015
-0.085
0.066
-0.007
0.014
0.106
-0.020
0.044
-0.037
-0.048
-0.128
-0.009
-0.029
0.119
-0.269
0.009
0.161
0.161
-0.071
-0.078
0.096
-0.053
0.113
0.272
0.235
-0.014
0.032
0.036
0.132
-0.061
0.092
0.141
-0.064
0.001
0.104
-0.109
-0.162
0.032
-0.297
-0.183
0.076
0.045
0.024
0.132
0.173
0.112
0.016
0.085
0.012
0.027
0.039
0.183
0.133
0.105
-0.008
0.056
0.029
0.076
0.050
-0.039
-0.044
-0.036
-0.035
0.019
-0.091
0.020
0.066
0.035
0.056
-0.028
0.034
-0.037
0.028
0.059
-0.031
0.054
-0.129
0.120
-0.001
-0.040
-0.037
0.133
0.111
-0.026
0.119
0.082
-0.074
0.253
-0.044
-0.034
0.010
-0.020
0.048
0.097
-0.072
0.070
-0.013
0.014
0.002
-0.055
-0.027
0.095
0.096
-0.006
-0.064
0.068
-0.067
0.102
0.116
0.005
-0.072
-0.013
-0.037
0.240
-0.078
-0.181
0.029
-0.041
-0.003
0.034
0.068
0.005
0.004
-0.052
-0.036
0.101
0.007
0.046
-0.098
0.008
0.093
-0.033
0.038
-0.001
0.183
-0.012
0.076
-0.016
-0.053
0.091
-0.103
-0.014
0.024
-0.013
0.075
0.053
0.147
-0.001
-0.005
0.002
0.025
-0.019
-0.092
0.027
0.123
0.004
0.012
0.113
-0.015
0.013
-0.024
0.026
0.092
0.081
-0.115
0.063
-0.036
-0.035
0.100
0.063
0.062
-0.028
0.045
0.084
-0.064
0.069
-0.030
0.017
0.033
-0.036
0.041
-0.048
0.069
-0.004
-0.164
0.124
0.091
0.037
0.008
-0.044
0.054
0.090
0.136
-0.020
-0.004
-0.095
0.066
0.025
0.021
-0.019
-0.059
-0.042
0.018
0.059
0.010
-0.054
0.047
0.063
0.036
0.015
0.016
-0.017
0.076
0.003
0.068
-0.052
0.055
0.046
-0.048
0.053
0.016
-0.092
0.074
-0.020
0.054
-0.073
0.056
0.095
0.003
0.023
-0.053
-0.060
-0.018
0.159
-0.001
-0.044
0.017
0.039
0.001
-0.029
-0.063
0.064
0.077
-0.011
0.084
0.126
-0.032
0.029
0.017
-0.002
-0.015
-0.030
0.011
0.110
0.047
0.014
0.072
-0.129
-0.007
0.146
0.069
-0.025
-0.101
0.011
0.128
0.045
0.013
-0.109
0.068
0.022
0.066
-0.004
0.079
0.055
-0.068
0.055
0.057
-0.013
-0.059
0.002
0.051
0.065
0.042
-0.046
0.021
-0.005
0.003
0.032
0.077
-0.050
0.032
0.100
-0.107
0.018
-0.015
0.099
0.145
-0.001
0.082
-0.054
-0.092
0.046
-0.055
-0.019
0.059
0.012
-0.048
0.099
0.035
-0.017
-0.004
0.026
0.135
-0.061
0.035
0.090
0.048
0.001
-0.050
-0.026
0.002
0.070
0.002
-0.017
0.043
0.107
-0.032
0.032
0.055
-0.041
-0.005
0.097
-0.108
-0.031
-0.035
0.073
0.065
0.021
0.079
-0.060
0.025
-0.015
0.064
0.169
0.038
-0.072
-0.106
-0.048
0.143
0.046
0.186
-0.062
-0.043
0.003
0.041
0.065
-0.068
-0.029
0.055
0.129
0.058
-0.060
0.109
0.076
0.021
0.083
0.037
0.091
-0.036
0.067
-0.055
-0.055
-0.072
0.024
0.036
0.138
0.024
-0.057
0.038
-0.028
0.031
0.024
0.086
0.029
0.022
-0.082
-0.007
0.006
0.031
0.136
0.127
0.015
0.052
-0.104
0.130
-0.067
0.086
-0.008
0.124
-0.035
-0.003
-0.019
0.089
0.049
0.055
-0.033
-0.071
-0.046
-0.010
0.108
0.031
0.073
-0.049
-0.105
0.051
0.083
0.037
0.083
-0.002
0.010
-0.055
-0.030
0.075
0.134
0.023
-0.030
-0.019
0.045
0.051
-0.089
-0.011
-0.027
0.090
0.074
-0.008
-0.016
0.141
-0.019
-0.026
-0.006
-0.122
0.003
0.131
0.165
-0.041
0.018
-0.015
0.109
-0.011
0.161
0.025
-0.001
-0.029
-0.017
0.000
0.024
-0.008
-0.007
0.095
-0.027
0.085
-0.004
0.006
-0.022
-0.061
0.105
0.009
0.067
-0.079
-0.037
0.006
0.079
0.007
-0.023
0.016
0.026
0.133
-0.020
-0.033
0.084
-0.024
-0.055
-0.016
0.098
0.066
0.066
-0.015
-0.116
0.086
0.014
0.054
0.031
0.007
-0.054
0.002
0.178
0.044
0.008
-0.070
-0.089
0.056
0.066
-0.031
0.039
0.132
-0.040
-0.040
0.136
-0.005
0.040
-0.035
0.049
0.108
-0.142
0.031
-0.030
-0.017
-0.043
0.122
-0.038
0.083
0.098
-0.050
-0.086
0.001
0.038
0.079
-0.053
0.121
0.065
-0.062
0.035
0.042
-0.013
0.014
0.141
-0.035
-0.002
0.073
-0.027
0.034
0.074
0.011
-0.017
-0.036
0.017
0.092
0.134
0.133
-0.048
0.020
0.045
0.025
0.100
-0.036
-0.084
0.075
0.001
0.100
0.101
-0.148
0.020
0.054
0.066
0.078
-0.039
0.107
0.096
-0.059
-0.094
-0.038
-0.030
-0.065
0.134
0.029
0.068
0.077
0.075
0.230
0.227
-0.053
-0.116
-0.061
0.014
-0.073
0.015
-0.006
0.123
0.092
0.020
0.064
0.025
-0.060
-0.090
0.019
0.012
-0.038
-0.021
0.112
-0.073
0.017
0.070
0.020
-0.097
0.042
0.126
0.064
-0.002
0.063
0.154
-0.067
-0.048
0.113
-0.020
0.061
0.001
0.076
0.078
0.039
0.003
-0.050
0.008
0.099
0.089
-0.098
0.054
-0.031
-0.090
-0.042
0.111
0.148
-0.053
-0.081
0.171
0.122
-0.075
0.104
0.010
-0.090
-0.027
0.054
0.019
0.083
0.005
-0.019
0.001
0.140
-0.029
-0.002
-0.101
0.045
-0.023
0.163
0.104
0.038
-0.056
-0.001
0.078
0.019
0.106
0.054
0.051
0.043
0.124
0.020
-0.035
0.069
0.088
0.087
0.015
0.060
-0.003
0.071
0.005
0.002
0.047
0.187
-0.028
0.051
0.005
0.026
0.094
0.003
0.073
-0.035
-0.022
0.014
0.091
-0.047
-0.066
-0.052
0.145
0.026
-0.046
0.056
0.114
-0.018
0.047
-0.017
0.108
-0.008
-0.050
0.028
0.140
-0.096
0.045
-0.042
-0.012
-0.021
0.129
0.131
-0.047
0.054
0.015
-0.018
0.079
0.087
0.055
0.066
-0.092
0.014
0.108
0.009
-0.015
0.109
-0.023
0.053
0.090
0.019
0.032
0.015
-0.095
-0.041
0.040
0.003
0.037
0.082
0.038
-0.062
-0.075
-0.003
0.051
0.077
0.053
0.027
-0.127
0.093
-0.064
-0.052
0.070
-0.028
0.079
0.136
-0.054
0.001
0.062
0.098
-0.015
0.050
0.068
0.072
-0.007
-0.028
-0.148
0.073
0.073
-0.034
0.016
-0.007
0.080
0.040
0.084
0.020
-0.049
-0.054
-0.122
0.163
0.121
0.195
0.020
-0.051
-0.080
-0.014
0.027
0.070
-0.020
0.013
0.078
0.132
0.025
-0.058
-0.026
-0.020
0.036
-0.002
0.055
0.084
-0.137
0.068
0.093
0.034
0.009
0.044
0.055
0.021
-0.079
0.004
-0.046
0.002
0.149
0.044
-0.148
0.083
-0.042
0.041
0.133
-0.142
0.096
0.121
0.043
-0.028
0.011
0.062
-0.036
-0.043
0.079
-0.040
-0.056
0.028
0.069
0.066
0.056
0.008
-0.068
0.087
-0.079
-0.027
0.033
0.026
0.017
0.079
0.014
-0.083
0.043
-0.006
-0.030
0.085
-0.020
0.192
0.010
-0.006
0.039
0.028
0.017
0.007
0.139
-0.033
0.049
0.118
-0.033
0.004
-0.026
-0.052
0.059
0.046
0.074
0.030
0.006
-0.087
-0.015
0.073
0.041
0.022
-0.012
-0.015
0.056
0.134
0.016
0.028
-0.007
-0.093
0.070
