0.160
0.230
0.176
-0.024
-0.076
-0.068
-0.039
-0.026
-0.028
0.074
0.216
-0.210
0.000
0.178
0.174
-0.058
-0.061
0.086
0.071
-0.004
-0.109
-0.044
0.072
0.086
-0.003
0.014
0.014
0.021
0.030
-0.005
0.041
0.041
0.070
-0.011
-0.010
0.075
-0.015
-0.002
0.032
0.092
0.031
0.071
0.009
0.054
-0.028
0.034
0.044
0.092
0.045
0.079
0.022
-0.066
0.069
0.083
0.655
0.359
-1.189
-0.757
0.377
0.738
0.397
0.115
-0.101
-0.129
-0.127
0.036
-0.023
0.041
0.048
0.186
0.068
0.067
0.047
0.024
0.010
-0.023
-0.049
0.014
0.023
0.085
-0.007
-0.062
-0.027
0.045
0.082
-0.025
0.075
0.059
-0.012
0.050
0.003
0.027
-0.011
-0.002
0.024
0.030
-0.023
0.044
0.039
0.040
0.061
0.038
0.055
0.053
0.048
-0.033
-0.017
0.021
0.101
0.007
0.081
-0.014
0.046
-0.004
0.073
0.199
-0.013
-0.262
-0.108
0.115
0.288
0.183
0.067
-0.046
-0.017
-0.037
0.070
0.005
0.050
0.071
0.003
0.058
0.062
0.025
0.039
0.098
0.038
-0.023
0.004
0.015
-0.010
-0.003
0.054
0.039
0.027
0.100
0.091
0.015
0.038
0.018
0.358
0.477
-0.214
-1.217
-0.326
0.599
0.573
0.397
0.097
-0.161
-0.176
-0.161
-0.014
0.075
0.096
0.122
0.100
0.089
0.111
0.050
-0.015
-0.055
-0.044
0.003
0.103
0.013
-0.019
-0.000
0.027
0.064
0.079
-0.088
0.025
0.084
0.018
0.104
0.002
0.034
0.020
0.011
-0.019
0.033
0.033
0.027
0.009
0.069
0.085
0.015
0.005
0.050
0.012
0.006
0.113
0.039
0.036
-0.102
0.031
0.061
0.044
0.024
0.011
0.267
0.039
-0.307
-0.262
0.005
0.250
0.208
-0.016
0.014
-0.046
-0.015
0.042
-0.083
-0.020
0.065
0.040
0.059
0.072
0.072
0.020
0.060
0.027
0.039
0.059
0.033
0.031
0.051
0.019
0.088
0.006
0.033
0.267
0.882
-0.854
-1.101
0.043
0.750
0.538
0.114
-0.075
-0.093
-0.109
-0.119
0.069
0.013
0.043
0.036
0.070
0.093
0.080
0.093
0.004
0.015
0.016
-0.018
0.065
0.025
0.067
-0.041
0.024
-0.007
0.077
-0.071
-0.021
0.026
0.119
0.155
0.060
0.053
-0.012
0.002
0.056
0.053
0.022
0.041
0.216
0.003
-0.149
0.006
0.072
0.075
-0.068
-0.003
0.197
0.064
0.008
-0.032
-0.088
0.093
0.064
-0.001
0.043
-0.019
0.037
0.091
-0.035
0.080
0.067
0.007
0.019
0.177
0.072
0.030
-0.033
-0.321
-0.191
0.241
0.243
0.153
0.054
-0.051
-0.034
0.014
0.004
-0.008
0.023
0.110
0.100
0.103
0.013
0.084
0.879
-0.340
-1.349
-0.214
0.600
0.639
0.310
0.016
-0.207
-0.169
-0.117
0.042
0.047
0.152
0.116
0.112
0.104
0.002
0.090
-0.017
0.015
0.075
0.002
-0.073
0.056
0.134
-0.008
-0.042
0.021
0.066
0.005
0.075
0.056
0.003
0.033
-0.005
0.037
0.117
0.005
-0.041
0.030
0.024
0.039
0.065
0.057
-0.016
0.033
0.008
0.011
-0.008
0.011
0.037
0.005
0.075
0.027
0.065
0.016
0.015
0.044
0.039
0.020
0.057
0.093
-0.002
0.036
-0.012
0.055
0.035
0.006
0.041
0.063
-0.006
0.011
0.034
0.010
0.026
0.046
0.035
0.048
0.064
0.028
0.043
0.045
0.003
0.003
0.009
-0.025
0.029
0.056
0.055
0.096
0.046
0.030
-0.031
-0.017
-0.001
-0.001
-0.015
0.159
0.274
0.039
-0.295
-0.336
0.179
0.989
-0.118
-1.261
-0.196
0.562
0.558
0.166
0.067
-0.075
-0.397
-0.145
0.187
0.178
-0.075
0.090
0.178
0.197
0.014
-0.041
-0.027
0.051
0.108
0.002
-0.016
-0.054
0.022
-0.054
0.056
0.079
0.088
0.032
-0.006
0.009
0.004
0.059
0.067
0.036
0.029
-0.019
-0.052
0.085
0.092
0.052
0.033
-0.029
-0.040
0.006
0.002
0.008
0.116
-0.021
0.019
0.102
0.071
0.063
-0.041
-0.097
0.043
0.080
0.121
0.013
0.021
0.098
0.046
-0.002
0.031
0.043
-0.068
0.007
0.077
0.014
-0.000
0.005
0.055
0.003
0.028
-0.013
0.128
0.065
-0.037
-0.017
0.019
0.050
0.100
0.065
0.037
0.015
-0.055
0.063
0.090
-0.009
-0.007
0.037
0.034
0.075
0.062
0.019
0.041
0.041
0.010
-0.002
0.004
0.016
0.531
0.614
-1.083
-0.846
0.270
0.751
0.386
0.114
0.000
-0.116
-0.138
-0.123
-0.060
0.091
0.036
0.159
0.142
0.021
0.035
0.019
0.111
0.194
0.085
-0.248
-0.255
-0.063
0.167
0.180
0.101
0.069
-0.151
-0.082
-0.020
-0.032
0.044
0.152
0.053
0.025
0.102
0.083
0.025
0.023
0.041
-0.010
0.043
-0.044
0.056
0.045
0.002
0.010
-0.035
0.017
0.053
0.037
-0.020
0.009
0.088
0.108
0.098
0.008
0.031
-0.029
0.024
-0.020
0.022
0.063
0.053
0.054
0.001
-0.035
0.016
0.047
0.015
-0.032
0.042
0.020
0.141
0.004
-0.013
-0.029
0.026
0.057
0.084
-0.047
0.012
0.056
0.017
0.037
0.031
0.052
0.019
0.074
0.018
0.022
0.069
0.046
0.001
0.036
0.031
0.017
0.004
0.046
0.006
-0.016
0.076
0.030
0.021
0.086
0.373
0.530
-1.007
-0.955
0.273
0.830
0.558
0.101
-0.101
-0.161
-0.095
-0.018
-0.022
0.065
0.038
0.142
0.113
0.001
0.042
0.137
0.086
-0.079
-0.019
0.002
0.005
0.021
0.029
-0.052
0.055
0.024
0.063
0.080
0.150
0.147
-0.259
-0.270
0.081
0.266
0.164
0.130
-0.057
-0.022
-0.000
-0.044
0.045
0.007
0.049
-0.016
0.139
0.085
-0.019
0.022
-0.026
-0.010
0.120
0.073
0.019
-0.055
0.031
0.058
0.066
0.003
-0.011
0.128
0.027
-0.009
0.161
-0.047
-0.137
-0.018
0.201
0.014
-0.125
0.079
0.143
0.043
-0.000
-0.006
0.015
0.042
0.008
0.002
0.073
0.022
0.023
0.083
0.066
0.164
0.765
-0.607
-1.334
-0.119
0.799
0.548
0.196
-0.071
-0.123
-0.138
-0.053
0.031
0.034
0.054
0.086
0.171
0.073
0.062
-0.031
-0.021
0.025
0.049
-0.028
-0.011
0.065
0.037
-0.007
-0.022
-0.004
0.066
0.085
0.085
-0.079
-0.033
-0.003
0.120
0.138
0.076
-0.061
-0.110
0.057
0.018
0.045
0.014
0.082
0.052
0.068
0.006
-0.000
0.030
-0.044
0.090
0.066
0.014
-0.020
0.005
0.013
0.078
0.041
-0.005
0.117
0.084
0.048
0.196
-0.010
-0.288
-0.280
0.049
0.271
0.167
0.108
0.051
-0.088
0.037
-0.016
-0.036
0.085
0.051
0.074
-0.013
0.148
0.048
0.050
-0.005
-0.017
0.020
0.013
0.107
-0.015
0.086
0.020
-0.002
0.029
0.008
0.074
0.012
-0.087
-0.006
0.095
0.089
0.102
0.009
-0.007
-0.027
0.110
-0.050
0.077
0.015
0.051
0.052
0.169
-0.025
-0.077
0.076
0.041
0.111
0.023
-0.027
0.004
0.052
-0.062
0.019
0.087
0.819
-0.021
-1.367
-0.347
0.553
0.649
0.320
-0.006
-0.086
-0.106
-0.058
0.030
-0.012
0.046
0.041
0.136
0.098
0.037
-0.020
0.098
0.023
0.046
0.042
0.018
-0.070
0.054
0.001
-0.026
0.135
0.080
0.044
0.026
-0.013
0.022
-0.008
0.061
0.059
0.097
0.061
0.003
0.002
-0.055
0.040
0.044
0.031
0.007
0.061
0.007
0.086
0.061
-0.006
0.078
0.279
-0.039
-0.295
-0.196
0.102
0.308
0.135
0.053
0.020
-0.051
-0.069
-0.005
0.052
0.092
0.036
-0.036
0.029
0.123
0.096
-0.013
0.024
-0.008
0.016
0.094
0.001
0.004
0.072
0.047
-0.005
-0.019
0.019
0.018
0.050
0.063
0.027
-0.019
0.025
0.102
0.053
-0.050
0.010
0.016
0.021
-0.009
0.049
0.029
0.012
0.011
-0.085
0.050
0.039
0.020
-0.011
0.074
-0.015
0.038
0.083
0.031
-0.000
-0.003
0.047
0.720
0.083
-1.271
-0.447
0.489
0.675
0.310
-0.045
-0.071
-0.132
0.042
-0.023
0.020
-0.013
0.035
0.090
0.111
0.079
0.061
0.042
-0.020
0.016
0.048
0.002
-0.013
0.035
-0.002
0.025
0.057
-0.033
0.004
-0.006
0.050
0.089
0.065
-0.012
-0.024
0.016
0.065
0.062
0.049
0.058
-0.015
0.081
0.021
0.010
0.061
0.048
-0.029
0.003
0.025
0.060
0.081
0.016
0.045
-0.009
0.056
0.030
0.039
0.033
0.034
0.012
0.040
-0.010
0.060
0.111
0.010
0.138
0.228
-0.100
-0.386
-0.076
0.168
0.276
0.278
0.020
-0.032
-0.047
-0.055
-0.047
0.046
-0.007
0.034
0.095
0.094
0.008
0.033
0.096
0.021
0.045
0.007
-0.007
0.055
0.021
-0.053
0.064
0.063
-0.043
0.009
-0.022
0.073
0.011
0.039
-0.051
0.022
0.010
0.030
0.030
0.026
0.112
0.036
0.019
-0.050
0.028
0.052
0.083
0.101
0.116
0.071
-0.031
0.409
0.651
-1.071
-0.928
0.266
0.619
0.530
0.078
-0.054
-0.037
-0.079
-0.065
-0.015
0.022
0.168
0.021
0.060
0.081
0.119
0.003
0.040
0.120
0.017
0.048
-0.007
-0.020
0.021
0.038
-0.012
0.012
0.050
0.022
0.071
0.025
0.010
0.080
0.075
0.002
-0.014
0.056
0.024
0.046
0.038
0.092
0.077
0.090
0.030
-0.006
0.085
0.027
0.017
0.009
0.012
0.022
0.075
0.079
0.033
0.045
-0.004
-0.038
0.013
0.042
-0.001
0.122
0.047
0.022
0.023
0.033
0.017
0.017
0.072
0.090
0.107
-0.051
0.109
0.218
-0.014
-0.273
-0.208
0.097
0.216
0.202
0.054
-0.025
-0.091
-0.024
-0.035
0.019
-0.011
0.109
0.078
0.055
0.055
0.015
0.013
-0.004
0.031
0.029
0.104
0.054
-0.028
0.041
-0.021
0.101
0.049
-0.031
-0.013
0.036
-0.003
0.221
0.823
-0.642
-1.320
0.023
0.742
0.310
0.197
0.065
-0.012
-0.225
-0.169
0.066
0.084
0.058
0.117
0.048
0.034
0.061
0.066
0.085
0.108
-0.022
-0.053
0.023
0.114
-0.031
0.022
0.024
-0.016
0.063
0.012
0.062
0.070
0.042
0.002
0.087
0.037
0.035
0.043
0.069
-0.031
-0.007
0.036
0.042
-0.050
0.065
0.109
0.023
0.020
-0.020
-0.037
0.080
0.088
0.028
0.075
0.033
0.023
0.037
-0.012
0.048
0.005
0.049
0.199
0.231
-0.162
-0.312
-0.163
0.256
0.198
0.126
-0.005
0.035
0.001
0.051
0.005
0.004
0.042
0.026
0.057
-0.009
0.119
0.028
0.021
-0.013
0.044
0.042
0.040
0.029
0.022
0.004
-0.007
0.047
0.027
0.089
0.090
0.043
0.036
-0.055
-0.059
0.050
0.067
0.112
0.046
-0.019
0.030
0.037
0.460
0.485
-1.121
-0.780
0.297
0.710
0.422
0.109
-0.044
-0.139
-0.074
-0.107
-0.061
0.059
0.071
0.092
0.045
-0.008
0.131
0.045
0.049
-0.021
0.004
0.031
0.016
0.024
-0.002
0.047
0.061
0.062
0.026
-0.003
0.021
-0.032
0.015
0.071
0.048
0.065
-0.004
0.005
0.001
0.063
-0.016
0.043
0.038
0.051
0.053
0.339
-0.179
-0.212
0.019
0.159
0.083
-0.083
0.062
0.245
0.015
-0.017
-0.073
0.002
0.036
0.023
0.052
0.120
0.116
0.251
-0.160
-0.318
-0.064
0.159
0.263
0.129
0.118
-0.102
-0.055
-0.002
-0.012
0.046
0.049
-0.003
0.110
0.049
0.077
0.012
0.007
0.024
-0.003
-0.023
0.031
-0.036
0.124
0.032
0.051
-0.027
0.026
-0.020
0.072
0.013
0.006
0.125
0.012
0.039
0.047
-0.012
0.014
0.000
-0.038
0.074
0.159
0.047
0.303
0.681
-1.081
-1.026
0.340
0.760
0.489
0.116
-0.113
-0.201
-0.149
-0.035
0.015
0.066
0.086
0.051
0.083
-0.003
0.101
0.116
-0.027
0.048
-0.014
0.024
-0.008
0.076
0.048
0.021
-0.044
0.027
0.031
-0.023
0.034
0.001
0.083
-0.068
-0.054
-0.069
0.073
0.074
0.077
-0.004
-0.019
0.019
0.056
0.047
0.005
0.085
0.027
-0.044
0.037
0.025
0.037
0.003
0.190
0.230
-0.138
-0.293
-0.061
0.219
0.173
0.091
0.062
-0.050
0.018
-0.036
0.041
-0.024
0.059
0.066
0.019
0.078
0.068
0.099
-0.008
0.036
-0.016
0.003
0.037
0.022
0.060
-0.008
0.049
0.046
0.032
-0.046
0.020
0.049
0.060
0.069
0.038
0.030
0.046
-0.008
-0.018
0.059
0.052
-0.052
-0.012
0.096
0.105
-0.019
0.084
0.014
0.065
0.742
0.086
-1.401
-0.425
0.503
0.669
0.314
0.017
-0.212
-0.201
-0.046
0.016
0.038
0.087
0.036
0.110
0.137
0.031
0.068
0.068
0.034
-0.010
0.005
0.017
-0.019
0.022
-0.021
-0.041
0.003
0.048
0.071
0.178
0.120
-0.241
-0.177
0.097
0.149
-0.014
0.045
0.178
0.089
-0.015
-0.051
-0.011
0.004
0.029
0.065
0.192
0.208
-0.150
-0.337
-0.052
0.197
0.179
0.039
-0.002
0.026
-0.032
0.014
0.009
0.020
-0.018
0.077
0.101
0.066
0.039
0.063
-0.020
0.043
-0.001
0.054
0.032
-0.046
0.040
-0.010
0.131
0.001
0.020
-0.001
0.022
0.045
0.022
0.041
0.009
0.091
0.017
0.033
0.016
0.019
0.047
0.051
0.004
0.077
0.101
0.041
0.081
-0.088
0.025
0.016
0.066
0.005
0.022
0.717
0.358
-1.381
-0.630
0.317
0.770
0.482
0.068
-0.170
-0.093
-0.097
-0.061
0.008
-0.014
0.111
0.093
0.073
0.098
0.101
0.116
0.029
0.009
-0.004
-0.013
-0.017
0.081
0.060
-0.025
0.009
0.002
-0.026
0.105
0.030
0.000
-0.014
0.135
-0.045
0.054
0.049
0.028
0.057
-0.033
-0.008
0.003
0.040
0.015
0.022
-0.018
0.030
0.098
0.140
0.233
-0.006
-0.352
-0.221
0.193
0.245
0.109
0.020
0.004
-0.060
-0.027
0.021
-0.009
0.088
0.049
0.062
0.053
0.020
0.021
0.110
0.075
0.031
0.006
-0.026
-0.025
0.009
-0.023
0.022
0.008
0.017
0.082
0.068
0.071
0.005
-0.048
0.008
-0.055
0.069
-0.025
0.129
0.082
-0.017
0.001
-0.052
0.028
0.090
0.250
0.851
-0.451
-1.322
-0.203
0.657
0.569
0.276
-0.015
-0.139
-0.185
-0.047
0.029
-0.030
0.026
0.052
0.112
0.052
0.066
0.105
0.150
-0.018
-0.038
-0.106
-0.012
-0.007
-0.001
0.040
0.027
0.053
-0.026
0.045
0.080
0.121
0.054
-0.068
0.006
-0.007
0.089
0.082
0.013
0.032
-0.042
0.093
0.035
0.001
-0.011
-0.030
0.082
0.051
0.014
0.062
0.022
-0.023
0.024
0.001
0.081
0.064
-0.031
0.206
0.262
-0.196
-0.370
-0.138
0.174
0.226
0.274
0.119
-0.045
-0.055
-0.081
-0.002
0.057
0.033
0.019
0.043
-0.011
0.076
0.068
0.060
0.027
0.015
0.010
0.008
0.077
0.004
0.015
-0.019
0.042
0.247
-0.188
-0.193
0.079
0.277
0.005
-0.084
0.127
0.099
-0.011
0.010
-0.073
0.042
0.022
0.025
0.035
0.027
0.047
0.067
0.000
-0.023
0.160
0.879
-0.399
-1.278
-0.153
0.733
0.611
0.248
-0.041
-0.237
-0.200
-0.043
-0.043
0.045
0.098
0.119
0.037
0.017
0.091
0.120
0.086
0.067
0.027
0.062
-0.068
-0.113
-0.028
0.098
0.079
0.028
-0.050
0.007
0.090
-0.007
-0.016
0.012
0.046
0.076
0.030
-0.060
0.082
0.053
0.060
-0.012
0.032
0.005
0.091
0.148
-0.011
-0.036
-0.001
0.012
0.005
0.035
-0.004
0.002
0.122
0.025
0.039
0.066
0.091
0.197
-0.179
-0.355
-0.100
0.159
0.366
0.161
0.022
0.016
-0.028
0.032
-0.044
0.031
0.042
0.079
-0.046
0.068
0.085
0.054
0.004
-0.043
-0.027
0.040
0.015
0.055
0.061
0.037
0.007
-0.055
0.107
0.068
0.074
0.033
-0.003
0.100
0.008
-0.038
0.050
-0.013
0.047
0.106
0.074
0.031
-0.003
0.015
-0.033
0.050
0.102
0.090
0.004
0.039
0.042
0.029
-0.030
-0.004
0.035
0.029
0.055
0.627
0.294
-1.287
-0.583
0.484
0.759
0.301
0.031
-0.173
-0.192
0.005
-0.000
-0.007
0.014
0.098
0.161
0.055
0.046
0.069
0.131
0.076
0.015
0.021
0.033
-0.046
-0.022
-0.006
0.087
0.062
0.029
0.029
-0.004
0.013
0.087
-0.047
0.059
0.052
0.060
0.076
0.091
0.052
-0.024
-0.104
0.007
0.062
0.111
0.011
0.022
0.025
0.050
0.080
0.239
-0.021
-0.341
-0.171
0.121
0.279
0.142
0.163
-0.007
-0.035
0.002
-0.033
-0.002
0.022
0.059
0.069
0.068
0.104
0.117
0.005
0.020
0.020
0.101
-0.043
-0.026
-0.002
-0.018
0.055
0.049
-0.018
0.027
0.067
0.011
-0.023
-0.024
0.008
0.040
0.089
0.056
0.048
0.091
-0.016
-0.033
0.049
0.036
0.047
0.016
0.067
0.029
0.114
0.002
0.045
0.029
0.074
0.262
0.722
-0.852
-1.093
0.192
0.654
0.434
0.185
-0.069
-0.140
-0.074
-0.188
-0.302
0.065
0.283
0.158
-0.017
0.057
0.170
0.119
0.038
0.020
-0.097
-0.041
0.083
0.015
0.040
-0.034
0.014
-0.007
0.021
-0.002
0.005
0.094
0.074
0.022
-0.002
0.062
0.019
0.012
-0.023
0.036
-0.017
0.055
0.072
0.015
-0.027
-0.005
0.067
0.108
0.058
-0.014
0.013
0.036
0.069
0.228
-0.038
-0.283
-0.147
0.060
0.239
0.194
0.078
0.004
0.011
0.015
0.049
-0.029
-0.081
0.027
0.116
0.081
0.039
0.122
-0.033
-0.008
-0.016
0.001
0.041
0.092
0.063
0.039
-0.041
0.015
0.046
-0.003
0.007
0.092
-0.017
0.025
0.024
0.015
0.033
0.072
0.019
0.043
0.026
0.057
-0.006
0.129
0.059
0.011
-0.007
0.040
0.044
0.071
0.069
-0.061
0.095
0.037
-0.001
-0.034
-0.031
0.011
0.103
0.066
0.025
-0.003
0.083
0.105
-0.038
0.019
0.081
0.010
0.025
0.053
-0.006
-0.012
0.033
0.426
0.593
-1.023
-0.892
0.187
0.769
0.482
0.099
-0.119
-0.205
-0.168
-0.015
-0.003
0.137
0.130
0.071
0.000
0.063
0.048
0.001
0.038
0.066
0.054
0.060
0.043
-0.032
0.005
-0.001
0.026
0.060
0.061
0.074
0.012
0.102
0.272
-0.188
-0.331
-0.084
0.173
0.179
0.134
0.061
-0.030
-0.031
-0.042
0.051
-0.003
0.034
0.044
0.073
0.020
0.079
0.052
0.069
0.071
0.010
0.056
-0.030
0.018
0.099
0.045
-0.016
-0.040
0.100
-0.025
0.084
0.013
0.076
0.003
-0.057
0.023
0.054
0.071
0.017
0.020
-0.059
0.069
0.098
-0.012
0.000
0.052
0.054
0.014
0.020
0.015
0.146
-0.017
0.094
-0.019
0.049
-0.031
0.044
0.422
0.589
-1.020
-1.047
0.251
0.816
0.545
0.132
-0.145
-0.148
-0.140
-0.115
0.004
0.081
0.170
0.107
0.092
0.055
-0.008
0.078
-0.048
0.059
-0.013
0.042
0.045
-0.026
-0.019
0.010
-0.014
0.031
0.077
0.084
0.001
-0.064
0.001
0.077
0.073
0.093
0.068
-0.046
-0.029
-0.094
0.074
0.069
0.064
0.102
-0.002
-0.046
0.032
-0.013
0.029
0.091
0.064
-0.050
-0.042
0.046
0.102
0.312
0.021
-0.270
-0.236
0.083
0.218
0.193
0.029
-0.002
-0.010
-0.043
0.071
0.046
0.015
0.024
0.036
0.083
0.037
0.014
0.041
0.054
0.071
0.044
-0.002
-0.023
0.076
0.276
-0.154
-0.140
-0.039
0.094
0.007
-0.053
0.111
0.147
0.077
-0.052
0.018
0.017
0.015
0.018
0.053
0.067
0.002
-0.032
0.072
0.045
0.006
0.016
0.068
0.009
0.070
0.055
0.035
-0.021
-0.001
0.044
-0.003
0.028
0.048
0.049
0.033
0.385
0.621
-1.084
-0.886
0.280
0.690
0.491
0.079
-0.096
-0.140
-0.069
-0.105
-0.001
0.013
0.064
0.134
0.008
0.127
0.140
-0.010
0.040
-0.021
-0.016
-0.034
0.086
0.071
-0.042
0.032
-0.040
0.028
0.029
-0.002
0.064
0.041
0.036
-0.067
0.061
0.138
-0.003
-0.016
-0.009
-0.028
0.014
0.154
-0.002
0.026
0.077
0.002
0.154
0.127
-0.284
-0.246
-0.047
0.238
0.218
0.157
-0.040
-0.038
-0.062
0.082
-0.039
0.062
0.037
0.006
0.099
0.096
-0.021
0.105
0.044
0.042
0.024
0.022
-0.023
0.059
-0.033
0.019
0.160
0.064
0.042
0.021
-0.008
0.012
0.065
0.116
0.009
0.039
0.022
0.031
0.056
0.024
0.049
0.029
0.123
0.029
0.039
-0.046
-0.044
0.068
0.045
0.036
0.074
0.090
0.026
0.003
0.009
-0.012
0.038
0.086
0.002
0.054
0.053
0.043
0.066
0.003
-0.069
-0.033
0.006
0.020
0.064
0.118
0.811
-0.160
-1.312
-0.307
0.471
0.705
0.278
-0.014
-0.074
-0.107
-0.078
-0.027
0.078
0.037
0.060
0.078
0.236
0.047
0.026
0.013
-0.001
-0.032
0.035
0.027
0.042
-0.053
0.039
-0.042
0.027
0.117
0.053
0.009
-0.011
0.002
-0.012
-0.023
0.083
0.048
-0.097
0.009
0.034
0.016
0.026
0.192
0.223
-0.151
-0.411
-0.065
0.133
0.263
0.183
0.119
-0.052
0.001
-0.051
0.053
-0.059
0.013
0.050
0.111
0.029
0.032
0.031
-0.014
0.091
0.082
-0.005
0.076
-0.001
-0.013
0.010
0.133
-0.017
-0.023
0.016
0.045
-0.006
0.020
-0.032
0.074
0.122
-0.005
0.031
-0.002
0.009
0.000
0.061
0.081
0.060
0.068
-0.014
-0.001
0.031
0.038
0.022
0.097
0.025
0.012
0.017
0.035
0.020
0.124
-0.014
-0.008
-0.019
0.077
0.048
0.087
0.147
0.775
-0.588
-1.245
-0.048
0.714
0.517
0.206
-0.107
-0.239
-0.144
-0.048
0.049
0.027
0.049
0.074
0.002
0.089
0.119
0.070
0.068
0.032
0.010
-0.035
0.012
-0.004
-0.053
0.052
0.029
-0.011
0.002
-0.048
0.042
0.087
0.031
-0.026
0.054
0.089
0.069
0.017
0.026
-0.010
0.018
0.042
0.058
-0.051
0.109
0.197
-0.097
-0.285
-0.129
0.162
0.207
0.105
0.017
-0.056
0.023
0.012
-0.034
0.071
0.019
0.010
0.021
0.069
0.009
0.082
0.033
0.009
0.064
-0.040
0.039
0.082
0.030
-0.005
-0.008
0.089
0.178
-0.310
0.011
0.158
0.112
-0.059
-0.062
0.096
0.119
0.050
-0.051
0.007
0.006
0.048
0.069
0.028
-0.010
0.081
0.341
0.662
-0.912
-1.010
0.247
0.656
0.496
0.121
-0.114
-0.144
-0.071
-0.030
0.010
0.039
0.017
0.097
0.128
0.090
0.063
-0.040
0.049
0.039
0.068
0.000
0.023
0.002
-0.007
-0.003
0.008
0.040
-0.007
0.020
0.078
0.016
-0.024
0.027
0.059
0.063
-0.009
0.058
-0.053
0.055
0.066
0.097
0.003
-0.076
0.074
0.015
0.024
0.004
0.045
0.069
0.127
0.150
-0.270
-0.285
0.146
0.180
0.167
0.144
-0.067
0.021
-0.084
0.020
0.028
0.014
0.041
0.105
0.002
0.062
0.049
0.043
0.064
0.118
0.047
0.023
-0.001
-0.025
0.018
0.023
0.088
0.029
0.060
0.039
-0.026
0.049
-0.022
0.019
-0.051
-0.016
0.069
0.107
0.034
0.056
0.099
-0.026
-0.007
-0.015
0.109
0.830
-0.228
-1.266
-0.256
0.662
0.646
0.218
-0.050
-0.122
-0.141
-0.064
0.029
0.044
0.058
0.100
0.073
0.084
0.053
0.066
0.037
0.075
-0.034
0.051
-0.012
0.036
0.004
0.041
0.040
0.012
0.025
0.057
0.012
0.029
-0.003
0.053
0.018
0.054
0.017
0.058
0.041
0.037
0.037
0.043
0.027
-0.041
0.055
-0.052
0.045
0.066
0.089
0.078
-0.062
-0.018
-0.032
-0.015
0.050
0.071
0.053
-0.016
-0.000
0.080
0.111
0.209
-0.173
-0.405
-0.016
0.196
0.188
0.110
0.093
-0.026
-0.023
-0.003
0.033
-0.006
0.033
0.054
0.037
0.023
-0.004
0.078
0.112
0.023
0.024
0.104
-0.018
-0.110
-0.025
0.044
0.076
0.009
-0.004
0.026
0.032
0.046
-0.011
-0.023
-0.004
0.045
-0.002
0.107
-0.003
0.003
0.086
0.005
0.016
-0.002
0.079
0.011
0.088
-0.030
0.094
-0.025
0.048
0.043
0.104
0.013
-0.057
0.030
0.008
0.067
0.071
0.063
0.084
-0.020
0.346
0.492
-1.076
-0.800
0.379
0.688
0.513
0.058
-0.097
-0.130
-0.111
-0.088
-0.029
0.165
0.098
0.076
0.069
0.092
0.037
0.036
0.018
0.022
-0.014
0.113
-0.046
-0.030
-0.064
0.040
0.144
0.066
0.023
0.008
-0.012
-0.009
0.098
0.047
0.089
0.024
0.007
0.057
-0.026
0.004
0.008
0.079
0.055
0.031
-0.017
0.043
0.039
0.073
-0.026
-0.012
0.140
0.231
-0.029
-0.317
-0.188
0.121
0.237
0.193
0.113
0.068
-0.070
-0.070
0.019
0.005
0.045
0.057
0.048
-0.017
0.048
0.124
0.084
-0.011
0.045
0.003
-0.005
0.057
-0.053
-0.003
0.043
0.034
0.098
-0.053
0.023
0.073
-0.001
0.079
0.004
-0.003
0.005
0.086
0.164
-0.011
0.063
0.036
0.020
-0.017
0.135
0.869
-0.348
-1.160
-0.305
0.616
0.581
0.258
0.022
-0.100
-0.144
-0.101
-0.083
-0.019
0.150
0.132
0.088
0.275
-0.170
-0.037
0.098
0.065
-0.001
-0.063
0.080
0.094
0.012
0.030
-0.056
-0.025
0.015
0.023
0.106
0.058
0.011
0.155
0.042
0.006
0.009
0.001
0.059
0.086
0.011
0.063
0.077
0.059
0.001
0.006
0.001
0.059
-0.096
0.064
0.044
0.057
0.012
-0.017
0.060
0.066
0.054
0.040
0.013
-0.027
-0.005
0.030
0.045
0.073
0.024
0.093
0.054
-0.087
0.013
0.065
0.041
0.177
0.158
-0.290
-0.266
0.138
0.203
0.251
-0.002
-0.017
-0.000
-0.033
-0.003
-0.016
0.018
0.060
0.072
0.061
0.024
0.069
0.113
-0.008
0.088
0.025
-0.032
0.023
0.026
0.013
-0.002
0.034
0.106
0.121
0.019
-0.008
-0.004
0.014
0.037
0.010
0.027
0.762
0.076
-1.286
-0.332
0.499
0.632
0.284
-0.065
-0.107
-0.127
-0.113
-0.015
0.041
0.009
0.117
0.095
0.043
0.057
0.047
0.040
-0.003
0.093
-0.028
0.009
0.068
-0.084
0.019
-0.064
0.132
0.087
-0.008
0.072
-0.036
0.009
0.082
0.043
0.026
0.084
0.007
0.017
0.078
-0.028
0.039
-0.004
0.130
-0.027
0.097
0.012
0.011
0.028
0.033
0.056
0.012
-0.046
-0.025
0.076
0.012
0.035
0.047
0.081
0.007
-0.032
0.051
0.028
-0.014
0.129
0.018
-0.031
0.051
0.034
-0.007
-0.011
-0.018
0.074
0.030
0.032
0.006
0.068
0.064
-0.012
0.020
0.076
0.051
0.067
0.075
0.038
-0.000
-0.000
0.046
0.052
0.030
0.034
-0.035
0.080
0.065
0.038
0.143
0.199
-0.198
-0.351
0.045
0.236
0.237
0.758
0.143
-1.256
-0.541
0.417
0.596
0.285
0.044
-0.075
-0.139
-0.118
0.002
0.080
0.066
0.047
0.037
0.045
0.063
0.079
0.068
0.059
0.019
-0.054
0.030
0.061
-0.038
0.022
0.007
-0.022
0.070
0.044
0.069
0.075
-0.013
-0.050
-0.021
-0.089
0.088
0.146
0.104
-0.043
-0.016
-0.063
0.080
0.041
0.056
0.013
0.008
0.013
0.073
0.017
0.024
0.060
0.063
-0.075
-0.083
0.080
0.048
0.120
0.129
-0.109
-0.030
0.003
0.055
0.011
0.042
0.049
0.036
-0.004
0.060
0.029
0.013
-0.004
-0.044
0.026
0.013
0.038
0.025
0.091
0.064
-0.054
-0.004
-0.027
0.006
0.052
-0.016
0.029
-0.001
0.080
0.018
0.074
0.004
0.024
-0.068
0.082
0.059
0.145
-0.006
-0.002
0.068
0.268
0.662
-0.910
-0.959
0.100
0.702
0.493
0.118
-0.158
-0.111
-0.044
-0.067
0.040
0.131
-0.185
0.036
0.542
0.209
-0.380
-0.237
0.190
0.262
0.143
0.007
-0.067
-0.065
-0.070
0.054
0.124
0.044
0.051
-0.006
0.069
0.024
0.084
0.041
0.025
0.020
-0.026
0.033
-0.039
0.014
0.138
0.009
-0.018
-0.049
0.025
0.127
0.089
-0.003
0.018
0.022
-0.029
0.026
0.062
0.047
0.114
0.010
0.065
-0.026
0.022
-0.017
0.052
0.047
-0.009
0.097
0.121
0.059
-0.008
-0.004
0.057
-0.004
-0.051
0.071
0.099
0.089
0.032
-0.069
-0.020
0.108
0.046
0.008
0.001
0.102
0.028
0.041
0.086
-0.034
0.015
0.068
0.049
-0.112
0.047
0.100
0.044
-0.017
0.023
-0.008
0.073
0.041
-0.007
0.055
0.015
0.059
0.028
0.102
0.877
-0.322
-1.389
-0.201
0.560
0.637
0.212
0.012
-0.159
-0.165
-0.034
0.010
-0.048
0.058
0.050
0.150
0.141
0.096
0.038
0.035
-0.084
0.013
-0.020
-0.006
0.011
0.184
0.009
-0.056
-0.044
-0.001
0.012
0.023
0.010
0.066
0.019
0.081
0.052
-0.046
0.094
0.026
-0.003
0.028
-0.006
0.002
0.042
0.015
0.075
0.070
-0.038
-0.065
0.008
0.086
0.044
-0.076
0.031
0.006
0.144
0.326
0.031
-0.314
-0.196
0.168
0.207
0.112
0.045
-0.047
-0.060
0.012
-0.025
0.024
0.040
0.055
0.025
0.017
-0.027
0.033
0.049
0.083
0.016
0.034
0.060
-0.023
-0.019
0.004
0.115
0.104
-0.005
0.049
0.012
0.059
-0.032
0.073
-0.014
0.049
0.020
0.078
0.127
0.005
0.026
-0.048
-0.018
0.047
0.026
0.285
0.785
-0.836
-0.984
0.173
0.646
0.496
0.030
-0.153
-0.084
-0.052
0.043
-0.018
0.034
0.069
0.099
0.028
0.096
0.076
0.018
0.026
0.069
0.041
0.012
0.025
0.014
0.040
0.201
-0.137
-0.195
0.089
0.130
0.061
-0.056
0.146
0.094
0.072
-0.026
-0.091
0.024
0.166
0.048
0.020
0.039
0.085
0.013
0.033
-0.004
0.011
-0.014
0.018
0.053
-0.010
0.057
0.037
-0.021
0.055
0.035
0.042
0.100
-0.009
0.123
-0.032
-0.027
0.016
0.036
0.060
0.009
0.046
0.063
0.011
0.268
0.149
-0.229
-0.349
0.005
0.239
0.206
0.149
0.027
-0.033
-0.012
-0.057
0.004
0.053
-0.013
0.101
0.798
-0.097
-1.384
-0.270
0.563
0.700
0.225
-0.069
-0.087
-0.137
-0.111
-0.053
-0.019
0.080
0.148
0.046
0.141
0.087
0.009
0.071
0.022
0.073
0.067
-0.002
0.036
0.040
-0.036
-0.021
0.033
0.030
0.040
0.032
0.074
0.004
-0.034
0.065
0.042
-0.039
0.039
-0.010
0.019
0.005
0.048
-0.035
0.060
0.085
0.080
-0.037
-0.017
-0.033
0.036
0.046
0.092
0.062
0.015
-0.017
0.123
0.066
0.000
0.115
-0.044
0.030
0.108
-0.004
-0.010
0.059
0.065
0.078
-0.044
-0.023
-0.021
-0.018
0.131
0.095
0.019
0.092
0.042
0.040
0.016
0.057
0.009
0.015
0.027
-0.051
0.003
0.081
0.104
-0.010
0.080
-0.040
0.012
0.012
0.017
0.042
0.028
0.005
0.014
0.106
0.123
0.035
-0.077
0.036
0.831
-0.293
-1.206
-0.078
0.655
0.604
0.208
-0.152
-0.063
-0.101
0.106
-0.134
-0.226
-0.165
0.235
0.224
0.222
0.143
0.016
0.041
-0.028
-0.002
-0.022
-0.019
0.074
0.030
0.059
-0.030
0.093
0.037
0.035
-0.013
0.043
0.037
0.040
0.004
0.013
0.047
0.021
0.018
0.008
-0.039
0.078
0.068
0.048
0.063
0.060
-0.001
0.040
0.040
0.002
-0.005
0.064
0.080
0.081
0.050
0.003
0.048
0.007
-0.065
0.343
-0.183
-0.112
0.088
0.138
-0.022
-0.103
0.149
0.095
0.038
-0.018
-0.088
0.031
0.046
0.002
0.078
0.099
-0.014
0.027
0.015
0.146
0.678
-0.069
-1.196
-0.419
0.525
0.739
0.314
-0.099
-0.175
-0.102
-0.086
0.064
0.061
0.069
0.034
0.156
0.118
0.038
0.022
-0.034
0.065
-0.062
0.066
0.077
0.084
0.013
-0.007
-0.096
-0.067
0.001
0.000
-0.008
0.050
0.115
0.000
0.069
0.020
0.113
-0.034
-0.062
0.060
-0.018
-0.005
0.097
0.001
0.015
0.098
-0.003
0.015
0.027
0.068
0.055
0.069
0.154
0.168
-0.190
-0.312
-0.048
0.178
0.123
0.109
-0.028
-0.025
0.016
0.068
-0.040
0.066
0.110
0.022
0.020
0.087
0.029
0.036
0.044
0.076
0.060
-0.022
-0.078
0.020
-0.047
-0.001
-0.023
0.022
0.063
0.026
-0.033
0.088
0.032
0.068
0.043
0.050
0.047
0.028
0.036
0.017
0.076
0.053
0.679
-0.233
-1.202
-0.242
0.570
0.649
0.210
-0.054
-0.133
-0.067
-0.084
0.015
0.021
0.063
0.109
0.106
0.142
0.034
0.005
-0.070
0.023
0.089
0.058
0.081
0.020
-0.037
0.043
0.015
0.037
0.032
0.032
0.060
0.022
-0.007
-0.028
0.031
0.064
0.100
-0.038
0.024
0.006
0.019
0.086
-0.048
0.066
0.012
-0.002
0.079
0.085
-0.028
-0.041
0.033
0.090
0.099
0.040
-0.058
0.025
0.073
0.073
0.126
-0.011
0.022
0.031
0.031
0.087
0.223
-0.026
-0.368
-0.142
0.198
0.200
0.043
0.027
0.017
0.117
-0.003
-0.117
0.077
0.015
0.016
0.050
0.081
0.046
0.036
0.042
0.096
0.028
0.054
0.029
-0.023
0.014
0.024
0.042
0.032
-0.071
0.060
0.041
0.008
0.668
0.142
-1.268
-0.550
0.515
0.745
0.324
-0.039
-0.119
-0.135
-0.063
-0.061
0.082
0.074
0.020
0.242
0.074
-0.142
-0.038
0.241
0.095
-0.127
-0.001
0.135
0.058
-0.030
-0.116
0.038
0.063
0.033
0.027
0.091
0.051
0.044
-0.037
0.075
0.028
0.079
0.012
0.029
-0.008
0.024
-0.079
0.010
0.073
0.050
0.021
0.025
0.050
0.030
0.094
0.073
-0.034
-0.012
0.059
0.003
0.017
0.035
0.061
-0.029
0.062
-0.001
0.051
0.002
0.013
0.017
-0.026
0.059
0.028
0.039
0.043
0.007
0.003
0.051
0.075
0.080
0.058
0.003
-0.009
0.043
0.011
0.044
-0.010
0.070
0.215
0.178
-0.251
-0.278
-0.002
0.225
0.201
0.046
-0.046
0.638
0.038
-1.315
-0.432
0.479
0.650
0.319
0.076
-0.092
-0.136
-0.117
-0.067
0.030
0.080
0.123
0.082
0.038
0.014
0.025
-0.012
0.034
0.110
0.059
0.026
0.128
-0.098
-0.233
-0.057
0.152
0.078
-0.020
0.085
0.186
0.013
-0.005
-0.088
-0.041
0.038
0.062
0.056
0.065
0.048
0.098
-0.026
0.068
0.003
0.000
0.086
0.035
-0.062
0.022
0.023
0.117
0.067
0.028
-0.064
-0.057
0.036
0.060
0.010
0.070
-0.007
-0.003
0.011
0.087
0.135
-0.024
0.016
-0.006
0.079
-0.045
0.063
0.002
0.012
0.048
-0.016
0.045
-0.021
0.061
0.026
0.055
0.049
0.129
0.072
0.009
-0.053
0.005
0.097
0.035
-0.041
0.029
0.067
0.071
0.082
-0.005
0.037
0.061
-0.019
0.523
0.561
-1.056
-0.908
0.255
0.846
0.478
0.047
-0.142
-0.205
-0.184
0.054
0.202
-0.127
-0.248
0.022
0.240
0.191
0.242
0.032
-0.098
-0.046
0.009
0.041
-0.001
-0.018
0.085
0.076
0.023
0.074
0.034
0.001
0.056
0.038
0.044
0.010
0.010
-0.062
0.005
0.063
0.081
0.109
0.125
0.081
0.011
-0.029
-0.022
0.053
-0.022
0.040
0.003
0.079
0.093
0.067
-0.027
0.012
0.121
0.072
0.044
-0.080
0.041
-0.046
-0.030
0.116
0.105
0.050
-0.009
0.002
0.012
-0.009
0.038
0.047
0.011
0.065
-0.037
0.119
0.063
0.044
0.013
-0.023
0.057
0.062
0.077
0.022
-0.004
0.053
0.044
-0.012
0.028
0.027
0.024
0.118
0.021
0.058
0.716
0.178
-1.248
-0.559
0.500
0.647
0.301
0.045
-0.087
-0.141
-0.059
0.006
0.017
0.105
0.066
0.091
-0.018
0.029
0.032
0.098
-0.010
0.076
0.020
0.027
0.174
-0.307
-0.112
0.149
0.184
0.008
-0.021
0.256
0.135
-0.280
-0.369
0.080
0.187
0.226
0.138
0.040
0.037
-0.031
0.013
0.053
0.054
0.022
0.016
-0.052
0.062
0.094
0.071
0.037
0.069
0.005
0.018
0.005
0.008
-0.024
0.046
0.035
0.023
0.027
0.072
0.070
0.009
0.026
0.005
0.041
-0.072
0.004
0.086
-0.003
0.027
0.032
0.018
0.015
0.040
-0.025
0.056
0.025
0.016
0.057
0.059
0.029
-0.002
0.026
0.037
0.082
0.046
0.077
0.117
-0.015
0.059
-0.005
0.046
0.031
0.112
0.064
0.052
-0.003
0.040
-0.003
-0.010
0.013
0.076
0.084
-0.045
-0.046
0.070
0.047
0.077
0.066
0.759
-0.202
-1.289
-0.322
0.576
0.727
0.211
-0.021
-0.120
-0.140
-0.101
-0.072
0.098
0.124
0.082
0.118
0.020
0.045
0.119
0.056
-0.001
0.050
0.036
-0.003
-0.021
0.018
0.044
0.094
0.105
0.055
-0.005
0.001
-0.005
0.039
0.041
0.001
0.003
0.022
0.079
0.003
-0.006
0.084
0.075
0.005
-0.083
0.124
0.220
-0.115
-0.289
0.009
0.139
0.182
0.121
0.020
0.010
-0.077
-0.003
0.038
-0.012
-0.018
0.039
0.087
0.030
0.066
0.070
-0.022
0.020
-0.016
0.079
0.025
0.021
0.032
-0.001
-0.013
0.001
0.056
-0.038
0.076
0.042
0.034
0.133
-0.029
0.028
-0.010
0.031
0.067
0.074
-0.012
0.057
0.015
0.046
0.036
0.008
0.046
0.132
0.682
-0.584
-1.151
-0.019
0.726
0.593
0.147
-0.080
-0.172
-0.182
-0.083
-0.000
0.008
0.032
0.079
0.108
0.073
0.059
0.055
0.025
0.033
0.004
-0.049
0.246
-0.169
-0.167
0.095
0.239
0.034
-0.107
0.045
0.116
0.119
0.038
-0.035
-0.033
-0.006
0.144
-0.020
0.063
0.028
0.047
0.011
0.009
0.042
0.059
0.028
0.020
-0.017
0.033
-0.041
0.057
-0.021
0.013
-0.042
0.038
0.024
0.119
0.065
0.072
0.041
-0.011
-0.057
0.030
0.019
0.069
0.039
0.051
0.017
0.037
0.052
0.162
0.182
-0.216
-0.321
0.017
0.260
0.289
0.892
-0.391
-1.257
-0.233
0.549
0.571
0.283
-0.019
-0.083
-0.090
-0.071
0.011
0.061
0.116
0.066
-0.054
0.091
-0.017
0.084
0.051
0.032
-0.010
-0.009
-0.063
-0.032
0.031
0.090
-0.060
0.017
0.002
0.079
0.093
0.044
-0.017
-0.013
0.030
0.032
0.091
0.090
0.061
0.042
0.044
0.012
0.006
0.033
-0.000
0.034
-0.036
0.053
0.130
0.055
0.037
0.008
-0.042
-0.068
0.024
0.076
0.047
-0.020
-0.003
0.046
0.109
0.122
-0.011
0.038
-0.017
-0.008
0.032
-0.003
0.096
-0.005
0.060
0.097
-0.026
-0.032
-0.024
0.021
0.069
0.060
0.038
0.044
0.066
-0.014
0.018
0.039
0.039
0.008
0.053
0.120
0.061
0.032
-0.026
0.045
0.036
-0.009
0.080
0.051
0.076
-0.037
0.103
0.209
0.768
-0.625
-1.179
0.010
0.718
0.589
0.206
-0.097
-0.165
-0.154
-0.083
-0.005
-0.019
0.072
0.085
0.208
0.265
-0.020
-0.284
-0.119
0.138
0.228
0.145
0.054
-0.053
-0.017
-0.001
0.013
-0.015
0.051
0.088
0.020
0.027
0.061
0.104
0.011
0.268
-0.180
-0.098
0.083
0.170
-0.055
-0.131
0.077
0.080
0.034
-0.001
0.025
0.075
-0.059
-0.012
0.055
0.037
0.102
0.026
-0.005
0.026
-0.022
0.113
0.032
0.003
0.051
-0.009
-0.062
0.010
-0.020
0.030
0.025
-0.008
0.060
0.012
0.025
0.020
0.136
-0.035
0.082
-0.017
0.060
0.106
0.042
0.005
0.071
0.051
-0.036
-0.070
-0.028
0.043
0.727
0.206
-1.279
-0.473
0.457
0.734
0.313
-0.078
-0.221
-0.160
-0.024
-0.048
0.059
0.109
0.050
0.014
0.048
0.062
0.117
0.049
0.062
-0.017
0.024
-0.081
0.047
0.032
-0.049
-0.028
0.088
0.035
0.060
0.109
-0.023
-0.001
-0.024
0.048
0.034
0.094
-0.010
-0.025
0.065
0.089
0.020
0.016
0.035
0.042
0.114
-0.004
0.016
0.012
-0.012
0.091
0.125
-0.035
0.030
-0.027
0.060
0.072
0.053
0.006
0.159
0.101
-0.233
-0.237
0.080
0.148
0.191
0.112
0.046
-0.017
-0.045
-0.056
0.037
-0.022
0.102
-0.001
0.082
0.067
0.005
0.281
0.666
-0.852
-0.870
-0.001
0.599
0.612
0.179
-0.202
-0.170
-0.045
-0.028
0.026
-0.017
0.009
0.056
0.153
0.126
0.097
0.059
0.001
-0.006
0.006
0.023
-0.007
0.050
0.027
-0.002
0.051
-0.041
0.031
-0.018
0.035
0.067
0.054
0.031
0.023
0.020
-0.016
0.015
0.086
0.012
0.032
0.041
0.042
-0.009
0.019
0.023
0.053
0.034
0.059
0.013
-0.037
-0.018
0.061
0.060
0.031
0.083
0.059
-0.015
-0.068
0.057
0.046
-0.041
0.039
0.035
0.058
0.005
0.029
0.010
0.121
0.007
0.052
-0.074
-0.032
0.155
0.021
-0.017
0.002
0.506
0.540
-1.144
-0.738
0.377
0.706
0.464
0.033
-0.126
-0.136
-0.079
0.049
0.045
0.041
0.021
0.114
0.087
0.045
-0.007
0.037
-0.037
0.018
0.066
0.049
-0.071
-0.065
-0.038
0.107
0.004
0.058
0.094
0.245
-0.221
-0.343
-0.008
0.156
0.212
0.084
0.008
-0.025
0.089
-0.024
0.052
0.088
0.245
-0.108
-0.065
0.116
0.170
0.010
-0.022
0.050
0.097
0.003
-0.075
-0.002
0.024
0.023
-0.062
-0.019
0.119
0.110
0.034
0.024
0.016
-0.011
0.042
0.017
0.030
0.028
0.017
0.096
-0.054
0.004
-0.010
0.050
0.012
0.010
0.057
0.058
0.202
0.800
-0.707
-1.172
-0.008
0.712
0.451
0.169
-0.034
-0.075
-0.145
0.017
0.015
0.008
0.037
0.179
0.132
0.081
0.064
0.068
0.036
0.021
-0.011
0.003
0.026
0.053
-0.001
-0.007
0.092
0.044
0.076
-0.024
0.022
0.065
0.040
-0.014
-0.047
0.073
0.056
0.007
0.050
0.002
0.087
0.029
0.071
0.056
0.041
-0.040
0.067
0.006
0.071
0.055
-0.012
0.023
0.007
0.093
0.066
0.013
-0.003
0.121
0.040
-0.095
0.025
0.036
0.023
0.093
-0.017
0.011
0.040
-0.046
0.104
0.107
0.255
0.066
-0.352
0.111
1.028
-0.833
-1.074
0.291
0.828
0.450
-0.071
-0.055
-0.043
-0.101
-0.160
-0.003
0.112
0.086
0.046
0.121
0.109
0.070
0.000
0.042
0.006
-0.019
-0.003
-0.039
0.035
0.054
-0.078
-0.045
-0.033
0.040
0.089
0.056
0.120
0.049
0.020
0.023
0.021
-0.017
0.068
0.025
0.058
0.028
0.009
0.051
0.062
-0.055
-0.013
0.037
0.008
0.029
0.076
-0.002
0.000
0.017
0.033
0.053
0.032
0.004
0.027
0.014
0.139
0.013
0.036
0.025
0.087
-0.005
-0.004
0.011
0.023
0.115
0.061
0.126
-0.051
0.022
-0.082
0.044
-0.008
0.058
0.033
0.059
0.077
0.145
0.060
0.017
-0.029
0.307
0.630
-1.089
-0.924
0.286
0.797
0.520
0.072
-0.080
-0.180
-0.115
-0.137
0.019
0.038
0.155
0.098
0.130
0.063
0.030
0.051
-0.001
0.042
0.024
0.030
0.076
-0.022
0.063
0.014
-0.019
0.001
0.160
0.177
-0.245
-0.336
0.125
0.255
0.180
0.105
0.097
-0.043
-0.108
-0.058
0.013
0.072
0.076
0.082
0.031
0.061
0.091
0.056
0.015
0.005
0.012
-0.055
0.084
0.049
-0.023
0.019
-0.012
-0.022
0.083
0.283
-0.057
-0.168
0.068
0.171
-0.009
-0.074
0.036
0.129
0.039
-0.047
-0.044
0.019
0.005
-0.013
0.069
0.126
0.076
-0.021
0.062
0.874
-0.018
-1.366
-0.451
0.525
0.662
0.339
-0.003
-0.133
-0.169
-0.113
0.047
-0.015
0.088
0.022
-0.031
0.056
0.142
0.085
0.020
0.087
0.001
0.007
-0.014
0.011
0.015
-0.039
-0.087
0.091
0.093
0.086
0.035
0.040
0.090
-0.012
-0.074
0.043
-0.005
0.013
0.032
0.047
0.150
-0.017
-0.053
0.019
0.045
-0.038
0.036
0.071
0.041
0.059
0.071
0.044
0.010
0.021
-0.062
-0.064
0.055
0.072
0.058
0.087
-0.028
0.001
0.072
0.045
0.020
0.017
0.016
0.032
0.097
0.054
0.069
-0.011
0.002
0.039
0.027
0.094
0.210
-0.121
-0.347
-0.020
0.225
0.128
0.144
0.076
0.648
-0.083
-1.272
-0.407
0.491
0.588
0.339
0.040
-0.087
-0.177
-0.085
-0.044
-0.026
0.024
0.144
0.106
0.062
-0.030
0.129
0.043
0.086
-0.043
0.046
-0.045
0.002
-0.007
0.126
-0.008
0.070
-0.038
-0.024
0.008
0.044
0.011
0.051
0.097
0.013
-0.007
0.031
0.002
-0.008
0.038
-0.022
0.075
0.058
0.302
-0.200
-0.113
0.021
0.134
-0.069
0.002
0.073
0.176
0.080
-0.115
-0.018
0.017
0.082
-0.016
0.048
0.062
0.050
0.031
-0.051
0.035
0.033
0.022
-0.008
-0.016
0.012
0.109
-0.028
0.027
0.035
0.078
0.038
0.057
0.067
0.077
0.018
0.005
0.099
0.017
0.013
0.033
0.020
0.017
0.026
-0.006
0.030
0.123
0.763
0.051
-1.338
-0.428
0.621
0.934
0.197
-0.405
-0.234
-0.096
0.128
0.150
0.171
-0.051
-0.079
-0.021
0.057
0.194
0.159
0.074
0.043
0.075
-0.007
-0.027
0.026
0.055
0.018
-0.056
0.012
0.026
0.030
0.086
0.105
0.049
0.039
-0.069
-0.000
0.071
0.034
0.137
-0.003
0.021
-0.019
0.054
0.052
-0.031
-0.027
0.009
0.025
0.084
0.097
0.012
-0.019
-0.011
0.012
0.020
0.058
0.071
0.048
0.021
-0.004
0.077
0.024
0.087
0.041
0.019
-0.042
0.062
0.068
0.023
0.050
0.031
0.002
-0.020
0.042
0.060
0.055
0.000
-0.021
0.007
0.149
-0.041
-0.010
0.026
-0.017
0.009
0.053
-0.025
0.114
0.801
-0.430
-1.174
-0.118
0.625
0.565
0.166
0.006
-0.104
-0.151
-0.038
-0.023
0.040
0.095
0.109
0.021
0.086
0.087
0.049
0.012
-0.012
0.001
-0.018
0.028
0.010
0.031
-0.024
-0.015
0.001
0.074
0.063
0.019
-0.016
0.082
-0.030
-0.036
0.037
0.156
0.134
-0.015
0.013
0.187
0.220
-0.244
-0.344
-0.055
0.171
0.260
0.171
0.004
-0.040
-0.029
-0.038
-0.027
0.013
0.048
0.129
0.038
0.014
0.056
0.035
0.069
0.016
0.046
-0.001
0.042
0.237
-0.278
-0.060
0.091
0.123
-0.093
-0.032
0.077
0.174
-0.022
-0.038
-0.049
-0.065
0.085
0.049
0.102
0.071
0.063
0.013
-0.031
0.071
0.047
0.066
0.034
-0.053
0.013
0.061
0.065
-0.018
-0.005
0.023
0.130
0.518
0.450
-1.265
-0.779
0.453
0.693
0.405
0.063
-0.144
-0.127
-0.153
-0.020
0.018
0.050
0.075
0.117
0.079
0.020
0.109
0.081
0.015
0.040
-0.063
-0.017
-0.031
0.028
0.036
-0.027
0.115
0.017
0.059
-0.063
0.077
-0.068
0.080
0.102
0.051
-0.019
0.004
0.082
0.078
0.114
-0.025
-0.030
0.022
-0.029
0.037
0.057
-0.008
-0.001
0.023
0.037
0.036
0.022
0.061
0.027
0.028
0.188
0.239
-0.197
-0.340
-0.014
0.163
0.204
0.121
0.027
-0.010
-0.041
-0.037
0.009
0.030
0.039
0.109
0.074
0.048
0.068
-0.006
0.052
-0.003
0.000
0.079
0.029
-0.022
-0.013
-0.016
0.059
0.042
-0.044
0.139
0.041
-0.013
-0.049
0.048
0.054
0.071
0.388
0.590
-1.085
-0.859
0.264
0.682
0.396
0.110
-0.070
-0.012
-0.091
-0.064
-0.057
0.043
0.087
0.127
0.068
0.044
0.096
0.028
0.074
0.099
-0.081
-0.084
-0.009
0.000
0.044
0.113
0.111
0.083
-0.026
-0.007
0.018
-0.004
0.017
0.055
0.008
0.032
0.039
0.084
0.008
-0.001
0.048
-0.032
0.010
0.043
0.112
0.022
0.058
0.118
0.032
-0.010
0.032
0.029
0.029
0.053
0.013
0.051
0.047
-0.043
0.004
0.056
0.081
0.051
0.018
-0.058
0.023
0.061
0.090
0.063
0.051
0.064
-0.001
-0.000
0.023
0.188
0.137
-0.240
-0.239
0.074
0.363
-0.097
0.067
0.091
0.081
-0.121
-0.091
0.193
0.177
-0.007
0.048
-0.023
0.018
0.424
0.561
-0.997
-0.797
0.261
0.797
0.465
0.042
-0.129
-0.159
-0.041
-0.100
-0.067
0.079
0.086
0.096
0.076
0.058
-0.000
0.056
0.023
0.079
-0.061
-0.029
0.009
0.025
-0.052
0.115
-0.007
0.071
0.021
0.063
0.084
0.041
0.010
0.005
0.112
-0.031
-0.064
0.025
0.134
0.063
0.099
0.031
-0.018
0.032
0.109
0.025
0.051
-0.033
0.021
-0.014
0.077
0.116
0.037
0.033
0.024
-0.022
0.054
0.024
0.061
0.004
-0.016
0.102
0.058
-0.022
-0.018
0.011
0.034
0.060
-0.014
0.013
0.112
-0.040
-0.021
0.021
0.077
0.000
-0.010
0.031
0.037
0.090
0.027
-0.011
0.027
0.096
0.019
0.065
-0.013
0.029
0.000
0.100
0.025
0.057
0.015
0.486
0.775
-1.195
-1.047
0.108
0.786
0.687
0.161
-0.027
-0.126
-0.200
-0.143
-0.084
0.041
0.013
0.080
0.149
0.146
0.064
0.049
0.062
0.022
0.030
0.052
-0.053
-0.024
0.012
-0.012
0.014
0.003
0.079
-0.006
0.099
0.028
-0.053
0.041
0.104
0.113
0.016
-0.004
-0.007
-0.014
-0.056
0.067
0.150
0.028
0.003
0.024
-0.037
-0.017
0.089
-0.012
-0.004
0.032
0.016
0.030
0.039
0.096
0.055
0.060
-0.024
0.003
0.048
0.035
0.107
0.096
0.050
0.039
0.027
0.084
0.046
0.047
0.008
0.029
0.002
0.071
0.070
0.075
0.028
0.013
0.005
0.039
-0.035
0.026
-0.002
0.053
0.001
-0.010
0.051
0.030
0.051
0.002
0.043
0.041
-0.027
0.118
-0.079
-0.028
-0.006
0.052
0.008
0.086
0.096
0.008
0.066
-0.015
0.030
0.094
0.029
0.055
0.072
0.602
0.303
-1.283
-0.578
0.470
0.756
0.408
0.102
-0.222
-0.219
-0.186
-0.021
0.022
0.134
0.186
0.109
0.077
0.070
-0.062
0.124
0.263
-0.144
-0.107
-0.315
0.061
0.221
0.211
-0.043
-0.061
0.111
0.065
-0.023
-0.045
-0.027
0.044
0.110
0.028
0.073
0.080
0.041
0.005
0.015
0.007
0.000
0.058
0.054
0.031
0.014
0.043
-0.026
0.061
0.018
0.045
0.103
-0.006
0.029
-0.009
0.061
0.004
-0.044
0.073
0.103
0.042
0.021
0.083
0.045
0.052
-0.030
-0.025
0.107
0.036
0.084
0.091
-0.036
-0.007
0.063
0.070
0.037
0.015
-0.038
0.020
-0.022
0.019
0.020
0.797
0.073
-1.370
-0.440
0.554
0.652
0.255
0.021
-0.003
-0.167
-0.122
-0.061
0.087
0.017
-0.024
0.101
0.145
0.094
0.074
0.022
-0.028
-0.013
0.024
0.065
-0.055
-0.071
-0.043
0.140
0.025
0.010
0.064
-0.031
0.016
0.045
0.041
0.052
0.068
-0.050
0.013
0.009
0.061
0.196
0.163
-0.311
-0.320
-0.052
0.215
0.232
0.125
0.056
-0.034
-0.117
0.042
-0.003
-0.016
0.109
-0.024
0.055
0.151
0.036
0.053
0.016
-0.003
0.027
-0.048
0.047
0.012
-0.032
-0.014
0.040
0.097
0.061
-0.029
0.034
0.006
0.078
0.005
0.053
0.025
0.018
0.009
0.086
-0.008
0.021
0.035
0.055
0.022
0.016
0.070
-0.062
0.070
0.082
0.033
0.023
-0.014
0.047
0.036
0.036
0.014
0.008
0.036
-0.002
0.040
0.002
-0.001
0.038
0.060
0.044
0.065
0.039
0.072
0.626
0.156
-1.216
-0.615
0.407
0.876
0.394
0.060
-0.184
-0.196
-0.108
-0.089
0.032
0.062
0.033
0.120
0.080
0.055
0.029
0.047
0.035
-0.049
-0.018
0.016
0.094
0.019
-0.051
-0.030
0.057
0.032
-0.053
0.041
0.053
0.013
0.088
0.046
0.054
0.088
0.212
-0.041
-0.163
0.120
0.081
-0.274
-0.199
0.136
0.310
0.216
0.077
-0.113
-0.089
-0.045
0.058
0.106
0.016
0.071
0.025
0.045
-0.012
0.083
-0.027
0.027
0.021
-0.022
-0.006
0.026
0.036
-0.023
0.086
0.042
0.010
0.029
0.039
-0.012
0.093
0.105
0.020
0.008
-0.018
0.048
0.035
0.026
0.062
0.006
-0.019
0.045
0.040
0.034
0.014
0.001
0.028
0.039
0.069
0.046
0.028
0.002
-0.043
0.028
0.019
0.625
0.243
-1.225
-0.584
0.535
0.703
0.410
0.060
-0.123
-0.160
-0.148
-0.053
0.055
0.056
0.048
0.107
0.125
0.026
0.033
0.051
0.091
0.030
-0.037
-0.005
-0.050
0.042
0.024
-0.016
0.052
-0.003
-0.026
0.073
0.090
0.013
-0.023
0.013
0.021
0.015
0.093
0.039
0.031
0.017
0.012
-0.002
0.042
0.128
0.299
0.129
-0.416
-0.245
0.179
0.192
0.137
0.120
-0.041
0.057
-0.077
-0.052
0.002
-0.001
-0.044
0.042
-0.005
0.128
0.055
0.031
0.046
-0.012
0.044
-0.006
0.016
0.014
0.076
-0.016
0.118
0.031
0.094
0.015
-0.023
-0.021
-0.026
0.078
0.082
0.021
0.100
0.008
0.010
-0.020
0.023
0.100
-0.068
0.077
0.098
0.029
-0.029
0.087
0.499
0.556
-1.092
-0.843
0.298
0.772
0.390
0.038
-0.160
-0.151
-0.102
-0.032
0.034
0.086
0.057
-0.012
0.087
0.046
0.131
-0.026
-0.005
0.033
0.023
0.048
0.056
-0.028
-0.062
-0.012
0.013
0.091
0.137
0.041
0.019
-0.004
0.030
0.046
0.030
0.048
0.051
0.075
0.060
0.081
-0.058
0.050
-0.002
0.082
0.087
-0.008
0.066
0.029
-0.011
0.106
-0.023
0.054
0.027
-0.027
0.063
-0.035
0.009
0.030
0.020
0.052
0.002
0.034
0.038
0.090
-0.012
0.019
0.049
-0.008
0.020
0.114
0.185
0.044
-0.289
-0.249
0.174
0.171
0.087
0.075
0.038
0.028
0.054
-0.049
0.075
0.018
0.059
-0.007
0.031
0.074
0.010
0.009
0.093
0.027
0.063
0.035
0.030
0.015
0.038
0.028
-0.059
0.036
0.024
0.064
0.017
0.042
0.022
-0.004
-0.010
0.046
0.017
0.016
0.071
0.169
0.784
-0.511
-1.230
-0.048
0.755
0.579
0.254
-0.107
-0.165
-0.061
-0.053
-0.054
0.002
0.029
0.105
0.114
0.128
0.132
0.022
-0.047
0.072
0.002
-0.008
-0.023
0.085
-0.036
0.064
0.010
-0.020
0.101
0.067
-0.056
0.017
0.078
-0.003
0.033
0.009
0.075
0.074
0.098
0.045
-0.027
0.046
0.119
0.023
0.057
0.012
-0.011
0.002
0.063
0.079
0.008
-0.055
0.042
-0.045
0.058
0.126
0.068
0.004
0.011
0.049
0.018
0.017
0.091
0.017
0.087
0.027
0.018
0.015
0.006
-0.002
0.034
0.069
0.077
-0.030
-0.024
0.083
0.146
0.090
0.126
0.153
-0.205
-0.338
-0.116
0.256
0.198
0.089
0.113
-0.014
-0.027
-0.009
-0.038
0.027
0.012
0.007
0.055
0.190
0.069
0.109
0.794
-0.234
-1.300
-0.250
0.573
0.628
0.155
-0.013
-0.158
-0.062
-0.101
0.007
0.026
-0.002
0.104
0.096
0.100
0.022
0.328
-0.203
-0.047
0.109
0.120
-0.049
-0.094
0.091
0.094
0.112
-0.019
-0.045
0.027
0.010
-0.033
-0.025
0.039
0.100
0.117
0.069
0.057
0.046
-0.002
-0.045
0.017
0.021
0.077
-0.055
0.032
0.104
-0.018
0.067
-0.025
0.048
-0.001
0.089
-0.006
0.044
0.116
0.057
0.054
-0.005
-0.024
0.013
0.014
0.029
0.075
0.072
0.038
-0.005
0.010
0.091
0.085
0.070
-0.019
-0.028
0.060
-0.003
0.102
-0.044
0.043
0.038
-0.002
0.041
-0.016
0.154
0.072
0.049
-0.039
-0.015
0.046
0.108
-0.021
0.059
-0.029
0.031
0.052
0.104
0.042
0.114
0.184
-0.230
-0.327
0.133
0.916
-0.485
-0.968
0.080
0.670
0.444
0.059
-0.086
-0.140
-0.120
-0.085
-0.029
0.069
0.070
0.164
0.180
0.089
0.010
0.047
-0.012
0.099
-0.067
0.014
0.023
0.045
0.021
0.023
0.038
0.044
0.009
0.082
0.020
-0.042
0.103
0.146
-0.056
-0.041
-0.014
0.116
0.145
0.048
-0.046
0.023
-0.044
0.065
0.040
0.063
0.053
-0.075
-0.049
0.042
-0.011
0.091
0.048
0.045
0.064
-0.036
0.033
0.003
0.006
0.045
0.008
0.036
0.048
0.076
0.029
-0.017
0.028
-0.023
0.092
0.073
-0.035
-0.031
0.095
0.074
0.042
0.072
0.026
-0.030
0.037
0.045
0.043
0.046
-0.018
-0.008
0.069
0.066
0.015
0.097
-0.017
0.028
-0.016
-0.008
-0.027
0.108
0.123
0.048
-0.006
-0.004
0.030
0.029
0.057
-0.022
0.024
0.137
-0.018
0.018
0.010
-0.012
-0.049
0.002
0.078
0.072
0.634
0.225
-1.243
-0.566
0.461
0.652
0.365
0.004
-0.062
-0.156
-0.105
-0.063
0.119
0.281
0.066
-0.337
-0.127
0.113
0.245
0.276
0.192
-0.007
-0.088
-0.128
-0.061
-0.024
0.045
0.028
0.020
0.036
0.107
0.031
0.141
0.100
0.042
0.003
-0.058
0.115
0.069
0.066
-0.025
0.035
-0.034
-0.006
0.040
0.089
-0.012
-0.031
0.010
0.097
0.059
0.022
-0.049
0.023
-0.029
0.076
0.087
-0.043
0.098
0.048
0.097
0.012
-0.007
-0.008
0.044
0.050
0.015
-0.006
0.171
0.046
-0.029
0.045
0.011
0.042
-0.000
-0.022
0.036
0.091
0.036
0.056
-0.013
0.048
-0.028
0.031
0.001
-0.041
0.120
0.015
0.053
0.115
-0.003
0.020
-0.022
0.054
0.027
0.018
-0.020
0.059
0.111
0.044
0.009
0.104
0.098
0.006
-0.150
-0.013
0.743
-0.007
-1.099
-0.171
0.471
0.303
0.038
0.075
0.055
-0.116
0.008
0.007
-0.012
0.042
0.073
0.012
0.125
0.034
0.076
0.043
0.156
0.027
-0.003
-0.029
-0.025
0.010
0.006
-0.021
-0.055
0.011
0.127
0.022
0.016
0.019
0.052
0.058
0.056
0.019
0.024
-0.005
0.062
0.064
0.000
-0.002
0.038
-0.027
0.076
0.056
0.050
0.038
-0.003
0.091
0.006
0.078
-0.013
-0.012
-0.005
0.038
0.010
-0.040
0.015
0.034
0.107
-0.024
0.099
0.040
0.039
-0.024
0.036
0.055
0.019
0.061
-0.035
0.052
-0.026
0.031
-0.013
0.073
0.090
0.001
0.051
-0.018
-0.012
0.016
0.001
0.051
0.053
0.087
0.045
0.021
0.038
0.065
-0.032
-0.016
0.571
0.091
-1.163
-0.393
0.506
0.710
0.345
-0.032
-0.112
-0.213
-0.150
-0.034
0.086
0.102
0.108
0.099
-0.008
0.079
0.225
-0.048
-0.293
-0.111
0.098
0.181
0.091
0.018
0.099
-0.003
-0.058
-0.033
0.012
0.054
0.057
0.066
0.080
0.057
-0.006
0.019
0.090
-0.010
-0.038
0.018
0.019
-0.005
0.041
0.121
-0.004
-0.002
-0.064
0.002
-0.008
0.065
0.113
0.026
-0.013
-0.001
0.025
0.055
-0.017
0.079
0.039
0.013
0.024
0.080
0.084
0.035
0.055
-0.024
0.045
0.031
0.049
0.084
0.018
-0.011
0.037
0.027
0.001
0.034
0.018
0.070
0.015
0.030
0.076
-0.064
0.020
0.050
-0.002
0.018
0.001
0.054
-0.004
0.048
0.023
0.028
-0.027
0.021
0.088
0.037
-0.065
0.017
0.034
-0.040
0.274
0.796
-0.744
-1.072
0.100
0.639
0.553
0.140
-0.054
-0.135
-0.070
-0.086
-0.005
0.079
0.121
0.076
0.090
0.054
0.025
0.045
0.118
0.118
-0.215
-0.317
0.028
0.327
0.290
-0.203
-0.037
0.093
0.072
-0.106
-0.031
0.151
0.198
0.058
-0.079
0.001
-0.020
0.016
0.060
0.051
0.049
0.040
0.092
0.027
0.021
-0.005
-0.033
-0.051
0.050
0.058
-0.010
0.084
-0.077
0.063
0.019
0.040
0.039
0.019
0.149
0.050
0.080
0.016
-0.003
0.054
0.072
0.049
-0.008
0.044
0.039
0.071
0.033
0.010
0.058
0.039
0.062
-0.048
0.038
0.018
0.106
-0.016
-0.002
0.052
0.053
0.044
-0.008
0.083
0.078
0.093
0.009
-0.028
0.026
0.072
0.091
0.083
0.053
-0.065
0.017
0.021
0.014
0.030
0.033
-0.031
0.096
0.778
-0.304
-1.222
-0.159
0.642
0.643
0.187
0.043
-0.149
-0.151
-0.153
-0.026
0.016
0.124
0.114
0.112
0.104
0.084
0.017
-0.046
0.085
0.064
0.025
-0.093
-0.033
0.077
0.009
0.043
0.020
0.021
-0.018
0.096
-0.008
0.062
0.025
-0.020
0.071
0.070
0.050
0.045
0.033
-0.018
-0.020
0.056
0.021
0.144
0.185
-0.216
-0.254
0.037
0.247
0.255
0.073
0.092
0.054
-0.066
-0.002
-0.052
0.029
0.030
0.008
-0.001
0.072
0.042
0.071
0.038
-0.035
0.058
0.014
0.034
0.001
0.037
-0.028
0.064
0.031
0.074
0.085
-0.030
0.013
-0.080
0.087
0.047
0.130
0.047
0.087
0.048
-0.110
0.057
0.095
0.012
0.040
0.066
0.019
0.105
-0.059
0.031
0.033
0.037
-0.062
0.056
0.164
0.049
0.052
0.040
0.058
0.782
-0.422
-1.212
-0.071
0.708
0.540
0.252
-0.154
-0.253
-0.178
-0.006
0.062
0.028
0.075
0.067
0.221
0.066
0.062
0.026
-0.002
-0.022
-0.065
0.055
0.103
-0.047
0.012
-0.024
-0.024
0.005
0.059
0.070
0.029
0.016
0.057
0.033
0.080
0.054
0.013
0.002
0.048
0.021
0.024
-0.050
-0.001
0.061
0.090
0.052
-0.011
-0.084
0.014
-0.007
0.137
0.187
-0.053
-0.276
-0.086
0.191
0.178
0.090
0.030
-0.019
-0.025
0.021
0.023
0.033
0.030
0.100
0.040
0.014
0.072
0.034
0.026
0.024
-0.003
-0.010
0.001
-0.028
0.021
0.041
0.009
0.068
0.067
0.078
-0.006
0.048
-0.014
0.021
0.035
0.024
0.086
0.041
0.036
-0.014
0.029
0.018
-0.014
0.089
0.023
0.065
-0.052
0.020
0.051
0.002
0.069
-0.001
0.044
0.060
-0.051
0.103
-0.033
0.097
-0.010
0.010
-0.058
0.018
0.047
0.131
0.000
0.270
0.628
-0.869
-0.925
0.177
0.634
0.491
0.065
-0.134
-0.137
-0.058
0.033
-0.049
0.022
0.128
0.119
0.109
0.070
0.016
0.035
0.052
-0.037
0.030
-0.029
-0.050
0.043
-0.011
-0.046
0.025
0.091
0.060
0.016
0.034
0.029
0.068
0.014
0.011
0.075
0.014
-0.002
0.048
0.050
-0.021
-0.014
-0.005
0.050
0.040
0.277
-0.109
-0.289
0.024
0.124
0.163
0.036
0.065
-0.021
-0.031
-0.021
0.057
-0.022
-0.001
0.036
0.054
0.009
0.065
0.123
0.077
0.050
-0.041
-0.033
0.077
0.022
0.010
0.050
-0.032
-0.035
0.044
0.098
0.034
-0.044
0.008
0.062
-0.001
-0.008
0.085
0.021
0.085
0.020
-0.015
0.058
0.038
-0.028
0.023
0.126
0.004
0.069
0.040
-0.002
0.046
0.024
0.034
0.016
0.019
0.079
0.003
0.137
0.065
0.027
-0.051
-0.015
0.026
0.118
0.006
-0.000
0.018
0.047
0.066
-0.033
0.012
0.056
0.035
-0.043
0.034
0.677
-0.022
-1.181
-0.326
0.496
0.667
0.211
-0.003
-0.141
-0.145
-0.075
0.031
0.122
0.068
0.090
0.054
0.017
0.090
0.107
0.046
-0.050
0.019
0.037
-0.016
0.084
0.022
-0.039
0.021
0.007
-0.025
0.072
0.043
0.035
0.011
0.015
0.029
-0.001
0.036
0.035
0.162
0.109
-0.023
-0.053
0.055
0.018
0.120
0.248
-0.117
-0.413
-0.095
0.271
0.161
0.124
0.109
-0.038
-0.071
-0.108
-0.014
-0.033
0.090
0.181
0.036
0.041
0.004
0.026
0.047
0.020
0.014
-0.066
0.042
0.037
0.054
0.082
0.016
-0.017
0.003
0.023
-0.044
0.077
0.110
0.033
-0.068
-0.029
0.018
0.012
0.032
0.076
0.072
0.108
-0.047
-0.060
0.002
0.094
0.054
0.057
0.075
-0.008
0.072
0.023
0.064
0.032
0.025
0.024
-0.011
0.018
0.032
0.030
0.081
0.129
0.025
0.013
0.041
0.005
-0.007
0.069
0.727
-0.278
-1.253
-0.130
0.626
0.673
0.195
-0.078
-0.130
-0.132
-0.081
-0.061
0.112
0.119
0.061
0.090
0.058
0.115
0.045
0.004
0.029
0.071
0.028
-0.000
-0.005
0.014
0.030
0.024
-0.003
0.024
0.056
0.027
0.082
0.014
0.047
0.083
0.026
-0.017
-0.016
0.008
0.114
0.033
0.025
0.038
0.125
0.199
-0.174
-0.316
-0.010
0.289
0.246
0.167
0.030
-0.023
-0.046
-0.022
-0.001
0.011
-0.066
0.060
0.112
-0.030
0.007
0.113
0.006
0.053
-0.028
0.015
0.017
0.076
0.052
0.065
0.000
-0.052
0.005
0.051
0.095
0.020
-0.064
0.013
0.054
0.094
0.050
-0.002
-0.022
0.063
0.014
-0.030
0.039
0.071
0.022
0.019
0.061
0.035
-0.005
0.052
0.061
0.047
0.047
0.035
-0.011
0.013
-0.008
-0.009
0.062
-0.018
0.087
0.060
-0.029
-0.004
0.065
0.067
-0.028
0.017
-0.020
0.106
0.675
0.222
-1.218
-0.517
0.432
0.670
0.307
0.032
-0.049
-0.122
-0.162
-0.106
0.073
0.114
0.074
0.064
0.105
0.149
0.066
-0.105
0.044
0.070
-0.019
-0.004
-0.068
-0.020
0.054
0.038
-0.011
0.113
0.024
0.076
0.040
0.025
-0.005
-0.012
0.090
0.030
-0.036
-0.018
0.075
0.048
0.088
0.032
0.015
0.048
0.082
0.015
-0.012
-0.002
-0.043
0.083
0.023
-0.012
0.050
0.072
0.047
-0.011
0.109
0.202
-0.161
-0.290
-0.043
0.185
0.140
0.137
0.068
-0.045
-0.019
0.020
0.048
-0.043
0.020
0.086
0.060
0.042
0.064
0.037
0.025
0.019
0.005
0.031
-0.002
0.028
0.067
0.050
-0.051
0.014
0.025
0.048
0.023
0.024
-0.038
-0.031
0.085
0.085
0.036
0.006
0.036
0.014
0.057
-0.048
0.027
0.084
0.118
-0.015
0.014
0.106
0.026
0.070
0.046
-0.046
-0.018
0.049
-0.007
0.026
0.005
0.023
0.043
0.428
0.380
-1.106
-0.705
0.364
0.707
0.436
0.095
-0.137
-0.182
-0.090
-0.046
-0.046
0.020
0.172
0.101
0.150
0.015
-0.005
0.014
0.027
-0.029
0.078
-0.001
-0.058
0.003
-0.049
0.017
0.099
0.080
0.003
0.037
-0.014
0.074
0.007
-0.040
0.041
0.004
0.131
0.245
-0.130
-0.269
-0.090
0.175
0.113
0.122
0.051
-0.060
0.046
0.013
-0.061
0.006
0.019
0.045
-0.015
0.036
0.047
0.076
0.126
0.005
-0.060
-0.028
0.041
-0.066
0.009
0.011
0.074
0.087
-0.047
-0.013
-0.007
0.021
0.073
0.035
0.030
0.064
0.053
0.054
0.034
0.002
0.028
0.045
0.032
0.070
0.058
0.047
0.129
0.038
0.014
0.037
-0.032
0.001
0.022
0.046
-0.002
0.029
-0.042
0.034
0.013
-0.001
0.012
0.028
-0.016
-0.001
0.017
0.124
0.012
-0.022
0.090
0.070
0.320
0.604
-1.015
-0.851
0.278
0.761
0.505
0.082
-0.120
-0.208
-0.031
-0.009
-0.051
0.085
0.110
0.077
0.097
0.055
0.046
-0.014
0.018
-0.012
0.005
0.018
0.000
0.065
0.010
-0.021
0.050
0.009
0.005
0.035
-0.121
0.050
0.046
0.020
0.070
0.077
0.041
-0.016
0.020
0.053
-0.030
0.070
0.320
-0.086
-0.379
-0.131
0.187
0.171
0.161
0.056
-0.097
-0.003
0.057
-0.013
0.027
0.008
0.010
0.103
0.069
0.100
0.077
-0.004
-0.025
0.019
0.029
0.048
0.029
0.011
-0.032
0.065
-0.044
0.059
0.070
0.020
0.041
0.054
0.010
0.016
0.022
-0.004
0.011
0.010
0.128
0.029
0.022
-0.006
0.018
0.006
0.023
0.010
0.072
0.056
0.022
-0.023
0.025
-0.003
0.079
0.022
0.005
0.058
-0.007
0.098
0.053
0.032
0.007
0.035
0.018
0.039
-0.056
-0.024
0.045
0.088
0.016
0.067
0.019
0.003
-0.005
0.068
0.771
-0.147
-1.273
-0.273
0.610
0.571
0.267
-0.080
-0.091
-0.131
-0.044
0.035
0.048
0.008
0.031
0.149
0.029
0.057
-0.003
0.102
0.043
0.039
0.054
0.018
-0.048
-0.071
0.080
0.047
0.031
0.028
-0.010
0.091
-0.027
-0.019
0.005
0.095
-0.015
0.174
0.204
-0.051
-0.382
-0.148
0.121
0.241
0.197
0.055
-0.052
-0.009
-0.089
-0.068
0.034
-0.019
0.087
0.099
0.110
0.073
0.050
0.091
0.001
0.021
0.067
-0.048
0.056
0.063
0.069
-0.001
0.025
0.062
0.046
0.079
0.080
-0.001
0.030
0.045
-0.021
0.025
0.042
-0.029
0.052
0.072
0.035
0.069
-0.014
0.043
0.049
0.083
-0.009
-0.032
0.098
0.012
-0.000
0.096
0.007
0.016
-0.005
0.077
0.020
0.054
-0.010
0.085
0.020
0.007
0.025
-0.003
0.002
0.012
0.072
-0.009
0.084
-0.026
0.057
0.025
0.022
0.059
0.004
-0.006
0.018
0.308
0.795
-0.657
-1.099
0.088
0.672
0.531
0.161
-0.036
-0.196
-0.160
-0.087
-0.019
0.160
0.017
0.058
0.075
0.143
0.056
0.050
-0.063
0.061
0.005
0.049
-0.054
-0.021
-0.029
0.038
0.109
0.005
0.051
0.097
0.031
-0.006
0.007
0.027
-0.037
0.060
0.053
0.028
0.098
0.054
0.022
0.039
0.032
-0.015
0.099
0.233
-0.074
-0.338
-0.102
0.111
0.184
0.176
0.002
-0.070
-0.039
0.019
0.022
-0.053
0.020
0.070
0.094
0.080
0.047
0.090
0.008
0.097
0.039
-0.008
0.055
0.004
0.043
0.026
0.040
0.019
0.072
0.091
0.068
-0.042
0.054
0.008
-0.047
0.047
-0.007
0.031
0.005
0.075
0.073
0.006
0.049
-0.002
-0.006
0.064
0.014
-0.000
0.032
0.073
-0.029
0.008
0.007
0.060
-0.006
-0.016
0.064
0.064
0.032
0.016
0.026
0.000
-0.014
0.024
0.006
0.052
0.071
0.038
0.062
0.080
-0.017
0.077
-0.011
-0.020
0.067
0.093
0.085
0.382
0.575
-1.046
-0.887
0.335
0.775
0.350
-0.002
-0.080
-0.085
-0.092
-0.099
-0.034
0.099
0.088
0.036
0.047
0.109
0.042
0.059
0.103
-0.031
-0.044
-0.010
-0.015
0.004
0.040
0.039
0.003
0.005
-0.056
0.028
0.017
0.081
0.138
0.087
-0.014
-0.042
-0.022
0.029
0.045
-0.037
0.068
0.339
0.155
-0.336
-0.306
0.085
0.253
0.125
0.018
0.002
0.049
0.055
0.026
0.020
0.040
-0.003
0.071
0.024
0.057
-0.031
0.093
0.056
-0.027
-0.009
0.017
0.060
-0.005
-0.030
0.059
-0.045
0.089
0.119
0.011
-0.003
0.058
0.002
-0.094
0.025
0.103
0.148
-0.052
0.000
0.061
0.028
-0.054
0.048
0.011
-0.042
0.081
0.079
0.029
0.055
-0.028
0.037
0.109
-0.038
0.007
0.022
0.096
0.026
-0.004
-0.007
0.042
0.022
-0.019
0.020
0.813
-0.123
-1.372
-0.276
0.544
0.653
0.274
-0.031
-0.121
-0.030
-0.142
-0.053
0.025
0.086
0.108
0.014
-0.026
0.084
0.097
0.078
0.047
0.117
-0.001
0.011
-0.027
-0.067
0.063
0.024
0.070
0.072
-0.068
0.007
0.069
0.016
0.131
-0.015
0.008
-0.011
-0.024
-0.070
0.085
0.032
-0.017
0.064
-0.022
0.004
0.060
0.043
0.086
0.052
0.061
0.069
-0.029
0.020
0.052
0.046
0.038
0.025
0.076
0.015
-0.004
0.052
0.052
0.006
0.029
0.022
0.182
0.129
-0.138
-0.248
-0.046
0.123
0.225
0.146
0.029
-0.063
-0.048
0.064
-0.004
0.067
0.094
0.063
0.078
0.054
0.073
0.044
0.024
0.036
0.035
0.025
0.039
0.011
-0.006
0.032
-0.033
0.124
0.053
0.036
-0.017
0.039
-0.083
0.022
0.028
0.049
0.100
0.011
-0.019
0.064
0.070
0.043
0.114
-0.085
0.070
0.011
0.085
0.075
0.017
-0.000
0.015
0.062
0.053
-0.024
-0.019
0.012
0.125
0.025
0.006
0.036
0.054
0.047
0.063
-0.036
0.014
0.032
0.492
0.515
-1.154
-0.811
0.301
0.796
0.445
0.093
-0.064
-0.163
-0.195
-0.070
0.017
0.108
0.198
0.110
-0.005
0.076
0.108
0.029
-0.028
0.040
0.119
-0.032
0.064
-0.013
0.040
-0.065
0.030
0.034
0.022
-0.032
-0.070
0.189
0.110
0.016
-0.009
0.014
0.057
0.085
0.039
-0.030
0.021
0.008
0.092
0.064
0.017
0.050
0.058
-0.000
0.027
0.229
0.021
-0.312
-0.139
0.108
0.333
0.161
0.057
-0.024
-0.006
-0.024
0.068
-0.028
-0.015
0.016
0.057
0.060
0.129
0.018
0.007
0.017
0.025
0.043
0.032
0.097
0.045
-0.008
-0.058
0.032
0.061
0.059
0.011
0.036
-0.001
0.011
0.098
-0.001
0.055
0.053
0.010
0.078
-0.008
0.083
0.093
0.022
0.023
-0.048
0.037
0.029
0.062
0.104
-0.021
-0.017
0.121
-0.012
0.031
-0.018
0.039
0.008
-0.019
0.056
0.049
0.049
0.012
-0.007
0.049
0.031
0.090
0.608
0.112
-1.240
-0.435
0.543
0.699
0.254
0.061
-0.135
-0.108
-0.220
-0.055
0.065
0.044
0.012
0.137
0.101
0.093
0.027
0.072
0.077
-0.007
0.008
0.019
-0.019
0.019
0.008
0.040
0.041
0.070
-0.033
0.009
0.073
-0.002
0.003
-0.004
0.050
0.029
0.086
0.034
0.063
0.118
-0.009
-0.014
-0.029
0.049
0.092
0.071
-0.030
0.055
0.014
0.025
0.068
0.002
-0.015
0.000
0.101
0.042
-0.005
0.029
-0.004
0.032
0.212
-0.074
-0.341
-0.227
0.211
0.229
0.265
0.074
0.033
-0.093
-0.056
-0.019
0.002
0.130
0.082
0.077
0.072
-0.038
0.005
-0.003
0.013
-0.004
0.035
0.067
0.042
0.038
-0.019
0.015
0.050
0.078
0.047
0.008
0.014
0.066
0.051
-0.035
0.057
0.073
0.009
0.094
0.738
-0.211
-1.230
-0.261
0.615
0.608
0.257
-0.021
-0.174
-0.131
-0.098
0.005
0.051
0.084
0.087
0.156
0.111
0.073
-0.007
-0.017
0.052
-0.003
-0.008
0.088
0.025
-0.063
0.020
0.032
0.034
0.035
0.018
0.038
0.050
0.065
0.022
0.054
0.001
0.030
0.062
0.018
0.053
0.089
-0.031
-0.073
-0.001
-0.007
0.026
0.104
0.098
0.065
-0.001
0.093
0.014
0.007
0.027
0.037
-0.037
0.089
-0.002
0.029
0.081
0.061
-0.010
0.018
0.051
-0.007
0.110
0.084
0.056
0.013
-0.008
0.115
0.003
0.070
-0.008
0.073
0.058
0.072
-0.024
-0.071
0.021
0.088
0.027
-0.020
-0.015
0.031
0.026
0.200
0.007
-0.308
-0.135
0.138
0.270
0.122
0.084
0.016
-0.077
-0.014
0.015
0.092
-0.002
0.063
0.200
0.062
0.024
0.009
0.061
0.100
-0.054
0.061
0.052
0.070
0.046
0.076
0.025
-0.044
-0.010
0.037
0.075
-0.028
0.131
-0.001
0.025
0.014
0.817
-0.209
-1.375
-0.298
0.592
0.735
0.173
-0.108
-0.180
-0.051
-0.056
0.056
0.092
0.013
0.069
0.087
0.122
0.098
0.081
0.009
0.056
0.074
0.033
0.018
-0.084
-0.018
0.086
-0.009
0.095
0.067
0.010
0.016
0.006
0.063
0.050
-0.045
0.050
0.089
-0.008
0.028
0.070
0.029
-0.017
0.066
0.081
0.022
-0.038
-0.024
0.017
-0.036
0.072
0.067
0.074
0.039
-0.025
-0.000
0.015
-0.009
0.063
0.015
0.059
0.026
0.037
-0.040
0.109
0.049
0.048
0.028
0.007
0.010
0.035
0.056
0.074
-0.010
0.001
0.012
0.011
0.041
0.124
0.015
0.062
-0.011
0.031
0.040
0.020
0.081
0.256
-0.155
-0.293
-0.088
0.154
0.143
0.229
0.096
-0.004
-0.028
-0.009
-0.070
0.027
0.142
0.116
-0.009
0.002
0.065
0.044
0.043
0.031
0.088
0.024
0.005
0.009
0.027
-0.084
0.057
0.087
0.005
0.015
-0.062
0.032
0.050
0.008
0.041
0.032
0.020
0.019
0.040
0.013
-0.040
0.124
0.003
0.028
0.088
-0.054
0.026
0.102
0.067
-0.029
0.019
0.091
0.260
0.657
-0.856
-1.053
0.262
0.652
0.519
0.123
-0.051
-0.169
-0.065
-0.075
0.041
0.033
0.035
0.106
0.148
0.039
0.084
0.023
0.048
0.008
-0.037
-0.091
-0.031
0.057
0.067
0.038
0.031
-0.007
-0.016
0.041
0.038
0.094
0.060
0.037
0.005
0.038
0.033
0.070
0.031
0.002
0.003
0.003
-0.035
0.146
0.036
0.008
0.005
0.037
0.001
-0.038
0.076
0.037
0.039
-0.012
0.066
0.115
0.027
0.052
0.054
0.029
-0.001
0.011
-0.026
0.093
0.029
0.097
0.044
0.024
-0.064
0.011
0.106
0.244
0.056
-0.294
-0.244
0.179
0.211
0.100
0.006
-0.004
-0.007
-0.065
-0.025
0.040
0.071
0.050
0.072
0.052
0.072
-0.087
0.058
0.066
-0.004
0.010
0.044
0.053
0.020
0.016
0.013
-0.027
0.019
0.044
0.062
0.054
0.039
-0.011
0.060
0.008
0.043
0.032
0.090
0.057
0.014
-0.008
-0.061
0.044
0.042
0.144
-0.020
0.016
0.052
0.019
-0.028
0.077
0.081
-0.014
-0.011
-0.010
0.015
0.024
0.082
0.000
0.040
0.117
0.706
-0.085
-1.411
-0.240
0.584
0.585
0.238
0.010
-0.147
-0.135
-0.088
-0.033
0.040
0.104
0.078
0.059
0.135
0.065
0.139
0.042
-0.014
0.124
-0.063
0.034
0.007
0.047
-0.003
-0.026
0.060
-0.043
0.106
0.019
0.077
-0.013
0.025
0.019
-0.007
0.092
0.025
0.044
0.045
-0.030
-0.031
0.063
0.053
-0.048
-0.002
0.017
0.073
0.128
0.067
-0.033
-0.023
0.058
0.084
-0.043
0.008
0.076
0.067
0.021
-0.068
0.042
-0.019
0.095
0.027
0.023
0.009
-0.009
0.076
0.262
-0.044
-0.322
-0.177
0.086
0.221
0.195
0.101
-0.021
-0.049
-0.033
0.003
0.024
0.095
0.088
-0.014
0.064
0.075
0.058
0.044
-0.001
0.118
-0.054
-0.032
0.117
0.015
0.046
0.121
-0.056
0.017
-0.003
0.014
0.076
0.020
0.092
0.052
-0.019
0.038
0.011
0.033
0.000
-0.035
0.062
0.055
0.092
0.016
-0.006
-0.062
0.046
0.656
0.349
-1.189
-0.618
0.431
0.669
0.365
0.009
-0.102
-0.148
-0.063
0.009
0.057
0.095
0.021
0.134
0.104
0.078
0.005
0.001
-0.059
0.003
0.044
0.047
0.012
-0.020
0.017
0.057
0.091
0.042
0.088
0.031
0.021
-0.017
0.052
0.100
0.094
0.049
-0.067
-0.055
0.034
-0.044
0.062
0.104
0.014
0.059
0.004
0.019
-0.009
0.017
0.039
-0.021
-0.020
0.002
0.088
0.024
-0.000
-0.006
0.041
0.031
0.086
-0.039
-0.001
0.016
0.011
0.127
0.045
-0.002
0.006
0.036
-0.028
0.075
0.036
0.064
0.036
-0.031
-0.048
0.077
0.045
-0.036
0.055
0.125
0.041
-0.016
-0.027
-0.054
0.025
0.040
0.071
0.206
0.239
-0.221
-0.260
0.026
0.223
0.225
0.062
-0.033
0.034
-0.041
-0.047
-0.041
-0.018
0.074
-0.030
-0.001
0.065
0.067
0.070
0.050
0.022
-0.028
-0.016
0.086
0.034
0.068
0.020
-0.030
0.060
0.064
0.070
0.026
0.064
0.061
0.063
0.017
-0.038
0.644
0.069
-1.230
-0.413
0.590
0.657
0.313
-0.013
-0.079
-0.160
-0.165
-0.009
0.095
0.128
0.014
0.017
0.080
0.045
0.033
0.123
-0.006
0.025
0.028
-0.015
0.086
0.006
0.016
-0.025
-0.076
0.138
-0.004
0.014
0.031
0.003
-0.033
0.069
-0.029
0.054
0.098
0.120
0.118
-0.236
-0.031
0.169
0.079
-0.016
0.023
0.089
0.118
0.001
-0.057
0.022
0.086
-0.012
-0.006
0.054
0.030
0.077
0.081
0.035
0.028
0.006
0.093
0.033
0.061
0.017
-0.015
0.002
0.078
-0.009
-0.032
-0.021
0.077
0.003
0.033
0.092
-0.001
-0.010
-0.009
0.034
0.072
0.091
0.016
-0.032
0.076
0.138
0.308
-0.210
-0.359
-0.070
0.186
0.138
0.178
0.031
0.052
-0.026
-0.036
-0.045
0.031
-0.013
0.067
0.104
0.094
0.090
0.065
0.058
0.041
-0.003
-0.040
0.087
0.027
-0.003
0.033
-0.009
0.036
0.023
0.071
-0.009
0.002
0.111
0.042
0.034
-0.039
0.007
-0.014
0.012
0.090
0.052
0.089
0.010
0.017
0.031
0.013
-0.046
0.016
0.026
0.081
0.582
0.347
-1.222
-0.507
0.497
0.619
0.255
-0.023
-0.095
-0.160
-0.061
-0.144
-0.049
0.172
0.082
0.021
0.098
0.067
0.065
0.023
0.110
0.077
0.037
0.097
-0.114
-0.070
0.075
-0.012
0.020
-0.011
0.050
0.027
0.035
-0.002
0.085
-0.031
0.060
0.057
0.032
0.012
-0.030
0.054
0.012
0.064
0.062
-0.000
0.042
-0.024
0.018
0.001
-0.014
0.117
0.074
0.006
0.011
0.026
0.087
-0.032
0.039
-0.013
0.009
0.029
0.021
0.024
0.118
0.109
-0.021
0.034
-0.039
0.029
0.087
0.001
0.034
0.071
0.219
-0.141
-0.298
-0.084
0.116
0.220
0.097
0.021
-0.034
0.009
-0.011
-0.070
0.019
0.061
0.061
0.041
0.014
0.030
-0.013
0.048
0.057
0.016
0.079
-0.034
-0.045
0.056
0.031
0.063
-0.084
0.041
0.101
0.029
0.081
-0.053
0.182
0.031
-0.007
-0.030
-0.001
0.060
-0.006
0.107
0.065
-0.001
-0.016
-0.037
-0.005
0.124
0.086
0.006
-0.081
0.016
0.096
0.021
-0.020
0.044
0.059
0.069
0.139
0.792
-0.413
-1.296
-0.031
0.632
0.576
0.117
-0.086
-0.154
-0.124
-0.055
0.074
0.081
0.022
0.088
0.062
0.134
0.051
-0.040
0.073
0.030
0.008
0.051
-0.037
0.051
-0.034
0.120
-0.018
0.023
0.066
0.094
0.102
0.002
0.046
-0.041
0.025
0.029
0.042
0.033
-0.004
0.048
0.014
0.025
0.042
0.065
0.056
0.039
-0.033
0.027
0.009
0.127
0.041
0.006
0.062
0.406
-0.268
-0.162
0.007
0.085
0.078
-0.083
0.038
0.079
0.071
-0.048
0.008
0.198
0.096
-0.259
-0.170
0.097
0.182
0.191
0.144
-0.007
-0.023
-0.067
-0.020
0.060
0.050
0.049
0.041
-0.022
0.134
0.010
0.067
0.011
0.001
-0.006
0.052
0.082
0.012
-0.014
0.049
0.036
-0.057
0.065
0.094
0.029
0.051
-0.029
-0.018
0.065
0.065
0.070
0.008
0.046
0.036
-0.079
0.011
0.009
-0.004
0.058
0.066
0.016
-0.005
-0.034
0.102
0.642
0.243
-1.227
-0.455
0.464
0.625
0.294
0.089
-0.082
-0.129
-0.117
-0.034
0.032
0.138
0.040
0.079
0.061
0.042
-0.032
0.021
0.019
0.073
0.054
-0.007
-0.031
-0.009
0.037
0.013
0.126
0.078
0.008
0.016
-0.007
0.007
0.017
-0.009
-0.018
0.041
0.067
0.030
0.026
-0.061
-0.009
0.080
0.088
-0.021
-0.068
0.067
0.080
-0.040
-0.050
0.155
0.006
0.021
-0.091
0.061
0.008
0.035
0.099
0.017
0.069
0.056
0.033
0.056
0.043
0.029
-0.026
0.054
0.105
-0.008
0.027
0.075
-0.056
-0.032
0.042
0.055
0.026
0.051
0.166
0.003
-0.362
-0.162
0.140
0.218
0.141
0.119
-0.014
-0.095
-0.031
0.027
-0.031
-0.022
0.092
0.052
0.141
0.026
0.031
0.033
0.052
-0.009
0.024
0.065
0.000
0.008
-0.010
0.005
-0.003
-0.000
0.121
0.002
0.017
0.053
0.067
0.004
-0.019
0.002
0.076
0.044
0.017
0.000
0.061
0.116
0.060
-0.011
-0.007
0.085
0.014
-0.024
-0.030
0.119
-0.008
0.037
0.040
0.596
0.113
-1.199
-0.547
0.589
0.657
0.306
-0.022
-0.218
-0.136
-0.019
-0.024
0.029
-0.004
0.075
0.075
0.048
0.029
0.078
0.165
0.020
-0.001
-0.045
0.048
-0.044
-0.010
0.077
0.008
0.013
0.050
-0.039
0.067
0.040
0.053
-0.003
0.030
0.064
-0.037
0.053
0.031
-0.006
0.104
0.019
-0.023
-0.057
0.080
0.088
0.008
0.035
0.061
0.010
0.012
0.026
0.037
0.039
0.047
0.016
0.016
0.026
0.050
-0.034
0.019
-0.011
0.070
-0.013
0.020
0.057
-0.049
0.013
0.119
0.121
0.097
-0.105
-0.010
0.021
0.085
-0.041
-0.045
0.065
0.041
0.168
0.163
-0.220
-0.269
0.010
0.154
0.164
0.144
0.017
-0.051
0.109
0.000
0.023
-0.023
0.084
0.064
0.012
0.089
-0.016
0.052
0.054
-0.003
-0.058
-0.008
0.048
0.066
0.027
0.025
0.030
-0.022
-0.026
0.030
0.076
0.080
0.013
-0.004
0.023
0.001
0.032
0.024
-0.003
0.023
0.055
0.015
-0.051
-0.014
-0.010
0.135
0.055
0.054
0.011
0.216
0.744
-0.604
-1.155
0.015
0.781
0.516
0.161
-0.104
-0.115
-0.173
0.003
-0.033
-0.011
0.168
0.091
0.088
0.089
0.112
0.048
-0.029
-0.047
0.059
0.061
-0.003
0.013
-0.020
-0.001
0.036
0.017
0.033
0.007
-0.049
0.009
0.046
0.062
0.129
0.088
0.017
0.065
0.060
0.010
0.025
-0.047
0.022
0.011
0.013
0.008
-0.007
0.035
0.080
-0.058
0.075
0.034
0.025
0.020
0.009
0.113
0.025
0.031
0.095
-0.015
0.010
0.041
0.029
0.038
0.098
0.062
-0.040
0.023
0.031
0.017
0.066
0.030
-0.052
0.022
0.027
0.121
-0.013
0.047
-0.045
0.061
0.043
0.060
0.228
0.062
-0.325
-0.193
0.150
0.252
0.128
0.108
-0.034
-0.083
-0.030
-0.014
0.031
0.039
0.030
0.028
0.076
0.061
0.024
-0.008
0.117
0.099
-0.028
-0.010
0.024
0.099
-0.014
0.015
-0.010
0.025
0.074
-0.040
0.029
0.148
0.141
0.016
-0.093
-0.012
-0.021
0.061
0.092
0.117
0.089
0.041
-0.056
-0.008
0.034
0.105
0.123
-0.004
-0.019
0.054
0.071
-0.075
0.032
0.002
0.090
0.603
0.272
-1.206
-0.540
0.440
0.691
0.347
0.034
-0.139
-0.106
-0.159
-0.036
0.018
0.083
0.073
0.077
0.054
0.049
0.124
0.001
-0.003
-0.034
0.074
0.018
0.041
-0.006
0.024
0.063
-0.001
0.047
0.002
0.048
0.040
0.004
0.018
0.032
0.060
0.094
0.069
-0.004
0.021
0.020
-0.065
0.063
0.043
0.014
-0.024
0.023
0.057
0.042
0.017
0.052
0.037
0.021
0.046
-0.012
0.103
0.025
0.012
0.013
0.267
0.140
-0.282
-0.331
-0.055
0.164
0.186
0.111
0.037
-0.005
0.057
-0.054
-0.018
-0.030
0.124
0.006
0.075
0.081
0.063
0.085
0.080
-0.005
0.019
-0.034
0.035
-0.004
0.013
0.065
0.022
0.038
0.013
0.045
0.062
0.027
0.047
0.027
0.000
0.063
0.042
0.003
-0.018
0.052
0.046
0.056
0.016
0.031
0.030
0.112
0.035
0.019
-0.004
0.002
-0.011
0.040
0.036
0.048
0.054
0.062
0.036
0.077
-0.003
0.006
0.013
0.084
0.058
0.037
0.020
0.044
0.059
-0.036
-0.009
-0.041
0.058
0.040
-0.016
0.039
0.018
0.004
0.075
0.026
-0.023
-0.026
0.065
0.248
0.737
-0.682
-1.006
-0.008
0.705
0.465
0.131
0.038
-0.089
-0.170
-0.018
-0.077
0.053
0.113
0.079
0.074
0.070
0.079
0.019
-0.023
0.010
0.067
-0.019
0.019
0.082
0.067
-0.013
-0.019
0.026
0.057
0.096
-0.008
0.052
0.184
-0.025
-0.263
-0.193
0.104
0.159
0.161
0.067
-0.036
0.108
0.008
-0.078
-0.020
0.062
0.016
0.074
0.021
0.028
0.118
0.031
0.080
0.078
0.008
0.031
0.042
0.045
0.053
-0.046
0.053
0.008
0.002
0.060
0.081
0.086
0.019
0.036
-0.105
0.043
0.139
0.011
0.057
-0.008
0.085
0.044
0.002
0.069
0.044
0.050
0.049
0.045
0.055
0.086
-0.015
-0.005
0.059
0.018
0.053
0.065
0.007
0.009
0.091
0.015
0.042
0.035
-0.012
0.043
0.063
0.057
-0.039
0.019
-0.047
0.045
0.072
0.082
0.019
-0.036
0.017
-0.030
0.030
0.095
0.047
0.033
0.005
-0.030
-0.015
0.071
0.067
0.036
0.093
-0.041
-0.043
0.024
0.087
0.077
-0.003
0.016
0.035
0.136
0.112
0.774
-0.430
-1.223
-0.148
0.648
0.554
0.193
-0.049
-0.237
-0.090
-0.090
-0.028
0.077
0.037
0.063
0.149
0.072
0.005
0.086
-0.027
0.018
0.081
0.025
0.021
0.062
0.006
-0.022
-0.008
0.030
0.007
0.012
0.021
0.022
0.046
0.100
0.206
-0.060
-0.321
-0.214
0.124
0.227
0.169
0.108
-0.028
-0.155
-0.045
0.022
0.032
0.033
0.008
0.099
0.030
-0.004
-0.020
0.061
0.066
0.021
0.078
0.020
0.019
-0.022
0.031
0.034
0.053
0.054
-0.027
0.011
-0.049
0.073
0.051
0.037
0.065
-0.006
-0.018
0.071
0.158
0.023
0.031
0.027
-0.006
-0.036
-0.022
0.068
0.038
0.061
-0.031
0.024
0.007
-0.019
0.080
-0.023
0.026
-0.030
0.003
0.021
0.097
0.012
0.059
0.013
0.027
0.065
0.025
0.023
-0.046
0.006
0.028
0.006
0.064
-0.013
0.071
-0.004
0.010
0.102
-0.045
0.038
-0.034
0.009
0.009
0.078
0.075
-0.025
0.001
0.030
0.034
0.085
0.047
0.023
0.034
0.018
0.018
0.064
0.025
0.083
-0.001
0.061
0.065
0.040
0.023
0.045
0.111
0.747
-0.410
-1.314
-0.110
0.648
0.553
0.262
-0.008
-0.176
-0.170
-0.109
-0.019
0.009
0.068
0.095
0.115
0.136
0.010
0.030
0.037
-0.007
-0.049
-0.012
0.025
-0.003
0.031
-0.043
0.011
0.025
0.058
0.070
0.191
0.237
-0.209
-0.362
-0.036
0.176
0.332
0.154
0.052
0.030
-0.080
-0.111
-0.006
0.029
0.097
0.010
0.059
0.016
0.018
0.085
0.008
0.087
0.009
0.004
0.060
-0.058
0.009
0.022
0.058
0.014
-0.030
-0.016
0.063
0.109
0.085
0.045
-0.045
0.088
0.027
-0.020
0.043
-0.030
0.081
0.007
0.012
0.071
0.000
-0.019
0.019
0.105
0.094
-0.004
-0.029
0.065
0.066
0.029
-0.044
0.138
0.026
-0.172
-0.071
0.182
0.074
-0.087
-0.048
0.146
0.125
0.009
-0.070
0.080
-0.007
0.014
0.031
0.111
-0.008
-0.013
-0.005
0.067
0.044
0.041
0.026
-0.021
-0.005
0.045
0.058
0.068
0.074
-0.049
-0.043
0.040
0.105
0.003
-0.007
0.083
-0.001
0.050
0.003
0.074
0.036
0.031
-0.054
-0.045
0.058
-0.023
0.059
0.026
0.024
-0.042
0.103
0.024
0.077
-0.021
0.015
0.043
0.010
0.058
-0.034
0.027
0.015
0.101
0.211
0.013
-0.188
-0.192
0.090
0.197
0.192
0.090
0.066
0.023
0.005
-0.025
-0.048
0.009
0.247
0.706
-0.385
-1.208
0.005
0.650
0.486
0.204
-0.106
-0.138
-0.088
0.032
-0.025
0.042
0.033
0.043
0.097
0.107
0.104
0.086
0.043
0.016
0.037
0.004
-0.024
-0.048
-0.013
0.043
-0.006
0.017
0.093
0.078
-0.065
-0.012
0.066
0.012
0.006
0.034
-0.010
0.017
0.099
0.051
0.047
0.044
0.006
-0.037
-0.052
0.064
0.100
0.090
0.025
-0.048
0.010
0.074
0.063
0.072
-0.003
0.052
0.029
0.074
-0.007
-0.005
0.094
0.005
0.093
0.020
-0.024
-0.094
0.035
0.053
0.008
-0.009
0.024
0.008
0.031
0.082
0.073
-0.011
0.032
0.047
0.043
-0.008
-0.057
-0.046
0.088
-0.018
0.062
0.105
0.020
-0.025
-0.015
0.050
0.045
-0.037
0.102
0.023
0.040
0.013
0.033
0.050
0.105
-0.014
0.026
-0.002
0.007
0.068
0.115
0.008
0.094
0.006
-0.033
0.081
0.045
0.013
0.056
0.199
0.039
-0.198
-0.195
0.181
0.179
0.197
0.085
-0.094
-0.056
-0.039
0.100
0.021
0.027
0.016
0.110
0.058
0.086
0.026
0.001
0.126
0.629
0.132
-1.264
-0.427
0.433
0.670
0.339
0.023
-0.153
-0.172
-0.083
-0.025
0.011
0.110
0.069
0.055
0.055
0.079
0.114
0.031
-0.021
0.019
-0.035
-0.081
0.051
0.009
0.047
-0.001
0.052
0.000
-0.003
0.006
0.103
0.050
0.056
0.060
0.057
0.036
-0.017
0.017
0.013
0.007
0.115
0.093
-0.005
-0.007
0.027
-0.058
0.085
0.139
0.050
-0.054
0.052
-0.039
-0.036
0.028
0.025
0.021
-0.049
0.043
0.012
-0.001
0.054
0.078
0.094
0.039
-0.004
0.025
0.009
-0.019
0.132
0.075
0.022
-0.050
0.036
0.084
0.015
0.084
0.030
-0.011
-0.035
-0.027
0.026
-0.030
0.045
-0.018
0.118
0.031
0.050
-0.056
0.001
0.045
0.041
0.033
-0.058
0.080
0.051
0.034
0.045
0.038
0.033
-0.036
0.121
0.040
0.077
0.037
0.038
0.081
0.008
0.114
-0.001
-0.007
0.077
0.027
0.018
-0.020
0.129
0.074
-0.029
0.103
0.161
-0.141
-0.323
0.046
0.114
0.133
0.101
0.010
0.003
0.019
0.020
0.005
-0.061
0.042
0.547
0.403
-1.215
-0.581
0.439
0.699
0.309
0.025
-0.066
-0.227
-0.131
-0.050
0.051
0.018
0.093
0.053
0.106
0.037
0.110
0.082
0.022
-0.005
0.038
0.118
0.007
0.105
-0.014
-0.031
-0.033
0.050
0.039
0.015
0.058
0.089
-0.055
0.013
-0.003
0.073
0.027
0.090
0.058
0.002
0.021
0.019
0.018
0.017
0.019
-0.009
0.030
-0.021
0.050
0.003
0.073
-0.001
0.005
0.026
0.048
0.090
0.050
0.030
0.053
0.023
0.034
0.034
0.016
-0.037
0.018
-0.008
0.083
0.170
0.052
0.028
0.055
-0.007
-0.046
0.125
0.073
0.057
0.046
0.004
0.017
0.028
0.045
-0.032
0.020
0.050
0.054
0.062
-0.012
0.040
0.058
0.035
0.012
0.038
0.054
0.339
-0.078
-0.366
-0.135
0.139
0.213
0.131
0.042
-0.070
-0.028
-0.077
0.043
0.128
0.062
-0.007
-0.048
0.090
0.154
0.086
0.064
0.094
0.055
-0.027
-0.015
0.022
0.066
0.016
0.052
0.019
0.055
-0.027
0.015
0.061
0.035
0.015
0.018
0.016
0.011
0.029
0.092
0.038
0.004
0.085
-0.038
0.013
0.032
0.193
0.784
-0.667
-1.126
-0.019
0.686
0.612
0.153
-0.052
-0.106
-0.168
-0.054
-0.048
-0.051
0.128
0.148
0.130
0.060
-0.033
0.071
0.065
-0.042
0.005
0.092
-0.042
-0.005
0.038
0.020
0.039
0.077
0.010
0.006
0.040
0.048
0.066
0.019
0.045
0.057
0.035
-0.001
-0.011
0.073
-0.004
0.020
0.066
0.031
-0.054
0.021
-0.030
0.055
0.054
-0.028
0.078
0.002
0.056
0.029
0.029
0.080
0.020
0.078
0.022
0.016
0.015
0.031
0.022
0.025
0.000
-0.041
0.081
0.051
0.000
0.049
0.110
0.056
-0.037
0.024
0.178
0.101
-0.257
-0.349
0.087
0.192
0.252
0.031
0.114
-0.059
-0.056
0.006
0.034
0.111
-0.036
0.053
0.001
0.115
0.096
0.075
0.002
0.016
0.043
0.095
-0.025
0.042
0.039
0.046
-0.016
-0.041
0.003
0.041
0.052
0.051
0.016
0.028
0.056
0.076
0.035
0.050
0.040
0.040
0.014
0.039
0.107
0.007
-0.033
0.080
0.044
0.081
-0.021
0.015
0.008
0.025
-0.055
0.037
0.082
0.059
0.040
-0.043
0.050
0.114
0.158
-0.043
0.041
0.032
0.014
-0.062
-0.006
0.059
0.082
0.021
-0.029
0.009
0.065
0.108
0.032
0.068
0.043
0.033
-0.035
0.038
0.034
0.023
0.068
0.009
0.049
0.049
0.019
-0.042
0.070
0.039
0.073
0.168
0.854
-0.606
-1.146
0.087
0.694
0.407
0.120
-0.045
-0.153
-0.108
-0.131
-0.011
-0.008
0.086
0.084
0.051
0.132
0.000
0.122
0.071
0.027
0.025
0.027
-0.011
-0.060
0.024
0.068
-0.002
0.021
-0.049
-0.008
0.114
0.033
0.052
0.060
-0.009
-0.011
0.015
0.058
0.019
0.084
-0.050
0.067
0.067
-0.004
0.003
0.074
0.085
0.050
0.118
0.235
-0.246
-0.315
-0.011
0.117
0.269
0.108
0.006
0.089
-0.009
-0.015
0.030
0.071
-0.061
0.031
0.069
0.105
-0.000
-0.037
0.025
0.087
0.072
-0.002
-0.028
-0.024
0.089
0.155
0.046
0.018
-0.001
0.055
0.020
0.035
0.117
-0.025
-0.046
0.095
0.033
0.078
-0.057
0.101
-0.025
0.046
0.019
0.045
0.050
0.075
0.008
0.007
0.044
0.050
0.101
-0.024
-0.036
0.092
0.060
-0.032
-0.019
0.071
0.046
-0.002
0.079
0.137
0.033
0.030
-0.034
0.004
0.010
-0.030
0.035
0.077
0.070
-0.002
-0.018
-0.002
0.104
0.090
0.006
0.031
-0.022
0.086
0.030
0.030
-0.022
0.120
0.034
0.049
0.082
0.037
0.038
-0.012
0.056
-0.004
0.071
0.099
0.013
0.008
0.001
0.027
0.043
-0.056
0.058
-0.041
0.011
-0.026
0.087
0.144
0.029
0.025
0.004
-0.023
0.034
0.119
0.041
-0.005
0.056
0.020
-0.114
-0.008
0.051
0.154
0.067
-0.017
0.049
-0.020
0.109
0.067
0.097
0.009
0.070
0.009
-0.012
0.071
0.004
0.042
0.509
0.360
-1.212
-0.741
0.441
0.683
0.403
0.118
-0.034
0.087
-0.204
-0.421
-0.166
0.196
0.291
0.183
0.125
0.035
0.025
-0.001
0.000
0.011
0.031
0.052
0.037
0.024
0.023
0.027
0.062
0.056
-0.001
-0.006
0.009
0.014
0.003
-0.004
0.115
0.027
0.045
0.018
0.046
0.022
-0.043
-0.031
0.061
0.014
0.046
0.044
0.027
-0.014
0.036
0.045
-0.035
0.034
0.063
0.046
-0.075
0.012
0.044
0.033
0.012
0.041
0.065
0.015
0.099
-0.006
0.124
0.055
0.028
0.014
-0.043
0.019
0.043
0.036
-0.062
0.100
0.045
0.046
-0.027
0.085
0.039
0.092
-0.025
0.033
-0.000
0.060
0.032
0.033
0.080
0.028
-0.047
-0.004
-0.057
0.039
-0.020
0.120
0.033
0.141
-0.048
0.016
-0.025
0.003
0.104
0.105
0.074
-0.010
0.023
-0.032
-0.030
0.015
0.059
0.018
0.022
-0.011
-0.004
0.080
0.050
-0.000
-0.039
0.005
0.041
0.053
0.044
0.066
0.073
0.080
0.028
-0.048
0.015
0.100
0.031
0.005
0.007
0.028
0.127
0.055
0.000
-0.021
-0.003
0.046
0.102
-0.028
0.049
0.050
0.034
0.019
0.191
0.125
-0.137
-0.307
-0.121
0.164
0.271
0.070
0.022
0.032
0.025
-0.046
-0.026
-0.023
0.044
0.030
0.052
0.054
-0.010
-0.011
-0.058
0.156
0.068
-0.001
-0.007
0.051
0.061
0.011
0.030
0.653
0.234
-1.180
-0.587
0.394
0.604
0.371
0.137
-0.107
-0.162
-0.111
-0.068
0.009
0.050
0.189
0.110
0.111
0.034
0.074
0.049
0.015
0.072
-0.035
-0.024
0.015
-0.003
-0.044
-0.023
0.115
0.070
0.040
0.014
0.044
-0.073
0.033
0.086
0.063
0.069
0.014
0.047
0.033
0.054
-0.044
0.012
0.019
0.130
0.004
-0.034
-0.055
0.026
0.133
0.037
0.021
-0.007
0.006
-0.058
0.009
0.096
0.066
0.052
-0.048
0.039
0.004
0.046
0.020
0.047
0.123
0.050
0.012
-0.017
-0.024
0.136
0.023
0.013
0.085
0.045
0.004
0.030
0.084
-0.026
0.059
0.024
-0.007
-0.012
-0.009
0.039
0.031
0.067
-0.048
0.084
-0.070
0.005
0.046
0.155
-0.032
0.101
-0.048
-0.014
-0.001
-0.009
-0.007
0.102
0.042
0.076
0.083
0.015
0.106
-0.074
0.025
0.037
0.004
0.048
0.018
-0.029
0.065
0.085
-0.021
0.052
0.053
0.050
0.012
0.014
0.118
0.059
-0.012
0.072
0.040
0.022
0.085
0.050
0.030
0.059
0.116
0.180
-0.177
-0.341
-0.059
0.242
0.133
0.092
0.091
0.003
-0.065
-0.024
0.094
0.021
0.033
-0.009
0.066
0.066
0.033
0.036
0.046
0.088
0.038
-0.017
0.049
-0.026
-0.014
0.060
0.107
0.069
0.025
-0.045
0.047
0.000
0.079
-0.024
0.088
-0.010
0.007
0.052
0.009
-0.004
-0.000
0.087
0.109
-0.011
0.078
0.019
0.095
-0.016
-0.020
0.047
-0.005
0.037
-0.008
-0.003
-0.040
0.088
0.092
0.012
0.006
-0.054
-0.008
0.052
-0.022
0.072
0.010
-0.032
0.046
-0.002
0.063
0.070
0.003
0.060
-0.006
0.036
0.045
0.077
0.038
-0.036
0.070
-0.005
0.018
0.060
0.015
0.000
0.076
0.057
0.001
0.021
0.069
0.037
-0.032
0.004
0.012
0.013
0.053
0.058
0.044
-0.032
0.043
0.030
0.127
0.002
0.021
0.026
0.064
0.044
0.011
-0.021
0.056
0.034
0.081
-0.013
0.049
0.013
0.057
0.013
-0.002
-0.019
0.029
0.060
0.065
0.010
0.009
0.103
0.113
-0.017
-0.008
0.332
0.664
-0.935
-0.809
0.202
0.640
0.485
0.096
-0.095
-0.190
-0.067
0.031
0.146
0.134
-0.108
-0.224
0.087
0.216
0.240
0.073
0.052
-0.063
-0.061
-0.072
-0.038
0.061
-0.029
0.071
-0.022
0.134
0.033
0.016
0.030
0.040
0.011
-0.003
0.041
0.049
0.020
0.063
0.113
0.015
-0.062
0.011
0.016
0.006
0.021
0.015
-0.030
0.012
0.106
-0.022
0.065
-0.004
0.059
0.019
0.046
0.043
0.003
0.064
-0.054
0.060
0.054
0.019
0.065
0.032
0.043
-0.037
0.055
0.083
0.161
0.007
-0.035
0.018
0.042
0.071
0.016
0.018
0.040
0.049
-0.035
0.093
0.134
-0.046
-0.009
0.026
0.042
0.013
-0.069
0.069
0.124
0.057
-0.033
0.012
0.034
0.116
-0.013
0.010
0.091
-0.047
0.077
0.091
0.077
-0.040
0.055
0.082
0.120
0.025
-0.018
0.002
0.090
0.043
0.101
0.018
0.023
-0.027
0.051
0.073
-0.009
0.060
0.082
0.056
-0.003
-0.009
-0.015
0.024
0.039
0.049
0.056
0.084
0.033
0.045
-0.014
0.068
0.003
-0.004
0.084
-0.014
0.054
0.048
0.052
0.003
0.046
0.075
-0.115
-0.021
-0.021
0.113
0.105
-0.013
-0.003
0.043
-0.010
0.023
0.032
0.053
0.032
0.032
-0.006
0.031
0.042
0.072
-0.012
-0.033
0.003
0.013
0.077
0.215
0.106
-0.264
-0.233
0.106
0.146
0.099
0.174
-0.010
-0.006
-0.050
0.020
0.035
0.063
0.032
0.010
-0.007
0.118
0.057
0.015
-0.015
0.031
0.071
0.064
0.052
0.016
-0.106
-0.023
0.087
-0.006
0.050
-0.031
0.001
0.062
-0.002
0.034
0.017
0.080
0.050
-0.013
0.027
0.048
0.041
-0.013
-0.005
0.094
0.083
0.024
0.030
-0.017
-0.014
0.204
0.727
-0.622
-1.060
0.112
0.609
0.377
0.156
-0.092
-0.124
-0.156
0.018
0.099
0.065
0.020
0.082
0.002
0.036
0.171
0.069
0.025
-0.063
-0.004
0.063
0.013
0.047
0.079
0.028
0.045
0.061
-0.012
-0.013
0.094
0.019
0.056
0.028
-0.026
-0.006
-0.008
0.088
-0.010
0.047
0.021
-0.001
0.027
-0.007
0.047
0.095
0.020
0.024
0.047
0.003
-0.016
0.022
0.070
0.010
0.001
0.064
0.050
-0.015
-0.004
0.020
0.107
0.096
-0.020
0.040
0.021
0.080
0.022
0.019
0.070
0.008
0.069
0.102
0.028
0.036
0.173
-0.023
-0.258
-0.144
0.104
0.192
0.199
0.080
0.028
-0.082
-0.007
-0.003
-0.012
0.038
0.097
0.049
0.096
0.096
0.046
-0.040
-0.022
0.065
0.041
-0.002
-0.036
-0.008
0.030
0.037
0.081
0.094
0.028
0.026
0.039
-0.038
-0.012
0.008
0.039
-0.018
0.063
0.067
-0.036
0.048
0.026
0.002
0.085
0.016
0.007
-0.037
0.027
0.012
0.102
0.077
-0.018
-0.004
0.021
0.039
0.061
0.016
0.051
0.039
0.031
-0.026
0.000
0.016
0.053
0.007
0.051
0.034
0.028
0.006
-0.052
0.008
0.049
0.130
0.059
0.042
0.035
0.003
0.024
0.053
0.114
0.007
0.011
0.070
0.045
0.042
0.073
0.407
0.337
-1.072
-0.680
0.285
0.620
0.445
0.028
-0.036
-0.137
-0.092
0.005
-0.018
0.033
0.091
0.097
0.162
0.017
0.115
-0.013
0.043
0.049
0.013
0.008
0.059
0.131
0.110
-0.152
-0.286
-0.056
0.192
0.261
0.086
0.049
-0.018
-0.044
-0.039
0.015
0.110
0.017
-0.004
0.100
0.137
0.022
0.086
0.072
0.068
-0.037
-0.013
0.031
-0.073
0.055
0.070
0.035
0.071
0.020
0.058
0.006
0.033
0.075
0.037
0.038
-0.016
0.084
0.016
0.047
0.022
0.082
-0.017
0.024
0.084
0.002
0.037
0.011
-0.015
0.021
0.034
0.021
0.023
0.005
0.117
0.061
0.011
-0.009
-0.012
0.094
0.046
0.069
0.044
0.063
-0.012
-0.010
0.029
0.036
0.055
0.108
0.079
-0.015
0.069
-0.036
0.010
-0.030
0.099
0.013
0.011
0.085
0.073
0.008
-0.042
0.014
0.093
0.050
0.019
0.044
0.014
0.037
0.037
0.056
0.039
0.052
-0.017
-0.004
0.010
0.061
0.075
0.076
-0.007
0.073
-0.003
-0.009
0.103
0.040
0.021
0.042
0.051
0.035
0.412
0.555
-1.016
-0.696
0.402
0.649
0.265
0.017
-0.142
-0.046
-0.077
-0.000
-0.029
0.140
0.058
0.005
0.068
0.095
0.115
0.032
0.021
-0.018
-0.038
-0.003
0.009
0.117
0.147
0.092
-0.215
-0.221
0.028
0.165
0.231
0.082
0.067
0.045
-0.028
-0.016
0.022
0.006
0.050
-0.011
0.041
-0.018
0.107
0.031
0.024
0.018
-0.008
0.121
0.027
-0.008
0.038
0.033
0.019
0.009
0.013
0.054
0.063
-0.004
0.033
0.011
0.102
0.134
-0.028
0.021
-0.017
0.031
0.033
0.019
-0.014
0.077
0.055
0.058
0.027
0.002
0.020
-0.014
0.117
0.008
0.048
0.004
-0.059
0.023
0.049
0.096
0.026
0.018
0.015
-0.024
0.065
0.026
0.102
0.049
0.049
-0.072
0.038
0.040
-0.039
0.072
0.022
0.050
-0.035
0.010
-0.038
0.044
0.132
0.026
0.018
0.058
0.047
-0.008
0.005
0.015
0.033
0.018
0.123
0.716
-0.589
-1.064
0.119
0.665
0.464
0.113
-0.090
-0.058
-0.112
-0.053
0.053
0.034
0.091
0.081
0.133
0.041
0.050
0.068
0.128
-0.033
-0.007
-0.017
-0.030
0.094
0.049
0.307
0.003
-0.346
-0.242
0.027
0.189
0.167
0.123
-0.029
-0.009
-0.019
-0.040
0.048
0.002
0.070
0.048
0.169
0.113
-0.028
-0.047
0.038
0.030
0.016
0.007
0.014
0.035
-0.009
0.055
0.067
-0.010
0.016
0.027
0.015
-0.032
0.035
0.057
0.089
0.155
0.093
0.002
-0.035
-0.011
0.121
0.115
0.028
0.009
-0.057
0.049
0.041
0.050
0.018
0.051
0.062
0.006
0.070
0.081
0.001
0.063
0.013
0.061
0.069
-0.039
0.011
-0.026
-0.012
0.056
0.080
0.026
0.020
-0.077
0.021
0.016
0.109
0.103
0.018
0.017
-0.038
0.046
-0.008
0.036
0.090
-0.010
0.024
0.007
0.044
0.023
0.109
0.030
0.085
0.025
0.065
-0.008
0.100
0.016
0.047
-0.064
0.004
0.094
0.044
0.048
0.023
-0.024
-0.003
0.033
0.030
0.035
0.040
-0.019
0.010
0.003
0.141
0.704
-0.077
-1.231
-0.269
0.541
0.603
0.302
-0.028
-0.148
-0.142
-0.087
0.026
0.040
0.082
0.081
0.054
0.088
0.132
0.011
0.168
0.144
-0.184
-0.323
-0.032
0.120
0.180
0.066
-0.018
0.077
-0.034
-0.026
0.041
-0.033
0.081
0.056
0.009
0.085
0.119
0.010
-0.043
-0.001
0.019
0.046
0.011
-0.027
0.044
-0.040
0.035
0.047
-0.018
-0.025
0.073
0.039
0.089
-0.004
0.042
0.018
0.054
0.022
0.003
0.082
0.073
0.028
-0.001
-0.008
-0.009
0.100
0.112
0.060
0.011
-0.033
-0.048
0.095
0.076
-0.024
0.050
0.108
0.016
0.001
0.043
-0.004
0.125
-0.008
0.031
0.008
0.064
0.028
-0.025
0.027
0.005
0.106
-0.005
0.050
0.042
-0.013
0.022
0.002
0.054
0.006
0.001
0.043
0.029
0.045
0.111
0.027
0.007
0.048
-0.010
0.050
0.070
0.013
0.037
0.020
0.015
0.112
0.043
0.647
0.129
-1.327
-0.334
0.467
0.627
0.333
-0.027
-0.087
-0.118
-0.075
-0.090
0.012
0.057
0.070
0.135
0.139
0.041
0.112
0.066
0.058
0.005
-0.002
0.098
0.246
-0.050
-0.323
-0.183
0.103
0.202
0.152
0.045
-0.062
0.000
0.000
-0.005
-0.027
-0.009
0.052
0.042
0.122
0.077
0.063
-0.005
0.061
0.027
0.057
0.033
0.009
0.018
-0.008
-0.032
0.041
0.099
0.026
0.037
0.006
0.038
0.078
-0.045
-0.116
0.021
0.163
0.026
-0.094
0.002
0.130
0.144
0.090
-0.019
-0.106
0.054
0.037
0.021
0.034
0.028
0.035
0.042
0.077
-0.019
0.054
-0.004
0.018
0.029
0.027
0.032
0.006
0.008
0.060
0.050
0.059
0.016
0.046
0.059
0.037
-0.025
0.022
0.043
0.080
0.013
0.663
-0.002
-1.292
-0.348
0.691
0.665
0.229
-0.019
-0.181
-0.145
-0.045
-0.037
0.076
0.072
-0.010
0.089
0.011
0.079
0.049
0.074
0.021
-0.007
0.053
0.026
0.022
0.076
0.083
0.017
-0.059
-0.043
0.001
0.042
0.137
0.050
0.028
-0.005
0.015
-0.013
0.003
0.089
0.005
0.059
0.073
0.074
0.051
0.026
0.047
0.017
0.003
0.084
-0.000
0.016
0.022
0.010
0.125
0.024
0.123
0.044
0.005
0.113
0.253
-0.108
-0.343
-0.148
0.162
0.240
0.208
0.081
-0.051
-0.049
-0.008
-0.025
0.052
0.054
0.062
0.009
0.093
0.032
0.077
0.058
-0.004
-0.002
0.025
0.062
-0.080
0.034
-0.003
-0.031
0.038
0.049
0.028
0.002
0.095
0.163
0.060
0.030
0.039
-0.025
-0.037
-0.010
0.064
0.083
0.032
0.032
0.008
-0.017
0.052
0.008
0.086
0.038
0.002
-0.009
0.015
0.042
-0.017
0.072
0.033
0.100
0.047
-0.041
-0.082
0.068
0.041
0.037
0.036
0.043
0.034
0.031
0.067
0.017
0.000
0.132
0.727
-0.198
-1.205
-0.175
0.549
0.557
0.217
-0.057
-0.138
-0.108
-0.041
-0.007
0.060
0.091
0.079
0.147
0.036
0.011
0.051
0.087
-0.036
-0.078
0.001
0.028
-0.008
0.048
-0.075
0.017
0.052
0.101
0.039
0.006
0.044
0.036
0.021
0.031
0.067
0.090
0.004
0.039
-0.036
-0.028
0.070
0.128
-0.014
0.037
0.017
0.052
0.055
0.003
0.018
0.023
0.061
0.022
0.072
0.043
-0.012
0.039
0.060
0.019
-0.015
0.065
-0.034
0.069
0.077
0.051
-0.024
0.108
0.043
-0.040
0.196
0.127
-0.291
-0.212
0.036
0.136
0.229
0.070
-0.006
0.020
-0.027
-0.039
-0.047
0.023
0.044
0.167
0.060
0.083
0.053
-0.013
0.028
0.024
-0.016
0.025
0.054
0.006
0.022
-0.011
0.047
-0.019
0.047
0.043
0.046
0.034
0.027
-0.050
-0.006
0.029
0.129
-0.029
0.043
0.066
0.018
0.017
0.069
0.016
0.032
0.570
0.439
-1.138
-0.598
0.406
0.607
0.482
0.053
-0.141
-0.236
-0.114
0.000
0.004
0.064
0.098
0.134
0.136
0.033
-0.003
0.068
0.108
-0.017
0.063
-0.019
0.024
-0.028
0.031
-0.037
0.034
-0.016
0.064
0.013
0.018
0.054
-0.003
0.010
0.032
0.067
0.018
-0.051
0.048
0.025
-0.001
0.097
0.091
0.029
-0.002
0.055
0.058
0.050
0.025
0.067
0.073
0.007
0.001
-0.043
0.100
0.054
0.073
0.036
0.023
0.051
0.087
-0.021
-0.074
0.128
0.096
-0.040
0.005
-0.019
0.078
0.091
0.079
0.016
0.023
-0.066
0.021
0.029
0.014
0.047
0.066
0.020
-0.008
0.039
0.013
0.062
-0.020
-0.026
0.076
0.029
0.006
0.040
0.052
0.007
0.049
0.019
-0.032
0.049
-0.002
0.026
0.011
0.067
0.069
0.007
0.100
-0.023
0.061
0.002
0.039
0.081
0.002
0.000
0.047
0.087
0.082
-0.023
0.073
0.024
0.087
-0.035
0.026
0.045
0.059
0.060
-0.017
-0.050
0.061
0.040
0.039
0.053
0.067
0.067
-0.073
0.059
0.072
0.039
0.277
-0.030
-0.304
-0.208
0.101
0.224
0.329
0.703
-0.731
-1.009
0.017
0.687
0.450
0.039
-0.138
-0.048
-0.052
-0.012
0.061
0.060
0.121
0.081
0.016
0.128
0.062
-0.033
-0.063
0.011
0.010
0.038
0.024
-0.011
0.060
-0.002
0.119
0.013
0.058
0.000
0.027
0.003
0.062
0.045
0.070
-0.058
0.053
0.015
0.034
0.100
0.011
-0.022
-0.028
0.004
0.049
0.067
0.071
-0.047
0.067
0.032
0.016
0.049
0.018
0.066
0.007
0.057
-0.048
0.015
-0.008
0.020
0.109
0.055
-0.016
0.038
0.052
0.042
0.010
-0.011
0.071
-0.034
0.025
0.029
0.040
0.032
0.022
-0.009
0.028
0.016
0.060
-0.003
-0.006
0.076
0.070
0.012
0.002
0.026
0.004
0.081
0.040
0.017
0.017
0.013
0.012
0.075
0.050
-0.011
0.088
0.004
0.049
0.009
0.080
0.040
0.062
0.006
-0.012
0.072
0.101
0.045
0.057
0.002
0.037
0.056
-0.025
-0.027
0.054
0.001
0.029
-0.090
0.024
0.045
0.043
0.030
-0.008
0.039
0.124
0.737
-0.232
-1.188
-0.216
0.600
0.526
0.137
-0.056
-0.123
-0.107
-0.057
0.076
0.037
0.101
0.149
0.184
-0.214
-0.087
0.077
0.284
0.130
0.039
0.030
0.021
-0.093
-0.022
-0.035
0.050
0.060
0.012
0.063
-0.073
0.157
0.087
0.009
-0.008
0.047
0.068
0.033
-0.023
-0.025
0.081
0.049
-0.012
0.016
0.020
-0.066
0.012
0.068
0.047
0.055
0.022
-0.039
0.033
0.065
-0.015
-0.010
0.012
0.101
0.144
0.017
0.010
0.074
0.053
0.009
0.107
-0.019
-0.069
0.011
0.052
0.103
0.037
-0.018
0.053
0.048
0.048
0.017
0.019
0.042
0.020
0.044
0.016
-0.024
0.028
0.102
0.041
-0.041
0.090
0.081
0.049
-0.047
0.011
0.049
0.051
0.059
0.034
0.092
0.075
-0.054
-0.038
0.043
0.134
0.010
0.026
0.070
0.007
0.028
-0.042
-0.004
0.013
0.000
0.051
0.047
0.035
0.042
0.014
0.018
0.033
0.022
0.063
0.015
0.005
0.000
0.026
0.102
-0.048
0.068
0.040
0.029
0.223
0.739
-0.862
-0.984
0.183
0.773
0.448
0.077
-0.125
-0.155
-0.130
0.065
0.063
0.019
0.112
0.119
0.088
0.070
0.060
0.044
0.055
0.059
-0.028
0.017
0.049
-0.017
-0.044
0.037
-0.002
0.042
0.055
0.034
0.011
0.018
0.004
0.042
0.011
0.025
0.048
0.058
0.054
0.041
0.023
0.029
0.076
0.054
-0.004
0.028
0.167
0.134
-0.192
-0.267
0.071
0.152
0.220
0.118
0.097
0.017
-0.063
-0.034
-0.034
0.081
0.070
0.101
0.073
0.040
0.046
0.015
0.006
0.027
0.032
-0.024
0.064
0.056
0.021
0.048
0.005
0.018
0.034
0.056
-0.060
0.076
0.051
0.033
0.070
-0.060
-0.045
0.092
0.001
0.048
0.074
0.034
0.036
0.033
-0.017
0.060
0.058
-0.022
-0.027
0.058
-0.009
0.082
0.028
0.017
0.034
0.012
0.055
0.004
0.041
-0.001
0.086
-0.040
-0.037
0.051
0.015
0.045
0.021
0.142
-0.021
0.062
0.038
0.008
-0.059
0.023
0.111
-0.019
0.064
0.283
0.662
-0.906
-0.928
0.174
0.690
0.494
0.079
-0.126
-0.173
-0.088
-0.018
0.178
0.010
0.059
0.083
0.081
0.144
0.121
0.051
0.001
0.020
-0.021
-0.003
-0.017
-0.024
0.004
-0.025
0.010
0.025
0.086
0.107
0.043
-0.066
-0.025
0.026
0.061
-0.052
0.077
0.048
-0.011
0.024
0.098
0.027
-0.012
0.042
0.018
0.072
0.078
-0.084
0.082
0.088
0.058
0.035
0.051
0.064
-0.002
0.035
-0.023
-0.042
0.049
0.058
0.037
0.066
-0.012
0.042
0.030
0.020
0.094
-0.030
0.088
-0.102
0.007
0.139
0.011
0.015
0.000
0.006
0.024
0.035
-0.024
0.076
0.089
-0.059
-0.058
0.002
0.027
0.035
0.013
0.007
0.064
0.018
0.033
0.149
0.019
-0.288
-0.167
0.230
0.129
0.193
0.018
-0.023
0.072
-0.034
-0.037
0.027
0.022
0.050
0.053
0.048
0.007
0.101
0.118
0.047
-0.022
-0.056
0.002
0.025
0.071
0.047
-0.001
0.028
0.040
0.048
0.013
0.051
0.029
-0.044
0.045
0.036
0.555
0.412
-1.090
-0.647
0.302
0.635
0.337
0.138
-0.108
-0.077
-0.092
-0.053
-0.067
0.089
0.071
0.070
0.058
0.115
0.069
0.024
0.000
0.022
-0.079
0.054
0.000
0.081
-0.023
-0.022
0.086
0.100
0.086
0.075
-0.036
-0.066
0.096
0.047
0.024
0.024
0.111
0.087
-0.022
0.004
0.093
0.047
0.041
0.078
0.008
-0.012
-0.105
-0.017
0.069
0.109
0.069
-0.020
0.015
0.029
-0.026
0.046
-0.014
0.066
0.093
0.078
0.028
0.056
0.002
0.031
0.023
0.051
0.071
0.031
-0.003
0.013
0.057
-0.087
-0.002
0.013
0.066
0.034
0.052
0.055
0.003
0.023
0.037
-0.014
-0.002
0.034
0.073
0.047
0.041
0.034
0.020
0.060
-0.026
0.019
0.007
0.087
0.069
-0.012
0.100
0.051
0.003
0.056
0.007
0.020
0.039
0.067
0.070
0.020
0.070
0.013
0.049
0.014
0.037
0.009
-0.033
0.062
0.017
0.088
0.069
0.734
-0.132
-1.271
-0.319
0.595
0.593
0.280
-0.068
-0.167
-0.106
-0.074
-0.065
0.041
-0.009
0.104
0.048
0.150
0.027
0.120
0.039
0.095
-0.028
-0.029
0.058
-0.014
0.072
-0.011
0.046
0.054
-0.033
0.006
-0.039
0.031
0.082
-0.020
0.061
0.034
0.018
-0.015
0.046
0.041
0.047
0.044
-0.049
0.052
0.098
0.254
-0.119
-0.296
-0.021
0.152
0.199
0.142
-0.047
-0.097
-0.044
-0.023
0.107
0.099
0.001
-0.028
0.044
0.039
0.099
0.038
-0.028
0.043
0.048
-0.016
0.004
0.000
0.025
0.071
-0.035
-0.003
0.071
-0.002
0.060
0.117
0.010
0.048
0.037
0.051
0.005
0.023
0.030
0.039
-0.036
0.024
0.068
0.064
0.071
0.063
0.027
0.036
0.077
0.040
0.033
0.019
0.109
-0.009
0.015
0.040
0.071
0.016
0.017
0.064
0.025
0.111
-0.011
-0.040
0.037
0.052
0.091
0.057
-0.006
0.061
0.027
0.040
-0.069
0.001
0.093
0.057
-0.005
0.051
-0.008
0.081
0.073
0.062
0.086
0.070
-0.059
0.093
0.013
0.096
0.008
0.057
0.025
0.100
0.072
0.029
-0.063
0.124
0.033
-0.026
-0.038
-0.014
0.073
0.072
0.066
-0.009
0.086
0.062
-0.049
0.231
0.649
-1.026
-0.842
0.338
0.635
0.394
0.110
-0.093
-0.050
-0.105
-0.012
-0.074
0.019
0.045
0.119
0.101
0.014
0.134
0.062
0.048
-0.041
0.019
-0.036
0.044
0.096
0.039
0.014
-0.004
0.022
0.014
0.045
0.028
0.062
-0.034
0.091
-0.028
0.054
0.103
0.113
0.038
-0.029
-0.023
-0.014
0.041
0.061
0.079
-0.004
-0.026
0.043
0.077
0.031
0.079
0.017
0.025
0.121
0.183
-0.091
-0.297
-0.141
0.177
0.190
0.210
0.079
-0.035
0.025
-0.005
-0.037
0.026
0.062
0.038
0.095
0.063
0.057
0.075
0.130
0.031
0.095
-0.038
0.046
0.003
-0.059
0.021
-0.018
0.042
0.060
0.005
0.087
0.024
0.150
-0.024
-0.028
0.022
0.032
-0.017
0.089
0.068
0.032
0.054
-0.005
-0.051
0.040
0.091
0.025
0.105
0.037
-0.004
0.013
0.010
0.069
0.067
0.013
-0.017
0.062
0.079
0.037
-0.019
-0.095
0.062
0.025
0.035
0.022
0.009
0.109
0.810
-0.513
-1.068
-0.059
0.606
0.489
0.118
-0.009
-0.195
-0.110
-0.113
0.086
0.056
0.062
0.155
0.080
0.062
0.022
0.044
-0.038
0.045
-0.010
0.002
-0.004
0.065
-0.032
0.012
0.064
0.009
0.014
0.063
0.017
-0.035
-0.032
0.109
0.025
0.057
-0.007
0.027
-0.032
0.078
0.062
0.043
0.014
0.006
-0.041
0.036
0.090
0.035
0.001
0.068
-0.009
0.035
0.052
0.057
-0.001
0.096
-0.023
0.225
-0.240
0.029
0.059
0.158
-0.063
-0.104
0.079
0.092
0.085
-0.001
-0.085
0.007
0.023
0.050
0.153
0.248
0.076
-0.327
-0.242
0.089
0.182
0.233
0.177
0.020
-0.057
-0.056
-0.014
0.027
0.083
-0.022
0.027
0.106
0.045
0.109
0.023
0.081
0.041
0.006
0.087
0.014
-0.006
0.003
-0.002
0.024
0.095
0.021
-0.000
-0.039
0.060
0.008
0.002
0.106
0.052
0.032
-0.005
0.061
0.062
0.039
0.355
0.554
-1.054
-0.732
0.259
0.653
0.416
0.072
0.001
-0.185
-0.071
-0.013
-0.003
0.028
0.099
0.051
0.033
0.036
0.035
0.086
0.124
0.064
-0.066
-0.019
0.004
0.057
0.058
-0.026
0.042
-0.041
0.069
0.011
0.019
0.009
0.081
0.057
0.009
0.023
0.034
-0.048
0.072
0.044
0.050
0.047
0.046
0.023
-0.038
0.117
-0.056
0.027
0.000
0.042
0.117
0.104
-0.002
-0.012
0.010
0.054
-0.035
-0.010
0.010
-0.003
0.008
-0.007
0.033
0.093
0.069
-0.011
0.000
0.060
0.012
0.054
-0.006
0.042
0.091
-0.019
0.042
0.018
0.037
0.016
0.001
0.005
0.069
0.038
0.058
0.049
-0.060
0.030
0.007
0.095
0.081
0.012
0.020
0.003
0.036
-0.010
0.041
0.073
0.042
0.040
-0.010
0.011
0.140
0.025
0.004
-0.052
-0.017
-0.010
0.050
0.091
0.110
0.253
-0.031
-0.347
-0.251
0.155
0.250
0.268
0.104
0.082
0.019
-0.067
-0.127
-0.019
0.018
0.071
0.134
0.089
0.010
0.021
0.045
-0.007
0.096
0.066
-0.004
0.002
-0.036
0.023
0.032
0.131
-0.023
0.058
0.109
0.085
-0.056
-0.081
0.085
0.008
0.060
-0.046
0.002
0.031
0.030
0.078
0.083
0.025
0.124
0.748
-0.288
-1.227
-0.063
0.566
0.573
0.167
-0.067
-0.112
-0.081
-0.007
0.014
0.028
0.056
0.071
0.134
0.152
0.021
0.069
0.051
0.038
0.001
-0.036
-0.005
-0.078
-0.016
0.074
0.037
0.021
0.001
0.059
-0.006
0.081
0.030
0.036
0.072
-0.016
0.070
0.024
-0.014
0.094
0.033
-0.004
-0.029
0.028
-0.012
0.060
0.108
0.081
0.007
-0.013
0.031
0.081
0.125
-0.051
0.010
0.013
0.034
0.032
0.063
0.073
0.053
0.042
0.015
0.025
-0.026
0.011
0.090
0.013
-0.058
-0.015
-0.017
0.073
0.023
0.059
0.094
0.148
-0.021
-0.116
0.034
0.247
0.217
-0.137
-0.456
-0.098
0.231
0.197
0.140
0.022
0.009
0.001
0.002
0.006
-0.007
0.035
0.053
0.212
0.084
0.044
0.027
0.024
0.013
0.022
0.070
-0.011
0.027
0.015
0.030
-0.032
0.006
0.086
0.008
0.048
0.019
0.038
-0.043
0.018
0.032
0.041
0.003
0.041
0.030
-0.050
0.015
0.008
0.065
0.072
0.005
0.028
0.020
0.056
0.120
0.749
-0.644
-1.069
0.016
0.697
0.530
0.143
-0.059
-0.160
-0.057
-0.019
-0.040
0.067
0.109
0.072
0.129
0.014
0.063
0.056
-0.039
-0.040
0.044
0.048
0.003
0.011
-0.031
0.027
0.067
0.009
0.076
0.034
0.099
-0.001
0.025
0.057
0.028
-0.041
0.040
0.103
-0.045
0.003
0.018
0.027
-0.037
0.007
0.079
-0.018
-0.028
0.046
0.096
0.023
0.096
0.030
-0.020
0.013
-0.036
0.048
0.046
0.046
0.063
0.008
-0.024
0.085
0.036
0.025
-0.036
0.109
0.150
0.103
-0.218
-0.217
0.036
0.190
0.178
0.117
-0.002
-0.072
-0.028
0.033
0.073
-0.034
0.006
0.042
0.104
-0.004
0.005
0.082
0.017
-0.010
0.060
0.004
0.028
-0.043
0.010
0.058
0.022
0.040
-0.031
0.016
0.003
0.024
-0.013
0.095
0.017
0.055
-0.021
0.043
0.003
0.073
-0.010
0.004
0.042
-0.017
0.008
0.068
0.082
-0.010
0.006
-0.035
0.063
0.022
0.022
0.028
0.007
0.063
0.016
0.063
0.031
0.078
0.045
-0.010
0.021
0.044
0.088
0.041
0.016
0.015
0.018
0.276
0.658
-0.948
-0.977
0.188
0.698
0.491
0.177
-0.102
-0.151
-0.148
-0.018
0.052
0.095
0.083
0.124
0.103
0.055
-0.007
0.052
0.059
0.047
0.004
-0.056
0.083
0.025
0.139
-0.126
-0.171
-0.001
0.190
0.084
-0.043
0.047
0.095
0.038
-0.008
0.110
0.032
0.003
0.027
-0.043
0.083
-0.002
0.052
0.071
0.170
-0.024
0.050
0.023
-0.006
-0.017
0.079
-0.024
0.010
-0.063
0.039
0.265
0.126
-0.150
-0.372
0.010
0.194
0.207
0.092
0.022
0.034
-0.035
-0.028
-0.018
0.010
0.032
0.064
0.032
0.008
0.086
0.142
-0.040
0.000
0.035
0.010
0.003
0.032
0.057
0.001
0.011
0.062
-0.013
-0.063
0.036
0.052
0.086
-0.056
0.035
-0.016
-0.002
0.045
0.194
0.048
0.040
0.020
-0.032
0.024
0.081
-0.016
-0.026
-0.024
-0.014
0.019
0.085
0.037
-0.007
0.036
0.083
0.059
0.040
-0.011
0.062
0.027
0.018
-0.026
0.114
-0.005
-0.008
0.034
0.008
-0.016
0.046
0.092
0.105
-0.063
-0.002
-0.003
0.065
0.046
0.048
0.030
0.064
-0.073
0.040
0.031
0.028
-0.045
-0.007
0.108
0.033
0.674
0.075
-1.170
-0.437
0.557
0.627
0.218
0.007
-0.038
-0.147
-0.082
-0.070
0.060
0.016
0.006
0.137
0.056
0.040
0.086
0.083
0.131
-0.027
0.026
0.019
-0.088
0.034
0.051
0.046
-0.001
0.021
-0.019
-0.011
0.076
0.216
-0.006
-0.356
-0.231
0.120
0.280
0.120
0.249
-0.026
-0.171
-0.033
0.060
0.002
-0.059
-0.015
0.182
0.189
0.059
0.016
0.006
0.049
-0.003
-0.000
0.052
0.050
0.055
0.068
0.009
0.066
0.037
-0.022
-0.052
0.025
-0.006
0.057
0.099
0.062
-0.011
-0.017
0.013
0.019
0.088
0.078
-0.008
0.009
0.047
0.086
-0.000
0.003
-0.006
0.009
0.054
0.030
-0.031
0.015
0.061
0.091
0.014
-0.048
0.306
0.767
-0.660
-1.162
-0.038
0.734
0.509
0.164
-0.125
-0.130
-0.157
-0.025
-0.031
-0.008
0.080
0.085
0.076
0.072
0.088
0.048
0.083
0.080
0.056
0.048
0.013
-0.061
0.026
-0.016
0.092
-0.005
0.104
-0.003
-0.013
0.027
0.046
-0.021
0.032
-0.019
-0.004
0.006
0.075
0.002
0.021
0.045
-0.019
0.030
-0.024
0.017
0.031
0.048
0.064
0.080
-0.023
0.105
-0.029
0.006
0.097
0.079
0.078
0.029
-0.036
0.015
0.052
0.007
0.081
0.049
0.049
0.022
-0.053
0.044
-0.006
0.064
0.289
-0.127
-0.132
0.062
0.112
-0.012
-0.104
0.094
0.117
0.062
0.046
0.037
0.175
-0.030
-0.257
-0.151
0.151
0.276
0.090
0.132
-0.081
-0.090
0.024
0.010
0.055
0.017
0.026
-0.039
0.035
0.110
0.587
0.493
-1.089
-0.788
0.294
0.670
0.489
0.150
-0.108
-0.147
-0.224
-0.014
0.002
-0.008
0.050
0.074
0.180
0.055
0.034
0.022
0.038
-0.054
0.032
0.024
0.034
-0.016
-0.060
-0.013
0.019
0.083
-0.037
0.074
0.021
0.087
-0.007
-0.019
0.054
-0.005
0.080
0.119
-0.007
0.000
0.001
0.020
0.057
0.022
0.076
0.009
0.007
-0.002
0.017
0.015
0.022
0.100
0.023
0.024
0.011
0.025
0.059
0.112
-0.016
-0.005
0.070
-0.022
-0.017
0.046
0.065
-0.001
0.073
0.024
0.027
0.065
-0.008
-0.074
0.023
0.086
0.042
0.064
-0.034
-0.005
0.047
0.010
0.082
0.032
0.058
0.011
-0.005
0.048
0.023
0.114
0.062
0.016
0.025
-0.002
-0.009
-0.022
0.106
0.019
-0.031
0.014
0.069
0.036
-0.008
0.066
-0.026
0.107
-0.030
0.050
0.015
0.049
0.029
0.050
0.037
0.052
0.039
0.113
-0.022
0.103
0.211
-0.114
-0.183
-0.178
0.245
0.174
0.111
0.030
0.241
0.694
-0.854
-1.104
0.044
0.781
0.715
-0.093
-0.012
0.056
-0.055
-0.319
-0.121
0.233
0.218
0.068
0.020
0.045
0.044
-0.033
0.037
0.093
0.030
-0.016
0.001
0.034
-0.015
0.055
0.035
-0.011
0.048
0.028
0.047
0.090
-0.025
0.014
0.075
-0.015
-0.022
0.099
0.066
-0.021
0.010
0.072
-0.047
0.114
-0.029
0.041
0.035
0.000
0.035
-0.015
0.077
0.048
0.134
-0.059
-0.001
0.080
-0.004
0.045
0.055
-0.011
0.018
0.069
-0.046
0.083
0.000
0.042
-0.015
0.078
0.024
0.061
0.020
-0.067
0.088
0.108
-0.040
0.023
0.049
0.000
-0.002
0.049
0.034
-0.047
-0.005
-0.014
0.029
0.030
0.041
0.032
-0.015
0.038
0.023
-0.000
-0.013
0.038
0.093
0.054
0.017
0.038
-0.016
0.002
-0.007
0.079
0.089
0.039
-0.027
0.036
0.048
0.056
-0.010
0.030
0.002
-0.021
0.052
0.059
0.034
0.013
0.057
0.058
0.032
0.496
0.575
-1.088
-0.803
0.278
0.713
0.400
0.023
-0.092
-0.131
-0.144
-0.070
0.027
0.026
0.078
0.082
0.303
0.239
-0.240
-0.334
0.024
0.213
0.124
0.140
0.032
-0.067
-0.080
-0.023
-0.036
0.033
0.056
0.103
0.009
0.077
0.105
0.106
0.051
0.011
0.022
0.005
0.092
0.047
-0.008
0.105
-0.015
0.065
0.071
0.039
-0.034
0.030
-0.045
0.081
0.034
0.018
0.044
0.053
-0.002
0.010
0.061
0.065
0.007
0.012
-0.027
0.011
0.043
0.063
0.072
0.021
0.015
0.079
0.003
0.037
0.047
0.137
-0.087
0.020
0.048
-0.003
-0.026
0.032
0.032
0.030
0.077
0.007
-0.007
-0.018
0.008
0.146
0.071
0.108
-0.007
-0.069
-0.020
0.054
0.107
0.054
0.012
-0.013
0.295
-0.213
-0.043
0.055
0.195
-0.039
-0.050
0.115
0.166
0.080
-0.035
-0.035
-0.012
0.045
0.057
-0.032
0.116
0.352
0.489
-1.063
-0.816
0.378
0.692
0.426
0.044
-0.111
-0.155
-0.071
-0.021
-0.009
0.046
0.019
0.017
0.154
0.103
0.082
0.052
0.103
-0.004
-0.011
0.118
0.058
0.003
0.016
-0.013
-0.050
0.075
0.048
0.030
-0.010
0.007
-0.008
0.061
0.033
-0.015
0.097
0.007
0.087
0.046
0.024
0.064
0.025
0.100
0.056
0.033
0.051
0.008
0.097
0.238
-0.079
-0.289
-0.109
0.147
0.128
0.192
-0.006
-0.004
-0.027
-0.011
0.012
0.006
0.012
0.022
0.134
0.072
0.049
0.003
0.013
0.101
0.013
0.044
0.006
-0.040
0.036
0.035
0.009
0.084
-0.010
-0.005
0.032
0.068
0.079
0.059
0.082
-0.059
0.014
-0.025
0.104
0.023
0.042
0.028
0.035
0.077
0.050
0.054
0.019
0.005
0.056
0.042
0.035
-0.046
0.056
0.060
0.053
-0.010
0.037
-0.004
0.010
0.060
0.127
0.719
-0.635
-1.063
0.078
0.773
0.528
0.028
-0.110
-0.145
-0.097
0.006
0.011
-0.022
0.010
0.049
0.048
0.129
0.078
0.030
0.112
0.027
0.015
0.040
0.039
0.006
0.072
0.040
0.082
-0.004
0.037
-0.069
0.117
0.121
0.064
-0.014
0.042
-0.003
0.060
0.078
0.009
0.033
0.029
-0.040
0.077
-0.025
0.093
-0.012
0.084
0.015
-0.029
-0.000
0.037
-0.033
0.089
0.124
-0.023
-0.033
0.041
0.062
0.010
0.137
0.105
-0.023
-0.003
-0.030
-0.003
-0.020
0.077
0.041
-0.012
0.018
0.116
0.043
-0.036
0.000
0.028
0.012
0.037
0.053
0.033
0.082
0.013
-0.038
0.040
0.089
0.033
0.055
0.041
0.063
0.017
0.016
0.066
0.113
-0.002
0.027
-0.017
-0.003
-0.011
0.035
0.146
0.035
0.166
0.032
-0.301
-0.153
0.072
0.218
0.263
0.039
-0.029
-0.046
-0.081
-0.015
-0.038
0.017
0.109
0.113
0.029
0.113
-0.003
0.073
0.022
0.517
0.342
-1.217
-0.716
0.307
0.773
0.392
0.157
-0.168
-0.101
-0.105
-0.047
0.081
-0.049
0.094
0.085
0.176
0.091
0.031
0.052
0.088
-0.004
-0.024
-0.007
0.086
0.069
-0.008
0.049
-0.009
-0.024
0.008
0.124
0.033
0.063
0.067
0.005
-0.089
0.049
0.076
0.058
0.042
0.035
0.068
-0.021
0.031
0.102
0.043
-0.012
0.040
0.003
0.003
0.060
0.001
0.105
0.009
0.072
0.028
0.111
-0.002
-0.085
-0.018
0.009
0.074
0.003
0.100
0.177
-0.128
-0.122
0.061
0.152
0.038
-0.009
-0.055
0.117
0.043
0.012
0.080
-0.017
0.039
0.003
0.040
-0.025
0.087
0.037
0.066
0.020
0.013
0.059
-0.006
0.094
-0.048
0.078
-0.049
0.075
0.067
-0.024
0.009
0.083
0.042
-0.134
-0.017
0.071
0.039
0.002
0.026
0.038
0.042
0.079
0.251
0.808
-0.794
-1.055
0.143
0.697
0.463
0.106
-0.097
-0.141
-0.089
-0.066
0.029
0.005
0.123
0.133
0.088
-0.028
0.113
0.066
0.031
0.031
-0.040
0.024
-0.072
0.032
0.044
0.136
-0.026
-0.054
0.022
0.032
-0.017
0.033
0.010
0.083
-0.019
0.008
0.006
0.027
0.088
0.037
0.035
0.045
-0.019
-0.004
0.020
0.101
0.302
-0.144
-0.272
-0.170
0.164
0.184
0.192
0.097
-0.039
-0.009
0.061
-0.053
-0.085
0.034
0.013
0.134
0.056
0.158
0.007
0.083
-0.057
-0.050
0.005
0.054
0.045
0.029
0.022
-0.149
0.049
-0.002
0.020
0.070
0.086
0.045
0.014
-0.002
-0.030
0.045
0.060
0.036
-0.023
0.026
0.081
-0.007
-0.029
0.056
0.038
0.069
0.038
0.074
0.005
0.041
0.078
0.000
-0.020
0.097
0.096
-0.100
0.048
-0.011
0.092
0.024
0.029
-0.020
0.109
-0.041
-0.047
0.024
0.070
0.028
0.097
0.060
0.065
0.021
-0.067
0.010
0.055
0.109
0.037
0.026
-0.015
0.127
0.080
-0.011
0.049
-0.027
0.082
0.062
0.772
-0.239
-1.168
-0.215
0.525
0.523
0.283
-0.038
-0.228
-0.067
0.025
0.066
0.029
0.010
0.087
0.076
0.142
-0.036
0.048
-0.052
0.079
-0.064
0.004
0.023
0.013
0.011
-0.059
0.032
0.018
0.063
-0.021
0.121
0.007
0.028
0.039
0.024
0.018
0.101
0.001
0.037
0.061
-0.015
0.059
-0.004
0.097
-0.008
0.013
0.104
-0.002
0.019
0.048
-0.016
-0.012
-0.014
0.076
0.028
0.064
0.025
0.021
0.022
0.060
0.030
-0.018
0.020
-0.018
0.005
0.074
0.073
-0.014
0.080
0.095
-0.072
-0.012
0.039
0.049
0.041
0.026
-0.041
0.066
-0.015
0.034
0.036
0.080
0.187
0.174
-0.298
-0.300
0.099
0.266
0.201
0.050
-0.034
0.065
-0.006
-0.004
0.061
-0.025
0.020
0.074
0.050
0.200
-0.006
0.071
0.054
0.083
0.051
-0.013
-0.021
-0.067
-0.017
0.023
0.078
0.037
0.045
0.022
0.004
-0.009
0.017
0.072
0.012
0.087
0.473
0.493
-1.027
-0.842
0.256
0.728
0.346
0.113
-0.078
-0.091
-0.116
-0.021
0.064
0.071
0.030
0.015
0.139
0.155
0.055
0.024
-0.039
0.028
0.013
0.085
-0.044
-0.014
0.034
0.022
0.034
0.084
0.069
0.013
-0.009
0.022
0.058
0.063
0.039
0.040
-0.031
0.040
0.009
0.025
-0.025
0.056
0.019
0.114
0.041
0.069
0.005
-0.034
0.077
0.034
0.051
0.019
0.038
0.043
-0.020
0.011
0.004
0.030
0.051
0.062
0.041
0.063
-0.029
0.036
0.009
0.058
0.115
-0.002
0.105
-0.052
-0.015
0.064
0.037
0.175
0.023
0.022
0.005
-0.001
0.078
0.110
0.086
-0.018
0.056
0.022
-0.028
-0.061
0.042
0.037
0.100
0.003
-0.006
-0.015
0.032
0.032
0.101
0.031
0.052
0.031
-0.011
-0.002
0.017
0.078
0.065
-0.027
0.022
0.116
0.695
-0.041
-1.294
-0.412
0.495
0.695
0.253
-0.014
-0.064
-0.103
-0.073
0.031
0.007
0.057
0.039
0.061
0.069
-0.005
0.032
0.091
0.026
0.021
0.074
0.028
-0.011
0.006
0.013
0.002
0.089
0.070
0.009
0.002
0.003
-0.008
0.059
-0.025
0.018
0.012
0.118
0.044
0.087
-0.002
0.092
0.185
-0.042
-0.319
-0.181
0.181
0.224
0.146
0.026
-0.043
-0.083
-0.013
-0.061
0.020
0.060
0.043
0.033
-0.001
0.135
0.060
0.098
-0.001
0.079
-0.059
-0.006
0.055
0.065
-0.004
0.052
0.082
0.041
-0.070
0.021
0.042
0.058
0.051
0.015
0.061
-0.023
0.062
-0.003
0.105
0.067
0.003
-0.034
0.060
0.075
0.021
0.017
0.133
0.108
0.077
-0.035
-0.034
0.003
-0.003
0.062
0.056
0.043
0.010
0.025
0.003
0.078
0.031
0.088
-0.002
-0.068
0.010
0.040
0.089
0.010
0.005
-0.002
0.021
0.049
0.006
0.071
0.077
0.000
0.015
0.041
-0.001
0.022
0.817
-0.002
-1.331
-0.299
0.514
0.582
0.286
0.053
-0.086
-0.194
-0.084
-0.012
0.060
0.045
0.029
0.064
0.148
0.087
0.138
-0.004
-0.006
0.007
0.010
0.005
0.002
-0.000
-0.055
0.015
0.090
0.012
0.020
0.033
0.083
0.101
0.009
0.059
-0.007
0.078
0.034
0.077
0.012
0.040
-0.030
0.083
0.051
0.036
0.035
-0.066
0.060
0.048
0.019
-0.013
-0.003
-0.006
0.012
0.050
0.046
-0.006
0.048
0.015
0.061
0.014
0.077
0.013
0.070
0.102
0.239
-0.099
-0.410
-0.044
0.212
0.238
0.195
0.006
-0.009
0.031
-0.105
0.021
0.117
0.037
0.030
0.014
0.034
-0.007
0.122
0.028
0.026
0.051
0.058
0.090
-0.081
0.028
-0.032
0.165
0.017
0.009
0.029
-0.015
0.041
0.005
0.082
0.022
0.101
0.006
-0.031
-0.001
0.093
0.084
-0.075
0.038
0.071
0.037
0.036
-0.044
0.064
-0.016
0.053
0.054
0.050
-0.041
0.001
0.093
0.051
-0.026
0.005
-0.033
-0.033
0.154
0.051
0.099
0.103
0.048
-0.129
0.016
0.058
0.068
0.220
0.779
-0.666
-1.112
0.033
0.718
0.483
0.129
-0.061
-0.105
-0.062
-0.068
0.015
0.069
0.009
0.052
0.140
0.100
0.177
0.028
-0.047
-0.038
-0.010
0.015
0.067
0.072
0.022
-0.002
-0.025
0.046
-0.011
0.113
0.030
0.054
-0.039
0.049
0.097
0.018
0.082
0.081
0.008
0.048
0.017
0.056
0.011
0.013
-0.008
0.022
0.038
0.047
-0.010
0.066
0.076
-0.058
0.026
0.067
0.032
0.016
0.058
-0.013
0.093
0.006
0.075
0.105
0.047
-0.019
-0.014
0.056
0.149
0.201
-0.230
-0.339
0.042
0.289
0.160
0.055
0.024
-0.059
-0.002
-0.108
-0.034
0.016
0.097
0.064
0.053
0.087
0.068
0.088
0.012
-0.027
-0.068
0.110
0.054
0.017
-0.020
-0.001
-0.012
0.028
0.046
0.049
0.108
0.019
-0.056
-0.070
0.013
-0.004
0.113
0.007
0.076
0.056
-0.040
0.068
-0.058
-0.016
0.079
0.007
0.061
0.039
0.120
-0.007
0.096
-0.074
0.001
0.012
0.028
0.059
0.026
-0.008
-0.049
0.803
-0.130
-1.256
-0.321
0.564
0.666
0.259
0.025
-0.121
-0.091
-0.094
-0.021
-0.007
0.074
0.085
0.098
0.098
-0.006
0.104
0.013
-0.044
0.023
0.021
-0.018
0.078
-0.006
0.055
0.027
0.098
0.059
-0.013
-0.013
0.013
0.034
0.033
0.072
0.031
0.045
0.057
0.039
0.006
-0.002
0.067
0.050
0.060
0.043
-0.018
0.009
-0.065
0.082
-0.008
0.069
0.019
0.066
-0.005
0.051
-0.016
0.041
0.046
0.060
0.057
0.001
0.064
0.104
0.056
0.035
-0.021
0.026
0.002
-0.024
0.013
0.041
0.124
0.007
0.067
-0.108
-0.006
0.141
0.222
-0.154
-0.290
0.004
0.120
0.218
0.078
0.042
-0.029
0.009
-0.057
0.012
0.015
0.070
0.116
-0.005
0.119
-0.050
0.027
0.038
0.100
0.036
-0.007
0.081
0.072
0.021
-0.060
-0.014
0.064
0.025
0.040
0.031
0.025
0.035
0.060
0.030
0.039
0.021
0.050
0.018
0.012
-0.003
0.040
-0.068
0.056
0.129
0.016
0.260
0.696
-0.923
-0.962
0.110
0.765
0.550
0.135
-0.053
-0.144
-0.090
-0.054
0.019
0.081
0.040
0.043
0.099
0.031
0.041
0.065
0.023
0.028
-0.060
-0.001
0.086
-0.017
0.052
0.026
0.069
0.034
0.019
0.069
0.010
0.009
0.098
-0.008
0.099
0.024
0.057
0.056
-0.059
0.048
0.010
0.046
-0.012
0.008
0.003
0.037
0.087
-0.014
0.056
0.057
0.089
0.050
-0.015
-0.014
-0.019
0.025
0.084
0.058
0.085
-0.003
-0.011
0.058
0.025
-0.021
0.007
0.022
0.112
0.034
0.033
-0.057
0.041
0.026
0.018
-0.017
-0.021
-0.004
0.083
0.024
0.030
0.094
0.024
-0.001
0.069
-0.005
0.073
0.080
0.190
0.027
-0.210
-0.269
0.079
0.235
0.139
0.011
0.069
-0.057
-0.036
-0.031
0.043
0.031
0.059
0.070
0.054
0.059
-0.012
0.025
-0.003
0.044
0.014
0.035
0.066
0.041
0.058
-0.022
0.265
0.710
-0.888
-1.001
0.244
0.644
0.545
0.087
-0.148
-0.074
-0.058
-0.052
-0.055
0.051
-0.007
0.046
0.110
0.059
0.031
0.048
0.037
0.031
-0.006
-0.004
0.097
0.003
0.021
0.003
0.070
0.043
0.021
0.068
-0.003
0.056
0.025
0.049
0.006
-0.000
0.104
-0.043
-0.014
0.082
0.021
-0.002
0.036
-0.032
0.056
0.078
0.012
0.058
0.062
0.061
0.009
-0.056
0.014
0.114
0.064
0.016
0.012
0.036
-0.028
0.070
0.031
0.022
-0.031
0.061
0.043
0.015
0.050
-0.016
0.103
0.017
0.040
-0.006
0.029
0.011
-0.025
0.101
0.037
0.073
0.059
-0.035
0.030
0.015
0.088
0.059
0.034
0.040
0.011
0.026
-0.007
0.075
0.056
0.007
0.019
0.052
0.025
0.033
-0.008
0.047
0.014
0.062
0.073
-0.025
0.008
0.037
0.030
0.071
0.004
0.046
0.038
0.018
-0.003
0.041
0.064
0.108
0.058
0.017
-0.006
0.012
0.236
0.120
-0.203
-0.300
0.021
0.164
0.259
0.044
-0.004
-0.002
0.155
0.715
-0.685
-1.057
0.118
0.637
0.560
0.160
-0.079
-0.079
-0.090
-0.102
0.022
0.019
0.028
0.133
0.006
0.067
0.114
-0.003
-0.006
0.029
0.033
-0.029
0.036
0.033
-0.041
0.062
0.081
0.054
0.014
0.020
0.006
-0.002
0.062
0.098
0.004
-0.021
-0.027
-0.006
0.047
0.035
0.012
0.034
-0.017
0.090
0.125
-0.014
0.032
0.029
-0.054
0.020
0.055
0.036
0.097
-0.003
-0.003
0.035
0.031
0.086
-0.023
0.017
0.037
-0.018
0.051
-0.072
0.019
0.040
0.084
0.166
0.017
-0.055
0.065
-0.092
0.042
0.019
0.069
0.092
-0.050
0.021
0.009
0.092
-0.035
0.019
-0.039
0.081
0.011
0.031
0.068
-0.032
0.003
0.024
-0.032
0.040
0.058
-0.042
0.005
0.074
0.037
-0.017
0.080
0.090
0.082
0.025
-0.040
0.139
0.090
-0.001
-0.038
0.038
-0.051
0.054
0.104
0.037
-0.026
0.043
0.053
0.035
0.023
0.098
-0.027
0.001
-0.009
0.143
0.812
-0.646
-1.046
0.065
0.604
0.384
0.165
-0.075
-0.086
-0.043
-0.043
-0.027
0.022
0.149
0.037
0.088
0.057
0.319
0.080
-0.329
-0.189
0.093
0.197
0.173
0.035
-0.004
-0.094
0.009
-0.049
0.013
0.064
0.044
0.020
0.101
0.059
-0.010
0.094
0.060
0.044
0.061
0.005
0.021
0.033
0.005
0.021
0.032
-0.029
0.082
0.034
-0.019
0.039
0.021
0.029
0.095
0.090
0.042
0.014
0.026
0.101
-0.066
-0.019
0.034
0.069
0.040
0.014
0.104
0.033
-0.026
0.011
0.071
0.089
-0.045
0.093
0.086
0.026
-0.029
-0.027
-0.017
0.096
0.110
0.004
0.003
-0.034
0.024
-0.016
0.071
0.050
0.043
-0.008
0.044
0.090
-0.044
-0.033
0.086
0.044
-0.004
0.017
0.011
0.041
0.013
0.013
0.023
0.105
0.060
0.007
0.067
0.016
-0.008
0.125
0.710
0.139
-1.350
-0.469
0.581
0.704
0.381
-0.041
-0.180
-0.146
-0.098
0.009
-0.003
0.047
0.097
0.129
0.100
0.089
0.028
0.086
0.007
0.019
0.008
-0.009
0.063
0.005
0.062
-0.033
0.030
-0.031
0.028
-0.001
0.024
0.046
0.040
0.027
0.042
0.076
-0.055
0.111
0.023
0.013
0.110
-0.004
-0.020
-0.004
0.006
0.112
0.237
0.145
-0.285
-0.240
0.014
0.174
0.221
0.120
0.015
0.012
-0.018
-0.057
-0.010
0.035
0.102
0.009
-0.012
0.040
0.042
0.001
0.058
0.012
-0.030
0.036
0.032
0.105
-0.033
0.006
0.022
0.039
0.047
-0.006
0.015
0.036
0.066
0.054
0.014
0.105
0.070
0.037
0.032
0.050
-0.024
-0.051
-0.042
0.023
0.026
0.029
0.011
-0.012
0.035
0.019
0.140
0.008
0.036
0.004
0.057
-0.056
0.002
0.083
0.011
-0.032
0.076
0.005
-0.004
-0.032
0.133
-0.012
-0.026
0.046
-0.011
0.074
0.774
0.021
-1.291
-0.287
0.442
0.687
0.304
-0.060
-0.122
-0.153
-0.056
-0.000
0.021
0.096
0.051
0.094
0.072
0.111
-0.016
0.076
0.026
0.032
0.021
0.043
0.026
-0.022
-0.018
0.058
0.080
-0.063
0.004
0.022
0.033
0.053
0.025
0.027
0.002
0.092
0.174
0.000
-0.007
0.036
-0.020
-0.021
-0.036
0.123
0.046
0.058
-0.008
-0.005
0.069
-0.064
0.023
0.038
0.089
0.093
0.005
0.015
0.002
0.092
0.026
-0.012
0.032
0.037
0.052
-0.042
0.069
0.048
0.032
0.012
0.102
0.018
-0.023
0.128
0.107
-0.029
0.010
0.003
0.016
0.069
-0.011
-0.026
0.058
0.007
0.020
0.003
0.052
0.201
0.164
-0.259
-0.317
0.015
0.186
0.206
0.122
0.073
-0.023
-0.027
-0.013
0.057
-0.018
0.051
0.031
0.077
0.021
0.146
0.128
-0.069
-0.150
0.022
0.015
0.028
0.063
0.046
-0.078
0.002
0.030
0.084
0.046
0.015
-0.005
0.073
-0.029
0.071
0.154
0.035
0.585
0.158
-1.181
-0.432
0.459
0.573
0.322
0.048
-0.245
-0.080
-0.024
0.009
-0.100
0.028
0.062
0.075
0.189
0.083
0.100
-0.012
-0.011
0.041
0.065
0.043
-0.035
-0.003
-0.058
0.034
0.004
0.044
0.087
-0.015
0.001
0.011
0.058
0.020
0.043
0.051
0.050
0.041
-0.020
-0.004
0.052
0.009
0.056
0.046
0.011
0.041
0.037
0.037
0.017
-0.020
0.050
-0.010
0.051
0.024
0.042
0.029
0.040
0.028
0.069
-0.016
-0.042
0.003
0.018
0.027
0.009
-0.023
0.027
-0.014
0.048
0.095
0.107
0.034
0.033
-0.009
-0.036
0.049
0.011
0.044
0.040
0.063
0.094
0.022
0.052
-0.029
0.050
-0.011
-0.009
0.070
0.037
0.005
-0.041
-0.011
-0.006
0.066
0.116
-0.004
-0.068
0.061
0.072
0.013
0.036
0.064
-0.043
0.091
0.147
0.239
-0.174
-0.278
-0.091
0.171
0.149
0.146
-0.010
0.027
0.048
0.704
-0.273
-1.275
-0.223
0.615
0.653
0.255
0.038
-0.148
-0.097
-0.003
0.012
0.011
0.048
0.103
0.063
0.098
0.146
0.094
-0.043
0.003
0.053
0.012
-0.056
-0.024
0.092
0.035
-0.015
0.063
-0.049
0.047
-0.004
0.085
0.014
0.088
-0.038
0.118
-0.066
0.044
-0.001
0.038
0.069
0.026
0.062
0.026
0.048
0.002
0.066
0.013
0.011
0.108
0.009
0.088
0.019
-0.025
-0.002
0.048
0.044
0.040
0.036
-0.001
0.012
-0.030
0.089
0.050
0.036
0.038
0.032
0.025
0.048
0.076
-0.011
0.055
0.047
0.070
-0.006
-0.042
-0.019
0.013
0.063
0.040
-0.063
0.068
0.077
0.087
0.052
-0.014
-0.067
0.017
0.053
0.117
0.053
0.045
0.003
0.030
0.014
0.039
0.034
0.070
-0.000
0.003
0.076
0.071
0.073
-0.084
0.012
0.048
0.027
0.063
0.012
0.052
0.021
0.034
-0.005
-0.008
-0.023
0.032
0.083
0.074
0.079
-0.020
0.031
0.049
0.040
0.035
0.508
0.424
-1.051
-0.748
0.294
0.646
0.482
-0.012
-0.171
-0.055
-0.106
-0.053
0.054
0.073
0.138
0.030
0.017
0.085
0.100
0.038
-0.016
0.042
0.012
0.005
0.014
-0.017
-0.086
0.084
0.065
0.030
0.006
0.023
0.067
0.081
0.242
0.008
-0.314
-0.154
0.112
0.181
0.162
0.122
-0.127
-0.011
-0.002
0.072
0.023
0.019
0.103
0.073
0.094
0.053
0.025
0.039
0.040
-0.028
-0.036
0.013
0.032
-0.003
-0.036
-0.040
0.059
0.038
0.074
-0.021
0.023
0.100
0.081
-0.026
-0.036
0.058
0.059
-0.002
0.124
-0.010
0.029
0.080
0.037
0.033
-0.025
0.006
0.039
0.076
0.012
0.062
0.064
0.053
-0.012
-0.029
-0.003
0.001
0.049
0.108
0.072
0.073
-0.034
-0.037
-0.034
0.056
0.054
0.019
-0.005
0.075
-0.017
0.093
0.015
0.033
0.032
0.022
0.093
0.039
0.016
-0.019
-0.001
0.071
-0.033
0.049
0.034
0.002
-0.032
0.015
0.084
0.045
0.069
0.059
0.062
-0.035
0.033
0.027
0.011
0.017
0.043
-0.013
-0.032
-0.000
0.052
0.082
0.079
-0.078
0.009
0.033
0.037
0.052
0.125
-0.024
0.037
-0.013
0.001
0.017
0.388
0.563
-1.160
-0.636
0.308
0.664
0.449
0.070
-0.069
-0.170
-0.068
-0.037
0.042
0.070
-0.004
0.082
0.094
0.021
0.052
0.094
0.018
0.050
0.136
-0.045
-0.031
0.044
-0.024
0.003
-0.015
0.061
0.035
0.052
0.059
-0.014
0.010
-0.010
0.009
0.056
0.032
0.032
-0.040
-0.002
0.005
0.102
0.108
0.057
0.027
0.022
0.107
0.233
-0.088
-0.284
-0.124
0.195
0.226
0.159
0.045
-0.162
-0.063
-0.001
0.060
-0.006
0.009
0.024
0.016
0.067
0.074
0.126
0.029
0.043
0.081
-0.088
0.045
0.095
-0.015
0.007
0.040
-0.024
0.031
0.070
0.069
0.067
0.039
-0.016
-0.068
0.028
0.110
-0.017
0.007
0.030
-0.048
0.033
0.067
0.023
0.015
0.053
0.097
0.001
0.037
0.070
-0.017
0.056
-0.050
-0.008
0.089
0.099
-0.012
0.044
0.044
-0.013
-0.017
0.126
0.059
-0.015
-0.014
0.041
0.070
0.004
0.072
-0.014
0.046
0.010
0.024
-0.010
0.051
0.072
0.188
0.752
-0.778
-0.998
0.104
0.720
0.524
0.164
-0.091
-0.163
-0.154
-0.018
0.005
0.058
0.066
0.016
0.065
0.121
0.042
0.091
0.073
-0.013
0.018
-0.013
0.073
-0.042
0.014
0.022
0.026
0.046
0.031
0.047
0.051
0.033
-0.016
0.009
0.014
0.043
0.023
0.056
0.028
0.006
-0.026
0.116
0.094
0.055
0.010
-0.155
0.007
0.034
0.076
0.092
0.080
0.007
0.064
0.008
0.003
0.067
0.019
0.080
-0.001
-0.014
-0.015
0.014
-0.034
-0.043
0.071
0.030
0.048
-0.028
-0.067
0.104
0.067
0.074
-0.030
0.071
0.031
0.063
-0.017
0.021
0.024
0.070
0.018
0.100
0.037
0.260
0.096
-0.189
-0.274
0.023
0.182
0.144
0.055
0.010
-0.001
-0.017
-0.049
0.017
0.080
0.028
0.081
0.067
0.024
0.071
0.034
0.001
0.044
-0.020
0.023
0.057
0.038
0.022
-0.014
-0.001
0.516
0.471
-1.027
-0.770
0.286
0.686
0.413
0.119
-0.061
-0.174
-0.009
-0.047
-0.039
0.081
0.059
0.078
0.034
0.161
0.079
0.049
0.065
0.025
-0.031
-0.025
0.069
0.007
0.057
-0.028
-0.031
0.018
-0.002
0.109
0.070
0.020
-0.039
0.033
0.021
0.064
0.000
-0.033
0.063
0.013
0.025
-0.079
0.079
0.045
0.055
0.103
-0.035
-0.017
0.164
0.065
-0.001
0.009
0.001
0.040
0.024
0.149
0.042
0.044
-0.062
0.061
0.021
-0.005
0.048
0.044
0.025
0.044
0.071
-0.037
0.042
0.058
0.016
-0.001
-0.015
0.033
0.043
0.119
-0.041
0.012
-0.012
0.024
-0.007
-0.027
0.128
0.029
-0.043
0.029
0.002
0.017
-0.030
0.119
0.040
-0.022
0.077
0.050
0.034
0.117
0.052
0.013
0.045
0.067
0.016
0.024
0.027
0.019
0.017
-0.010
0.055
0.018
0.067
0.101
0.832
-0.264
-1.193
-0.313
0.647
0.910
0.142
-0.402
-0.321
0.010
0.131
0.121
0.123
0.060
0.004
0.014
-0.007
0.053
0.196
-0.009
0.020
0.066
0.021
0.011
-0.026
-0.012
0.040
0.056
-0.025
-0.038
-0.009
0.080
-0.008
0.092
-0.020
0.072
0.047
-0.008
0.023
-0.010
0.050
0.021
0.007
0.028
0.122
0.029
-0.029
0.021
0.047
0.043
0.003
-0.057
0.059
0.070
0.062
-0.003
0.087
0.007
0.060
0.037
0.010
-0.023
0.069
-0.006
0.012
-0.003
0.065
-0.008
0.037
0.018
0.099
-0.035
-0.011
-0.008
0.084
-0.018
0.057
0.042
0.058
0.036
0.028
0.027
0.032
0.007
-0.004
0.026
0.031
0.012
0.043
0.028
0.037
0.044
0.022
0.041
0.039
-0.051
0.028
0.040
0.050
0.066
-0.052
0.130
0.104
-0.028
-0.004
0.093
0.022
0.026
-0.029
-0.005
0.044
0.301
0.731
-0.901
-0.927
0.216
0.701
0.472
0.150
-0.117
-0.203
-0.150
0.080
0.036
0.019
0.087
0.043
0.129
0.210
0.109
0.012
-0.057
-0.011
0.034
-0.026
-0.033
0.000
0.093
0.249
-0.077
-0.303
-0.108
0.135
0.162
0.161
0.085
0.032
-0.039
0.058
0.011
-0.027
0.020
0.065
0.025
0.087
0.024
0.016
0.024
0.024
-0.008
-0.000
0.031
0.062
-0.004
0.013
-0.016
0.076
0.051
0.084
0.062
-0.044
0.086
0.057
0.087
-0.004
-0.007
0.024
0.061
0.004
-0.034
0.106
0.034
0.050
0.023
-0.013
-0.012
-0.013
0.032
-0.014
0.096
0.030
0.016
-0.019
0.059
0.064
0.091
0.042
-0.024
-0.011
0.076
0.023
0.010
0.007
0.074
-0.051
0.036
0.030
0.075
0.072
0.026
-0.017
0.090
0.126
0.048
-0.091
0.027
-0.025
0.091
0.075
0.040
0.069
0.005
0.020
0.000
0.039
0.114
0.012
-0.003
0.053
-0.024
0.023
0.102
0.016
0.010
-0.024
0.056
0.035
0.106
0.065
0.632
0.189
-1.191
-0.593
0.491
0.695
0.311
0.014
-0.135
-0.162
-0.064
0.001
0.047
0.099
0.053
0.111
0.112
0.004
0.067
0.019
0.038
0.065
0.015
-0.001
-0.008
-0.032
0.072
0.022
0.108
0.030
-0.054
0.039
-0.013
0.073
0.105
-0.106
0.036
-0.021
0.046
0.032
0.053
0.056
0.089
-0.030
-0.030
-0.028
0.196
0.265
-0.104
-0.322
-0.080
0.129
0.110
0.133
0.112
0.057
-0.021
-0.007
0.008
0.000
-0.006
0.016
0.069
0.138
0.007
-0.102
-0.014
0.087
0.065
0.076
0.092
-0.008
0.021
-0.071
0.004
0.015
0.011
0.099
0.001
0.019
0.069
0.018
0.038
0.000
0.117
0.041
0.028
-0.002
-0.036
-0.004
0.081
0.082
-0.030
0.048
0.075
0.089
-0.037
0.008
-0.000
0.028
0.270
0.692
-0.876
-1.000
0.147
0.777
0.469
0.133
-0.150
-0.138
-0.098
-0.012
0.023
0.096
0.025
0.114
0.101
0.062
0.093
0.062
0.001
-0.009
-0.033
0.051
0.007
-0.003
-0.013
-0.044
0.131
0.077
0.103
0.008
-0.072
-0.022
0.108
0.068
-0.005
-0.095
0.025
0.120
0.011
0.108
0.084
0.001
-0.043
0.002
-0.023
0.124
0.094
0.013
0.045
0.068
0.058
-0.012
0.006
-0.082
0.004
-0.013
0.041
0.047
-0.007
0.055
0.014
0.096
0.026
-0.021
0.093
0.045
-0.070
0.032
0.151
0.061
0.031
0.004
0.033
0.017
-0.066
0.094
0.066
0.054
-0.014
0.079
0.070
0.058
0.045
0.017
0.015
0.042
-0.032
0.008
0.059
0.090
-0.024
0.094
-0.005
-0.044
0.076
0.027
0.021
0.032
0.228
0.727
-0.770
-1.000
0.113
0.625
0.599
0.259
-0.281
-0.453
-0.196
0.131
0.133
0.127
0.131
-0.000
-0.005
0.046
0.065
0.000
0.082
0.194
0.032
0.055
0.052
0.028
-0.021
-0.004
-0.006
0.084
0.035
0.007
-0.006
-0.017
0.092
-0.009
0.083
0.057
0.014
-0.027
0.033
0.070
0.016
0.003
-0.095
0.000
0.008
0.015
0.016
-0.047
0.076
0.081
-0.046
0.063
0.039
-0.014
0.047
0.091
0.062
0.044
0.075
0.040
-0.007
0.020
-0.021
0.003
0.005
0.039
0.003
0.065
-0.007
0.065
0.070
-0.039
-0.034
0.018
0.029
0.046
0.058
0.063
0.036
-0.004
0.012
0.029
0.067
0.093
0.026
-0.088
0.039
0.042
0.075
0.031
0.043
-0.032
0.026
0.083
0.030
0.141
0.738
-0.573
-1.196
-0.018
0.704
0.491
0.203
-0.110
-0.114
-0.074
0.011
0.002
0.009
0.049
0.073
0.069
0.130
0.063
0.184
0.016
-0.019
0.008
-0.022
-0.020
-0.014
0.059
0.022
0.033
0.010
0.012
0.055
0.032
0.012
-0.005
0.047
0.030
0.027
0.030
0.079
0.102
-0.018
0.010
0.008
0.054
0.007
0.069
0.209
0.232
-0.172
-0.309
0.008
0.105
0.126
0.195
0.052
0.026
0.022
-0.022
-0.063
0.004
0.044
0.086
0.051
0.065
0.076
0.212
-0.180
-0.145
0.085
0.208
0.152
0.661
-0.777
-0.880
0.138
0.623
0.441
0.107
-0.078
-0.164
-0.145
0.025
0.025
0.051
0.051
0.100
0.091
0.123
0.071
-0.011
-0.005
-0.002
-0.026
0.035
0.006
-0.011
0.086
0.132
0.051
0.080
0.034
-0.082
-0.024
0.039
0.170
0.045
0.027
0.000
0.041
0.079
-0.015
0.010
0.044
0.007
-0.024
0.051
-0.012
0.083
0.068
0.044
-0.020
0.001
0.086
0.007
0.018
-0.026
0.029
-0.011
-0.005
0.100
0.071
0.015
0.014
0.091
0.086
0.077
-0.044
0.021
-0.020
0.013
0.008
0.054
0.043
0.032
0.022
-0.042
0.042
-0.035
0.088
0.055
0.025
0.040
0.097
0.041
0.435
0.519
-1.100
-0.835
0.243
0.747
0.487
0.104
-0.098
-0.211
-0.087
-0.002
0.015
0.010
0.149
0.106
0.079
0.112
0.030
0.058
0.027
0.054
-0.084
-0.041
0.008
0.015
0.201
0.082
-0.254
-0.261
0.099
0.237
0.193
0.053
0.073
-0.082
-0.046
-0.047
0.054
0.020
0.065
0.033
0.006
0.082
0.098
0.052
0.002
-0.012
0.045
0.012
0.048
0.004
0.045
0.020
0.030
0.044
-0.009
0.082
-0.001
0.095
0.253
-0.152
-0.088
-0.016
0.181
-0.111
