0.076
-0.033
0.010
0.027
0.025
0.091
0.027
0.071
-0.093
0.062
0.012
0.026
-0.082
0.016
0.009
0.040
0.113
0.097
-0.037
0.063
-0.034
-0.089
0.073
-0.006
0.043
0.049
0.023
-0.042
-0.005
0.016
0.046
-0.014
0.033
-0.034
0.076
0.017
0.033
0.002
0.075
0.022
0.048
0.078
0.022
0.014
0.020
-0.052
0.119
0.036
0.025
0.001
0.116
0.021
0.046
0.043
0.082
-0.014
0.005
0.030
0.116
0.005
0.032
0.026
-0.018
0.038
-0.055
0.108
0.047
-0.013
0.043
-0.035
0.032
0.071
0.009
0.083
-0.053
0.011
0.039
0.006
0.065
0.104
0.013
0.019
0.059
-0.001
0.012
-0.016
0.045
0.015
0.037
0.063
0.056
-0.036
0.043
-0.025
0.061
-0.038
0.028
0.099
0.081
0.024
0.011
0.034
0.036
-0.021
-0.036
0.023
0.001
0.034
0.006
0.098
0.009
0.026
0.126
0.026
0.061
0.014
0.019
-0.031
0.013
-0.007
-0.004
0.007
0.049
0.071
-0.016
-0.054
0.021
0.146
0.068
0.044
-0.053
0.147
0.112
0.013
0.021
-0.026
-0.066
0.054
0.001
0.037
0.015
0.029
0.068
0.018
0.060
0.082
0.010
0.030
0.011
-0.032
0.065
0.095
0.064
0.065
-0.040
0.048
0.008
0.095
0.066
-0.007
0.129
0.033
0.058
-0.019
0.016
-0.040
0.075
0.043
0.041
-0.025
0.061
-0.017
0.042
0.013
0.017
0.007
0.098
0.041
0.015
-0.015
0.057
0.039
0.024
-0.010
0.031
0.066
-0.033
-0.009
0.065
0.161
-0.024
0.003
0.033
0.069
0.053
-0.026
0.044
-0.027
0.023
0.034
0.040
0.005
-0.031
0.093
0.035
0.024
0.063
0.048
0.056
-0.015
0.040
0.040
-0.087
0.042
-0.022
0.021
0.111
-0.036
-0.034
0.010
0.031
0.048
0.071
0.056
-0.043
0.030
0.047
0.069
0.023
0.111
0.019
-0.077
0.020
0.061
-0.000
0.031
0.037
0.046
0.024
0.109
-0.014
0.001
0.010
0.054
0.135
-0.016
-0.038
0.007
0.038
0.060
-0.035
0.106
-0.002
0.019
0.094
0.030
-0.017
0.044
0.079
0.148
0.004
-0.026
0.052
0.009
0.074
0.016
0.035
0.074
0.036
0.012
0.049
0.003
0.091
0.032
0.029
0.035
0.054
0.019
-0.028
0.048
0.067
0.029
0.010
0.041
0.015
0.057
0.081
0.000
-0.019
-0.034
0.070
0.007
0.024
0.068
0.025
0.060
0.025
0.038
0.049
0.018
0.009
0.075
0.161
-0.003
0.024
0.015
0.034
0.024
0.085
0.045
0.017
0.024
0.092
-0.028
-0.021
0.099
0.079
0.020
-0.029
0.021
0.039
0.022
-0.022
-0.068
0.108
0.041
-0.052
0.002
0.067
0.004
0.047
0.081
0.046
0.035
0.007
0.027
0.064
0.059
-0.007
-0.003
0.109
0.044
0.034
0.053
0.021
0.050
-0.043
0.024
0.071
0.037
-0.039
0.036
0.022
0.134
-0.011
-0.067
0.039
0.087
0.138
0.011
-0.019
0.011
-0.012
0.041
0.013
0.021
0.017
0.079
0.118
0.007
-0.035
0.053
0.047
0.032
0.046
0.075
0.024
0.018
0.019
-0.091
0.075
0.112
0.002
-0.025
0.008
0.063
0.093
-0.006
0.094
0.071
0.015
0.082
-0.003
0.036
0.048
0.028
0.034
0.013
-0.060
0.049
0.079
0.163
0.009
-0.009
-0.003
-0.029
0.042
0.148
0.000
0.010
0.023
0.040
-0.028
-0.010
0.026
0.021
0.045
0.002
-0.031
-0.009
0.043
0.145
0.067
-0.037
-0.033
0.027
0.046
0.021
-0.003
0.023
0.050
0.029
0.042
0.024
0.042
-0.001
0.034
0.102
0.004
0.051
0.027
-0.024
0.058
0.045
0.067
0.019
-0.014
0.086
0.009
-0.015
0.008
0.005
0.060
0.062
0.004
-0.062
0.059
0.125
-0.021
-0.020
0.087
0.021
-0.058
0.036
-0.029
-0.005
-0.021
-0.026
0.097
-0.035
0.032
0.022
0.052
-0.014
0.039
0.053
0.021
-0.036
0.104
0.087
0.008
0.018
0.027
0.107
-0.036
-0.022
-0.001
0.074
0.023
-0.008
0.064
0.007
-0.061
0.078
0.048
-0.005
0.057
0.062
-0.062
0.031
0.061
0.127
-0.096
-0.016
0.056
0.063
-0.027
0.010
-0.026
-0.013
0.052
0.158
0.023
0.046
0.058
-0.009
-0.006
0.019
0.056
-0.020
0.038
0.015
0.039
-0.004
0.032
0.070
0.004
0.049
0.001
0.038
0.005
0.015
-0.008
0.075
0.040
-0.016
-0.002
0.018
0.028
0.025
0.047
0.001
0.052
-0.019
0.006
0.014
0.087
0.053
0.022
0.002
0.040
0.045
0.028
0.116
0.088
-0.004
-0.014
0.039
0.029
0.120
0.012
-0.077
0.005
0.023
-0.061
0.047
0.029
0.069
0.001
0.028
0.024
0.078
0.061
-0.002
0.006
0.053
0.059
-0.010
-0.035
0.033
0.103
0.038
0.071
0.156
-0.028
0.007
-0.001
0.082
0.009
0.059
-0.045
0.052
-0.027
0.053
0.044
0.067
0.012
0.065
-0.030
0.057
-0.001
0.010
0.025
0.041
0.079
0.000
0.025
0.001
0.020
-0.010
0.098
0.127
-0.004
-0.023
0.019
0.118
0.026
0.017
0.010
0.015
-0.081
-0.002
0.005
0.087
0.014
0.090
-0.023
0.058
0.028
0.011
0.014
0.014
0.077
0.026
0.026
-0.085
0.040
0.073
0.125
0.043
-0.012
0.048
0.018
0.003
0.059
0.043
-0.053
0.004
0.040
-0.025
0.101
0.086
-0.014
-0.088
0.042
0.047
-0.029
0.028
0.112
0.026
0.088
-0.001
0.031
0.006
-0.041
0.029
0.062
0.006
-0.011
0.041
-0.001
-0.006
0.075
0.050
0.039
0.001
0.078
0.048
0.036
0.049
-0.033
0.073
0.035
0.041
-0.041
0.004
0.013
0.128
0.053
0.046
-0.029
0.065
-0.014
-0.015
0.109
-0.024
-0.041
-0.015
0.036
0.023
0.058
0.110
-0.024
0.010
-0.016
0.071
-0.006
0.016
0.080
0.031
0.010
0.088
0.045
-0.045
-0.006
0.073
0.060
0.033
-0.001
0.035
-0.084
0.025
0.059
0.057
-0.074
0.097
0.046
0.014
-0.061
0.045
0.025
0.028
0.051
0.008
0.004
-0.021
-0.051
0.136
0.017
0.021
0.072
-0.013
0.024
-0.022
0.020
0.003
0.116
0.065
-0.036
0.016
0.072
0.026
0.063
-0.054
0.097
0.026
-0.004
0.018
0.016
0.005
0.023
0.067
0.032
-0.069
0.001
0.080
0.047
0.042
0.012
-0.022
0.074
-0.016
0.017
0.036
0.099
0.051
-0.040
-0.068
-0.004
0.080
0.066
-0.009
0.072
0.077
-0.008
-0.023
0.078
0.021
0.086
0.043
-0.102
0.079
0.032
0.003
-0.015
0.049
0.020
0.015
0.074
0.058
0.117
0.019
-0.006
0.005
0.002
0.066
0.039
0.090
-0.001
-0.024
-0.030
0.023
0.087
0.147
-0.056
-0.002
-0.038
0.018
-0.012
0.018
0.035
0.062
0.085
0.009
-0.086
0.063
0.027
0.077
0.050
0.040
0.044
-0.024
0.028
0.108
-0.022
-0.008
-0.031
-0.043
0.053
-0.057
-0.027
0.045
0.060
0.015
0.056
-0.017
0.117
0.027
0.024
-0.035
0.112
0.072
-0.016
-0.033
0.057
0.045
0.115
-0.061
0.037
0.028
0.005
0.094
0.020
0.008
-0.007
0.043
0.103
-0.071
0.035
0.017
0.044
-0.075
0.052
0.014
0.067
0.064
0.063
0.116
0.029
0.094
-0.089
-0.055
0.074
0.077
0.059
0.063
-0.013
0.026
-0.034
0.043
0.019
0.003
0.070
0.073
0.031
-0.014
0.097
0.023
0.017
0.027
0.027
0.089
0.012
0.028
0.004
0.123
0.041
0.022
-0.021
0.042
-0.024
0.039
0.036
0.033
0.034
0.116
-0.011
-0.025
-0.002
0.079
-0.013
0.084
-0.008
0.060
0.034
0.055
0.016
0.063
-0.053
0.006
0.091
0.024
-0.025
0.081
0.072
-0.018
0.032
0.011
0.088
0.007
-0.001
-0.001
0.075
0.029
0.049
0.046
-0.024
-0.084
0.067
-0.007
0.091
0.079
-0.014
-0.019
-0.003
0.125
0.038
-0.099
-0.035
0.059
-0.002
0.079
0.030
0.096
0.008
0.025
-0.013
0.005
0.068
0.026
0.035
0.025
0.077
-0.029
-0.032
0.080
0.139
0.022
-0.028
-0.016
0.051
0.072
-0.059
0.064
0.084
-0.048
0.072
0.000
0.049
-0.044
0.033
0.047
0.064
0.011
0.012
0.113
0.026
-0.001
0.007
0.048
-0.031
0.028
0.042
0.098
0.075
0.006
-0.035
0.043
-0.005
0.023
0.126
0.051
-0.026
0.060
-0.065
0.025
0.040
0.034
0.107
0.028
0.013
-0.000
-0.027
0.128
0.041
-0.007
0.061
0.037
-0.045
0.007
0.004
0.024
0.061
0.088
0.079
-0.060
0.048
0.040
0.044
0.023
0.004
-0.024
0.065
-0.031
-0.027
0.057
0.129
0.007
-0.013
-0.006
0.063
0.059
-0.050
-0.009
0.052
0.014
0.144
-0.075
0.020
0.001
0.008
0.123
0.031
-0.020
0.051
0.046
0.143
-0.034
0.018
0.058
-0.055
0.004
0.005
0.037
-0.024
-0.007
0.032
-0.026
0.054
0.042
0.002
0.072
0.012
0.024
0.093
-0.080
-0.056
-0.017
0.055
0.109
-0.051
0.030
0.004
0.048
0.110
0.004
0.051
-0.003
0.019
0.018
0.032
0.081
0.018
-0.020
0.007
0.062
-0.000
-0.053
-0.054
0.021
0.080
0.046
0.001
0.046
0.017
0.093
-0.034
0.032
0.025
0.011
-0.016
0.020
0.042
0.115
0.073
-0.007
0.032
0.096
0.014
0.057
-0.083
-0.020
0.049
0.005
0.013
0.088
-0.012
0.080
-0.018
0.093
0.056
-0.023
-0.027
0.031
0.096
0.062
0.015
0.023
0.021
0.058
0.040
-0.030
0.015
-0.030
0.019
0.042
0.056
0.050
0.025
0.003
0.020
0.089
0.004
0.003
0.028
0.027
0.032
0.059
-0.020
0.016
-0.013
0.032
0.069
0.015
0.053
0.006
0.044
-0.001
0.044
0.063
0.068
0.020
0.050
0.037
0.034
0.000
-0.012
0.108
0.088
-0.035
0.068
-0.049
0.048
0.010
-0.008
-0.023
-0.022
0.019
0.081
-0.040
0.042
0.041
0.016
-0.003
-0.060
-0.082
0.084
0.082
0.113
0.013
0.027
-0.002
0.018
-0.025
0.038
0.063
0.040
0.032
0.016
0.002
0.063
-0.030
0.085
0.020
0.008
0.064
-0.024
-0.054
0.041
0.086
0.001
-0.046
0.060
0.020
-0.034
0.039
0.079
-0.023
0.053
0.036
0.057
-0.032
0.032
0.026
0.016
0.095
0.045
0.021
-0.008
-0.012
0.085
-0.016
-0.031
0.017
0.045
0.053
0.099
-0.034
0.026
0.029
0.086
0.015
0.000
0.088
0.083
-0.044
-0.014
0.027
0.018
0.010
0.060
0.010
0.046
0.027
-0.042
0.052
0.052
0.055
0.053
0.052
0.039
0.043
0.080
-0.002
0.032
0.060
-0.041
0.078
-0.001
0.061
0.069
0.043
-0.035
0.004
0.020
0.009
0.018
0.045
0.035
0.014
0.066
0.033
-0.009
-0.010
0.005
0.029
0.048
0.121
-0.019
0.051
0.031
0.053
-0.092
0.044
0.066
0.002
0.015
0.049
-0.031
0.110
0.013
0.086
0.045
0.062
-0.011
-0.028
0.062
0.095
-0.063
-0.040
0.039
0.022
-0.002
0.069
0.094
0.045
-0.009
0.006
0.006
0.028
-0.015
-0.007
0.040
-0.000
-0.002
0.059
0.005
-0.015
0.088
0.003
0.026
0.058
0.065
0.004
0.000
0.030
0.114
-0.004
0.026
0.072
0.055
0.021
0.016
0.010
0.011
0.071
0.038
-0.007
0.058
-0.130
0.011
0.026
-0.019
0.033
0.111
0.010
0.014
0.030
0.022
0.012
0.025
0.058
-0.002
-0.068
0.043
0.061
0.027
-0.006
0.029
0.106
0.041
0.066
0.066
-0.049
0.055
0.011
0.061
0.115
0.005
-0.005
0.029
0.108
0.093
-0.053
0.023
0.021
0.023
0.080
0.042
-0.027
-0.033
0.064
-0.073
-0.001
0.103
0.046
0.027
0.050
-0.079
-0.002
0.056
0.097
0.121
0.063
-0.051
0.071
0.061
0.065
-0.002
0.007
0.070
0.044
0.041
0.015
0.041
-0.000
0.002
-0.022
0.066
0.027
0.014
-0.064
0.052
0.068
0.073
0.045
-0.022
0.013
0.139
0.048
0.044
0.058
0.068
0.025
-0.052
-0.020
0.039
0.026
0.041
0.107
-0.018
0.127
-0.006
0.005
-0.042
0.038
0.053
0.039
-0.017
0.023
0.066
0.007
-0.001
0.013
0.034
0.093
0.096
0.089
-0.058
-0.028
0.027
0.072
0.037
0.035
0.037
0.024
0.035
0.055
0.076
0.018
-0.023
0.008
0.037
0.072
0.018
-0.033
0.029
0.031
0.053
-0.054
-0.021
-0.027
0.071
-0.013
0.034
0.113
0.076
-0.051
0.088
0.077
-0.053
-0.011
0.019
0.013
0.021
0.086
0.095
-0.012
0.067
0.029
0.006
0.066
0.008
-0.009
-0.034
0.068
0.014
-0.010
0.062
0.000
0.062
0.110
0.011
-0.021
-0.027
-0.038
0.084
0.009
0.048
0.039
0.032
-0.022
0.091
0.046
0.069
0.012
0.011
0.036
0.042
0.008
-0.031
0.069
-0.020
-0.053
0.037
0.115
-0.040
-0.008
0.020
0.061
0.092
0.019
0.006
-0.016
0.024
0.071
0.051
0.038
-0.009
-0.029
0.095
0.016
0.095
0.027
0.002
-0.013
-0.040
0.083
0.003
0.018
0.015
0.018
0.022
0.150
-0.028
0.047
-0.087
-0.022
0.092
0.044
0.006
0.134
0.031
0.010
-0.016
-0.025
0.081
0.015
0.002
0.054
0.041
0.113
0.045
0.010
-0.011
0.041
0.131
-0.062
0.041
0.068
0.027
0.026
-0.042
-0.010
0.046
-0.038
0.018
0.075
0.083
0.044
0.021
0.034
0.032
0.013
0.083
-0.057
-0.016
0.056
0.025
0.003
0.068
0.021
0.038
-0.044
0.195
-0.001
0.001
0.049
-0.037
0.004
0.102
0.016
0.002
0.032
0.003
0.024
0.008
0.035
-0.031
0.056
0.086
0.007
0.015
-0.015
0.080
0.055
0.026
0.077
0.062
-0.014
-0.014
-0.008
0.069
0.081
0.024
0.026
-0.032
0.004
-0.030
0.091
-0.020
0.018
0.097
0.015
0.028
0.098
-0.014
0.078
0.005
0.020
0.039
0.059
0.060
0.008
0.009
0.026
0.013
0.007
0.037
-0.018
0.011
0.019
0.043
0.005
0.043
0.090
-0.073
0.033
0.000
0.024
0.035
0.070
0.002
0.072
-0.001
0.022
0.050
0.067
-0.021
0.009
0.063
-0.001
-0.025
0.086
0.055
-0.013
0.117
0.027
0.064
0.009
0.054
0.088
-0.018
0.036
0.044
0.019
0.036
0.025
0.061
-0.019
0.017
0.113
0.012
0.035
0.082
0.002
0.055
0.018
0.073
0.067
0.001
0.100
-0.001
0.006
0.096
-0.023
0.029
0.016
0.053
0.038
-0.011
0.070
0.007
0.027
0.091
0.023
0.002
-0.053
0.029
0.016
0.043
0.000
0.103
0.025
0.161
-0.029
0.118
0.062
0.052
0.010
-0.034
-0.013
0.014
0.033
0.044
0.059
0.035
0.109
0.055
0.028
-0.010
0.042
0.050
0.005
0.054
0.038
0.020
0.048
0.002
0.047
0.021
0.073
0.040
0.006
0.100
0.080
-0.016
-0.022
0.037
-0.015
0.032
-0.014
0.039
0.046
0.060
0.099
0.029
0.054
-0.019
0.018
0.015
0.098
-0.000
0.042
-0.077
0.059
-0.027
0.041
0.063
0.071
-0.025
0.012
0.054
-0.070
0.024
0.119
0.059
0.037
-0.075
0.011
0.012
0.086
0.055
0.049
-0.039
0.065
0.024
0.042
-0.006
-0.031
0.037
0.109
0.023
-0.014
-0.003
0.073
0.035
0.008
0.094
0.015
-0.025
0.013
0.053
0.067
0.040
0.036
0.023
-0.031
0.085
0.043
0.015
0.042
-0.028
-0.015
0.050
0.028
0.008
0.009
-0.001
0.028
0.013
0.008
0.062
0.043
0.011
0.064
0.087
0.013
0.030
-0.006
0.059
-0.041
0.028
0.123
0.015
-0.017
-0.006
0.018
0.030
0.012
0.041
0.010
-0.002
0.051
0.093
0.053
0.018
0.066
0.057
-0.054
0.011
0.024
0.046
0.064
0.073
0.028
0.033
0.009
0.071
0.051
0.071
0.060
0.021
-0.074
-0.024
0.088
0.045
0.039
-0.012
0.039
0.032
0.087
0.087
-0.049
-0.010
0.027
0.114
0.062
-0.003
0.060
0.048
0.054
0.076
-0.029
-0.007
0.052
0.081
-0.018
0.061
0.036
0.013
0.031
0.137
-0.060
0.016
0.028
0.063
0.097
-0.030
0.128
0.052
-0.038
-0.074
0.037
0.047
0.123
0.014
-0.010
0.030
0.045
-0.007
0.024
0.077
0.008
-0.007
0.033
0.086
0.008
0.001
0.012
0.041
0.014
0.059
0.131
0.050
0.113
-0.040
0.030
0.042
0.041
-0.065
0.036
0.063
0.108
-0.058
0.005
-0.029
0.021
0.135
0.016
-0.028
0.011
0.029
-0.071
-0.010
0.096
0.029
0.062
0.040
-0.040
0.034
0.036
0.029
0.006
0.004
0.101
-0.055
0.027
0.059
0.017
-0.009
0.063
0.017
-0.002
0.064
-0.005
-0.024
0.061
0.022
-0.007
-0.007
0.134
0.083
0.033
0.069
0.021
0.028
-0.009
-0.003
0.106
0.034
-0.008
0.050
0.035
-0.019
0.003
-0.042
0.001
0.084
0.132
-0.034
-0.004
0.046
0.027
0.013
-0.003
-0.013
0.051
0.034
0.052
0.050
0.034
-0.025
0.009
0.028
0.059
-0.022
0.004
-0.053
0.049
0.102
0.008
0.030
0.016
0.070
-0.003
0.024
0.108
0.013
0.024
0.026
0.040
0.037
0.032
0.058
0.073
0.040
-0.006
-0.011
0.076
0.020
0.040
-0.022
0.059
-0.001
0.073
0.038
0.013
0.025
0.037
0.047
-0.034
-0.010
0.115
0.056
-0.002
0.036
0.027
-0.072
0.067
0.089
0.060
0.028
0.045
0.018
0.102
0.004
0.001
0.022
-0.014
0.010
0.024
0.002
0.018
0.071
0.098
0.028
0.001
0.175
0.002
0.043
0.065
0.037
0.022
0.024
0.020
0.022
0.025
0.030
0.014
0.024
0.060
0.066
-0.012
0.001
-0.011
0.121
0.057
0.028
0.052
0.019
0.100
0.059
0.043
0.013
0.032
-0.015
0.032
0.046
0.036
0.068
0.072
0.005
0.022
0.074
0.062
-0.027
0.011
0.098
-0.005
-0.008
0.022
0.046
0.074
0.022
0.022
0.023
0.044
0.031
0.000
0.019
0.073
0.007
-0.029
-0.040
0.034
0.084
0.050
0.027
0.057
0.028
-0.035
0.001
0.022
0.087
0.015
-0.037
0.057
0.050
0.021
0.085
0.049
0.101
-0.044
0.029
0.025
0.028
0.038
0.103
0.006
0.044
-0.014
0.008
-0.024
0.085
0.084
0.002
-0.123
-0.010
0.026
0.021
0.053
0.089
0.054
0.003
-0.015
0.002
0.107
0.006
0.027
-0.026
0.041
0.024
0.021
0.005
0.031
0.067
0.076
-0.015
0.009
0.075
0.020
0.057
-0.030
0.120
0.017
-0.002
0.042
-0.004
0.008
0.095
0.033
0.020
0.067
-0.005
0.059
-0.066
0.010
0.047
0.076
-0.023
0.074
0.057
0.061
-0.023
0.085
0.025
0.044
-0.009
0.020
0.038
0.080
-0.039
0.110
-0.023
0.026
-0.016
0.045
0.086
0.022
0.038
0.050
0.003
0.135
0.057
-0.046
0.015
0.058
0.041
-0.018
0.107
0.003
-0.041
-0.049
0.144
0.025
0.057
0.034
0.021
0.018
0.039
0.025
-0.032
0.004
0.017
0.029
0.030
0.080
0.032
-0.016
0.091
0.054
0.055
-0.022
0.009
0.099
0.115
0.045
0.058
0.027
0.028
-0.009
-0.007
-0.016
0.073
0.007
-0.019
0.083
0.086
-0.018
0.062
0.102
0.078
-0.025
0.015
-0.022
-0.011
0.057
0.015
0.062
-0.020
0.038
0.014
0.007
0.039
0.048
0.058
-0.019
0.083
0.042
0.056
0.024
-0.041
0.044
-0.004
-0.005
0.073
0.024
-0.027
-0.032
0.071
0.101
0.032
0.062
0.031
0.069
-0.030
0.008
0.017
-0.048
0.035
0.022
-0.001
0.080
0.067
0.043
-0.019
0.086
0.039
-0.055
0.031
0.059
0.033
0.055
0.039
0.044
0.078
0.024
-0.016
0.034
-0.033
-0.009
-0.002
0.052
0.029
-0.013
0.061
0.003
-0.027
-0.028
0.019
0.034
0.022
0.029
0.009
0.052
0.027
0.013
-0.019
0.045
0.055
-0.015
-0.061
0.051
0.011
0.081
0.036
0.090
0.039
0.069
0.069
-0.021
0.036
0.066
0.078
-0.035
-0.015
0.047
0.060
0.049
0.039
-0.007
0.044
0.111
0.011
0.056
0.062
0.004
0.076
-0.022
0.024
-0.068
0.041
-0.009
0.032
-0.015
-0.024
0.040
0.072
0.033
0.138
0.061
-0.020
0.048
-0.018
-0.028
0.036
-0.004
0.038
0.006
0.080
0.057
0.031
0.022
0.076
0.007
0.045
0.019
-0.038
0.074
0.075
0.040
-0.003
0.001
0.028
0.062
0.104
0.031
0.013
0.025
-0.031
0.021
-0.036
0.108
-0.013
-0.004
0.011
0.138
-0.021
0.046
0.090
0.019
0.123
0.014
0.016
0.022
-0.022
0.014
0.037
0.012
0.002
-0.005
0.008
0.010
0.034
-0.003
0.032
-0.010
0.030
-0.022
0.061
0.088
0.063
-0.030
-0.025
0.013
0.080
-0.021
-0.013
0.032
-0.029
-0.058
0.099
0.036
0.052
0.019
0.076
0.108
0.023
-0.030
0.042
0.075
0.049
0.037
0.050
0.019
-0.023
0.018
0.061
0.105
-0.042
-0.043
0.035
0.060
0.032
-0.014
0.039
0.028
0.024
-0.014
-0.012
0.017
0.028
0.069
0.076
-0.004
0.007
0.010
-0.005
0.073
0.114
0.101
0.017
0.010
0.034
-0.037
0.030
0.114
0.056
-0.000
0.008
0.042
-0.028
0.042
0.084
0.010
-0.042
0.041
0.027
0.048
0.046
0.044
-0.033
0.024
0.034
0.045
0.057
0.049
0.004
-0.027
-0.047
0.014
-0.003
-0.003
0.064
-0.005
0.023
0.038
0.127
0.010
-0.014
0.038
0.130
0.032
0.041
0.016
0.043
0.041
0.045
-0.005
0.016
0.035
0.044
0.049
0.054
0.063
0.051
0.001
-0.007
0.007
0.024
-0.025
0.062
0.030
0.045
0.019
0.081
0.050
-0.010
-0.002
0.114
0.046
-0.033
-0.041
0.036
-0.022
0.048
0.009
-0.016
0.037
0.130
-0.037
-0.022
0.073
0.050
0.031
-0.036
0.063
0.041
0.069
0.092
0.043
-0.002
-0.013
0.047
0.055
0.035
0.014
0.044
0.046
0.016
-0.043
0.049
0.053
0.050
0.137
-0.001
0.005
0.020
0.056
0.023
0.034
0.062
0.067
0.045
0.012
0.057
-0.010
-0.035
-0.003
0.043
0.103
-0.055
0.052
0.007
0.079
0.044
0.005
-0.047
0.043
0.003
0.126
-0.000
0.009
0.019
-0.024
-0.032
-0.014
0.045
0.076
0.072
0.080
0.001
0.033
0.021
0.017
0.025
0.026
0.058
0.105
0.070
-0.021
-0.033
0.021
0.043
0.046
0.118
0.016
-0.060
0.038
-0.047
0.085
-0.025
-0.012
0.108
0.021
0.058
-0.005
-0.005
-0.007
0.066
0.006
-0.017
0.029
0.100
-0.053
0.062
0.093
0.024
0.011
-0.035
0.022
0.086
-0.028
0.045
0.074
-0.038
0.074
0.089
-0.015
0.013
0.035
0.041
0.052
0.029
0.058
0.041
-0.050
0.063
0.033
-0.012
0.035
0.018
0.041
0.070
0.121
-0.024
-0.042
-0.058
0.084
0.091
0.006
0.006
0.020
0.052
0.054
-0.015
0.083
-0.003
-0.031
0.066
0.029
-0.024
0.002
0.029
0.062
0.041
0.045
0.116
-0.063
0.023
0.056
0.050
-0.002
-0.002
-0.018
0.016
0.049
0.112
0.045
0.072
-0.046
0.022
0.086
0.039
0.008
0.028
-0.012
0.137
0.038
0.056
-0.010
0.038
0.024
0.035
-0.040
0.093
-0.034
-0.004
0.092
0.044
0.021
0.037
0.065
0.040
-0.055
0.034
-0.013
-0.008
0.091
0.056
0.092
0.089
0.017
0.069
-0.022
0.023
0.026
0.050
-0.004
0.076
0.049
0.023
-0.058
0.066
-0.019
0.037
0.117
0.085
0.031
-0.077
-0.019
0.051
0.088
-0.010
0.012
0.102
0.009
-0.027
0.078
0.098
0.073
-0.044
0.068
0.016
0.013
0.024
0.058
0.022
0.020
-0.014
-0.006
-0.028
0.090
0.068
0.051
0.024
0.059
-0.003
0.014
0.047
0.047
0.069
0.020
0.073
0.079
-0.057
0.051
0.093
0.015
0.020
-0.012
0.093
0.019
0.020
-0.022
0.012
-0.033
0.050
-0.003
0.046
0.024
0.026
0.098
0.049
0.030
-0.025
0.008
0.067
-0.017
0.122
-0.002
0.011
0.022
0.032
0.019
0.101
-0.029
-0.016
-0.020
0.063
0.056
0.014
0.009
0.092
0.041
0.019
0.060
0.035
0.035
0.005
0.058
0.022
0.058
0.040
-0.012
0.058
0.097
-0.037
0.083
0.019
0.089
0.029
0.028
0.076
0.001
0.012
0.093
-0.016
0.022
0.079
-0.007
0.067
0.045
0.049
0.033
-0.008
0.068
-0.008
0.104
-0.041
-0.002
0.009
0.048
0.011
0.006
0.001
0.106
0.036
-0.064
0.070
0.033
0.044
0.073
0.040
0.141
-0.001
-0.078
0.075
-0.011
0.025
0.052
0.020
0.078
0.018
0.008
0.021
0.061
0.071
-0.018
0.061
-0.024
0.056
0.006
-0.041
0.050
-0.001
0.015
0.075
0.078
0.087
0.054
0.021
0.025
0.041
-0.065
-0.021
0.077
0.065
0.052
0.043
0.055
-0.014
0.019
-0.017
0.018
0.075
0.002
0.078
-0.054
0.015
0.027
0.064
0.067
0.003
0.014
-0.029
0.050
0.020
-0.004
0.037
-0.046
0.023
-0.022
0.019
0.004
0.117
0.048
-0.034
0.070
-0.012
0.067
0.042
0.075
-0.019
0.079
0.047
0.013
0.017
0.013
0.003
0.094
-0.053
0.029
0.045
-0.128
0.013
0.167
0.169
0.093
-0.057
-0.007
0.005
-0.057
0.037
0.119
-0.010
0.141
-0.049
0.113
0.122
0.057
-0.069
-0.013
0.036
0.025
-0.058
0.054
0.016
-0.028
0.042
0.112
-0.001
0.001
-0.003
0.019
0.025
0.067
0.071
0.125
0.043
0.015
-0.019
-0.013
0.067
0.020
0.062
-0.011
0.098
0.084
0.039
0.018
0.064
0.071
-0.014
-0.068
0.022
0.056
0.076
0.043
0.059
0.055
0.033
-0.023
0.047
0.036
0.033
0.070
0.036
0.005
0.042
0.042
0.096
0.061
0.033
-0.016
-0.034
0.076
0.090
0.067
0.044
-0.012
-0.075
0.011
0.033
0.082
0.033
-0.020
0.036
0.043
0.037
0.076
0.099
0.061
-0.042
0.067
0.002
-0.050
-0.020
0.060
0.067
-0.024
0.048
0.028
-0.007
-0.071
0.112
0.111
0.141
0.065
0.059
-0.026
-0.122
-0.036
0.056
0.099
0.060
0.047
0.089
-0.019
-0.005
0.013
-0.026
0.043
0.032
-0.053
0.035
0.024
-0.020
0.017
0.054
0.060
0.010
0.019
-0.006
0.051
0.050
0.099
0.023
0.032
-0.002
0.064
0.088
0.044
0.004
0.043
-0.008
-0.024
0.013
0.039
0.074
0.069
0.075
0.023
0.002
0.112
-0.017
0.034
-0.043
0.088
0.039
0.020
0.080
0.021
-0.014
0.062
-0.076
-0.022
0.076
0.156
0.132
0.027
-0.032
-0.042
0.048
0.003
0.068
0.048
-0.016
0.012
0.029
0.040
0.056
-0.010
-0.022
0.013
-0.019
0.108
0.023
0.086
0.088
0.006
0.050
0.072
0.073
0.035
-0.016
0.040
0.089
-0.005
0.028
0.039
0.038
0.081
0.028
0.006
-0.025
0.002
0.106
0.056
0.046
-0.084
0.022
-0.001
0.098
-0.021
0.025
-0.005
0.029
0.037
-0.005
0.077
-0.008
-0.099
0.009
0.095
0.137
0.040
-0.000
0.038
0.007
-0.025
0.024
0.029
0.050
0.013
0.007
0.064
0.079
0.044
-0.030
0.026
0.025
-0.059
0.093
-0.037
0.013
0.013
0.075
0.085
0.038
0.080
-0.002
-0.001
-0.017
0.059
0.018
-0.012
0.007
0.067
0.092
0.010
0.038
-0.075
0.142
-0.016
0.085
-0.006
0.025
0.005
0.034
-0.029
0.106
0.090
0.066
0.055
-0.055
0.097
-0.007
0.023
-0.054
-0.030
0.167
0.142
0.089
-0.023
-0.024
-0.079
0.070
-0.037
0.082
0.075
0.093
0.104
0.027
0.031
0.023
-0.044
-0.004
0.007
0.089
0.096
0.035
-0.028
0.009
0.037
0.002
0.050
0.017
0.002
0.009
-0.025
-0.007
0.106
0.087
0.128
0.017
-0.011
0.024
-0.168
0.028
0.115
0.187
0.159
0.009
0.012
0.003
-0.007
0.032
0.027
0.016
0.052
0.028
0.025
0.016
0.080
0.008
-0.036
-0.059
0.035
-0.041
0.073
0.052
0.053
0.050
0.046
0.036
0.027
0.014
0.000
0.046
0.087
0.007
0.098
-0.016
-0.011
0.016
0.052
0.085
-0.024
-0.021
0.024
-0.020
-0.027
0.105
0.049
-0.001
-0.012
0.027
0.087
0.040
0.052
-0.033
-0.109
0.146
0.190
0.059
0.021
0.016
-0.051
-0.053
0.001
0.022
0.095
0.026
0.056
0.023
0.051
0.002
-0.035
-0.021
-0.002
0.072
0.029
0.066
0.050
-0.045
-0.163
0.023
0.235
0.367
0.060
-0.209
-0.126
0.083
0.174
0.044
0.059
0.019
-0.142
0.034
0.043
-0.029
0.131
0.121
0.014
-0.003
0.018
0.030
-0.077
0.050
0.006
-0.018
-0.027
0.021
0.029
0.062
0.033
0.030
-0.066
0.052
0.085
0.027
-0.040
0.050
-0.015
0.015
-0.021
0.076
0.026
0.109
0.115
0.069
0.019
0.021
-0.012
0.088
-0.034
0.073
0.054
-0.044
-0.050
0.093
0.130
0.108
0.068
0.185
-0.073
-0.091
-0.064
0.029
0.057
0.023
0.108
0.060
-0.067
0.077
-0.088
-0.035
-0.032
0.018
0.093
0.089
0.082
-0.037
-0.154
0.130
0.202
0.148
-0.074
-0.114
-0.010
0.101
0.193
0.179
0.109
0.074
-0.097
-0.032
-0.038
0.057
0.109
0.067
-0.070
0.029
-0.041
0.050
-0.044
0.013
0.042
0.082
0.078
0.015
0.045
-0.016
0.010
0.015
0.045
0.071
0.038
0.048
0.078
0.051
0.082
0.120
0.071
0.076
-0.027
0.008
0.026
0.003
-0.025
0.018
0.106
0.116
0.012
-0.066
-0.054
-0.026
0.080
0.030
-0.021
0.057
0.015
0.143
0.154
0.143
-0.089
-0.102
-0.000
0.113
0.198
0.269
-0.021
-0.069
-0.052
0.064
-0.032
-0.040
0.030
0.069
-0.016
0.045
-0.015
0.022
0.029
0.004
-0.044
0.063
0.080
0.055
0.068
0.032
-0.017
0.064
0.024
0.112
0.076
0.011
0.059
0.149
0.047
-0.025
-0.019
-0.048
-0.043
0.129
0.045
0.059
0.029
0.069
0.074
0.035
-0.032
0.050
0.017
0.041
0.094
0.044
-0.094
-0.001
0.060
0.007
0.093
0.187
0.044
-0.001
-0.037
0.055
-0.005
0.121
0.107
-0.127
-0.044
0.013
0.022
0.042
0.053
0.042
-0.046
0.028
0.060
0.039
0.058
-0.013
-0.031
0.100
0.035
-0.047
-0.052
0.183
0.127
0.153
-0.035
-0.043
0.038
0.053
0.016
0.067
-0.021
-0.041
0.032
0.024
0.097
0.019
0.018
0.093
0.031
-0.019
0.051
-0.021
0.123
-0.065
0.055
0.016
0.072
0.008
-0.036
-0.007
-0.021
0.052
0.013
-0.082
0.187
0.176
0.086
-0.031
-0.038
-0.007
-0.005
0.052
0.078
0.010
0.031
0.003
0.042
0.071
-0.037
0.080
0.013
-0.045
-0.052
-0.040
0.039
-0.027
0.105
0.072
0.056
0.027
0.064
0.021
0.033
0.068
0.011
0.028
0.093
-0.010
-0.068
-0.053
0.098
0.008
0.025
0.011
0.108
0.049
-0.035
0.061
0.046
-0.019
-0.007
0.064
0.052
-0.007
0.026
0.025
0.017
0.014
0.002
-0.047
-0.021
0.006
0.149
-0.141
0.074
0.092
0.094
-0.084
0.030
0.044
0.081
0.007
0.120
0.048
-0.018
0.129
0.086
-0.012
-0.004
-0.054
-0.040
0.043
0.061
0.032
-0.016
0.057
0.013
-0.012
0.073
0.099
0.062
0.034
0.050
-0.006
-0.030
0.008
0.021
0.087
0.007
0.047
-0.072
0.071
0.036
0.146
0.001
0.060
0.012
-0.016
0.011
0.014
0.004
0.073
-0.018
0.000
0.063
0.097
-0.035
-0.037
0.047
0.094
0.056
-0.040
-0.112
0.042
0.149
0.175
0.080
-0.032
-0.046
0.054
0.085
0.063
0.024
0.046
0.029
0.074
0.118
-0.077
-0.128
0.000
0.064
-0.045
0.092
0.109
0.025
-0.017
0.092
0.086
-0.035
-0.005
0.019
0.038
0.040
0.056
0.111
0.007
-0.004
0.075
-0.013
-0.015
-0.010
0.134
0.028
0.014
0.044
0.008
-0.040
0.006
0.014
0.012
0.058
0.103
0.023
-0.040
-0.006
-0.022
0.028
0.052
0.064
-0.045
0.006
0.039
0.072
-0.218
-0.092
0.201
0.354
0.112
0.026
-0.075
-0.055
-0.066
0.031
0.033
0.182
0.088
0.075
0.014
-0.036
-0.017
0.032
0.078
-0.008
-0.065
-0.004
-0.020
0.075
0.041
-0.027
0.011
0.115
0.011
0.012
0.090
0.052
0.006
0.027
0.070
-0.025
0.033
0.048
0.063
-0.057
0.015
0.056
-0.018
0.031
0.105
0.028
0.010
0.061
0.006
0.105
-0.040
0.042
0.004
0.031
0.030
0.113
-0.032
0.039
0.002
0.056
0.045
0.038
0.080
-0.008
0.014
-0.060
-0.028
0.061
0.041
0.094
0.201
0.090
0.031
-0.057
-0.043
0.027
0.007
0.019
0.019
0.008
0.146
0.055
-0.014
-0.009
-0.005
0.017
-0.050
0.062
0.026
-0.019
-0.042
0.092
0.022
0.044
0.106
0.083
-0.001
0.094
0.112
0.071
0.061
-0.074
0.008
0.006
0.048
0.022
0.061
-0.134
-0.052
0.247
0.136
0.015
-0.049
-0.037
0.050
0.015
0.003
0.010
0.026
0.075
0.028
-0.027
0.104
0.024
0.014
-0.049
0.055
0.007
-0.002
0.025
0.019
-0.082
-0.056
0.113
0.152
0.091
0.089
0.002
-0.083
-0.068
0.039
0.007
0.038
0.163
0.059
-0.015
0.002
0.018
0.079
0.041
-0.006
0.003
0.011
-0.024
0.074
0.069
0.047
0.049
0.044
0.007
-0.021
0.024
0.002
-0.049
0.121
-0.010
0.005
0.054
0.130
0.033
-0.043
0.089
0.055
-0.015
-0.059
-0.007
0.075
0.055
0.079
-0.073
-0.016
-0.017
0.109
-0.004
0.044
0.021
-0.025
0.053
0.020
0.023
0.127
-0.028
-0.096
-0.007
0.037
0.171
0.061
0.053
0.007
-0.004
0.039
-0.106
-0.115
0.064
0.185
0.166
0.004
-0.049
-0.013
-0.048
-0.029
0.149
0.038
0.015
0.134
0.027
-0.043
-0.051
0.022
0.063
0.047
0.034
0.062
0.001
0.023
0.036
-0.039
0.048
0.055
-0.027
-0.009
0.036
0.048
0.062
0.061
0.020
0.046
0.069
0.009
0.054
-0.007
0.001
0.062
0.044
-0.022
-0.003
0.027
0.075
-0.004
0.050
-0.019
0.013
0.023
0.029
0.000
0.059
0.041
0.028
0.003
0.104
0.004
-0.015
0.016
-0.007
0.018
0.020
0.041
0.065
0.049
0.092
-0.033
0.032
-0.058
-0.046
0.017
0.020
0.029
0.040
0.111
0.144
0.095
0.031
-0.024
-0.070
-0.048
0.076
0.073
0.076
0.029
0.051
0.015
0.024
-0.044
0.012
-0.018
-0.024
-0.031
0.089
0.010
-0.005
-0.030
0.071
0.106
-0.028
0.027
0.038
0.007
0.019
0.039
-0.024
0.019
0.003
0.112
0.039
-0.005
0.046
0.004
0.047
0.049
0.055
0.057
0.010
0.015
0.003
-0.057
-0.134
0.133
0.192
0.167
-0.017
0.029
-0.024
-0.132
0.072
0.124
0.038
0.023
0.080
0.032
-0.098
-0.023
0.054
0.010
-0.015
0.087
0.083
-0.032
0.030
-0.005
-0.106
0.167
0.163
0.140
-0.107
-0.013
0.012
0.024
0.039
0.125
0.043
0.045
0.021
0.080
0.039
0.041
-0.023
0.026
-0.031
0.081
0.001
0.007
0.041
0.049
-0.045
0.009
0.034
0.055
0.010
0.043
-0.013
0.078
0.062
-0.002
0.031
-0.034
0.061
0.043
-0.011
-0.011
0.079
0.023
0.055
0.026
0.014
0.040
0.007
0.069
0.053
0.036
0.003
0.078
0.029
0.038
0.030
0.051
-0.029
0.033
-0.050
0.065
-0.048
0.023
0.021
-0.032
0.010
0.029
0.094
0.023
-0.020
0.017
0.110
0.021
0.035
-0.082
0.016
-0.001
-0.033
-0.079
0.034
0.183
0.238
0.011
-0.010
-0.091
0.029
0.080
-0.016
-0.002
0.013
0.053
0.137
0.001
0.074
0.071
0.024
-0.029
0.045
-0.035
0.087
-0.002
0.033
0.064
-0.007
0.038
-0.002
0.031
0.065
0.047
0.044
-0.004
0.075
0.028
-0.029
0.076
0.035
0.032
-0.027
0.034
-0.016
0.014
0.037
-0.042
0.145
0.123
0.003
-0.035
0.069
0.030
0.039
0.089
-0.033
-0.026
0.032
0.084
0.114
-0.022
0.040
0.067
-0.028
0.040
-0.002
0.027
-0.023
0.055
0.063
0.011
-0.036
0.065
0.072
0.008
0.034
0.049
0.134
0.007
0.035
-0.052
-0.091
0.025
0.134
0.140
0.040
-0.053
0.037
0.011
0.018
0.131
0.005
0.054
0.025
0.105
0.027
-0.003
0.013
-0.037
-0.093
0.094
0.024
0.027
-0.004
0.054
0.062
0.023
0.071
-0.033
0.042
0.048
0.017
0.020
0.050
0.049
0.001
0.000
-0.010
0.060
0.026
0.102
0.089
0.001
0.075
-0.041
0.120
0.020
-0.048
-0.031
0.036
0.030
0.038
0.165
0.083
0.015
-0.017
0.010
-0.034
0.108
-0.004
-0.036
0.032
0.008
0.047
0.067
0.058
0.026
-0.008
0.043
0.071
0.046
-0.016
-0.011
0.122
0.003
0.034
0.092
0.025
0.068
0.023
0.078
-0.015
0.042
0.006
-0.053
-0.127
-0.053
0.087
0.172
0.140
0.100
-0.129
-0.111
0.027
0.063
0.024
0.085
-0.007
0.120
0.009
0.009
0.086
-0.090
0.055
0.017
0.037
0.004
0.014
0.040
-0.045
0.025
0.066
0.028
-0.010
0.111
-0.020
0.088
0.052
0.036
0.013
0.042
0.072
-0.007
0.018
0.011
-0.035
0.025
0.046
0.015
-0.028
0.048
0.009
0.123
0.024
0.066
-0.020
0.077
0.057
-0.022
0.075
-0.004
-0.017
0.019
0.062
0.010
-0.036
0.107
0.001
0.030
0.062
-0.010
-0.009
0.019
0.055
0.029
0.043
0.037
0.051
0.052
0.056
0.070
0.050
0.037
-0.022
0.061
0.002
0.005
-0.093
-0.060
0.179
0.194
0.064
-0.021
0.001
-0.038
0.070
0.012
0.053
0.071
0.094
0.073
0.068
-0.023
-0.009
-0.064
0.064
0.089
-0.020
-0.027
0.046
0.007
0.014
0.063
0.014
-0.034
0.094
0.040
0.027
0.088
-0.012
0.007
0.021
0.026
0.060
0.049
0.039
0.072
-0.006
-0.012
-0.001
-0.009
0.036
-0.007
0.069
0.027
0.024
0.107
0.037
-0.031
-0.013
0.040
0.008
-0.022
0.141
0.015
-0.042
0.083
0.068
-0.011
0.011
0.014
-0.025
0.006
0.143
0.030
-0.018
0.032
-0.030
0.089
-0.005
0.027
0.106
-0.012
0.031
-0.011
0.118
0.021
-0.021
-0.026
-0.052
-0.011
0.156
0.099
0.018
0.032
0.017
0.048
-0.048
-0.001
0.013
0.074
0.057
0.102
0.048
-0.005
0.036
0.011
0.009
0.008
0.100
0.009
0.044
0.051
0.046
-0.011
0.018
0.050
0.042
0.040
-0.029
0.025
0.014
0.104
0.105
0.096
-0.011
-0.014
0.040
-0.000
0.033
0.023
-0.031
0.050
0.100
0.049
0.069
0.055
-0.001
-0.011
0.068
0.084
-0.020
0.066
0.018
-0.000
0.024
0.033
0.015
-0.007
0.052
-0.029
0.060
0.130
-0.057
0.000
0.059
0.007
0.018
0.048
0.000
0.025
-0.061
0.084
-0.016
-0.019
0.011
0.102
-0.003
0.097
0.051
0.015
-0.017
-0.004
0.055
0.001
0.003
0.047
0.081
0.046
0.082
0.031
0.054
0.067
0.048
-0.130
-0.034
0.161
0.115
-0.001
-0.030
0.003
-0.046
0.043
-0.012
0.012
0.128
0.105
-0.010
-0.069
-0.026
0.083
0.009
0.022
-0.004
-0.045
0.038
0.057
0.033
-0.001
0.023
0.007
0.125
0.047
0.044
-0.037
0.026
0.001
0.026
0.105
0.013
0.022
0.044
0.050
0.080
0.016
0.058
0.071
-0.031
-0.027
0.041
0.078
-0.064
-0.068
0.097
0.135
0.007
0.040
0.030
-0.008
0.031
0.035
0.037
0.048
0.160
0.041
0.025
0.006
0.001
0.018
0.035
0.038
0.041
0.034
0.097
-0.060
0.017
0.067
0.015
-0.083
0.006
0.031
0.157
0.009
-0.027
0.070
0.090
-0.085
-0.047
-0.016
0.157
0.144
0.072
0.000
-0.004
-0.043
0.079
0.029
0.068
0.016
0.041
0.004
0.052
-0.029
0.001
0.047
0.003
0.038
-0.038
0.049
0.099
0.093
0.023
-0.008
0.024
0.134
0.047
0.063
0.041
-0.001
0.044
0.032
-0.019
0.021
0.024
-0.005
-0.061
0.039
0.132
0.012
0.022
-0.008
0.074
0.183
-0.045
-0.021
0.026
-0.015
0.032
0.119
0.029
0.021
0.009
0.104
0.007
0.030
0.083
-0.009
-0.027
0.066
0.054
0.044
-0.003
0.079
-0.011
0.007
0.107
0.055
0.050
-0.034
0.013
0.072
-0.025
0.079
0.061
0.027
0.033
0.072
-0.015
0.045
-0.027
0.081
-0.062
0.045
0.035
0.045
0.073
-0.007
-0.001
0.012
-0.019
-0.074
-0.019
0.154
0.162
0.074
0.010
-0.066
-0.006
0.022
0.027
0.136
0.028
0.069
0.084
0.080
-0.001
0.001
-0.018
0.011
0.033
0.059
-0.000
-0.011
-0.046
0.010
0.032
0.030
-0.004
0.079
0.043
0.025
0.068
-0.009
0.032
0.046
0.008
0.149
-0.056
-0.053
-0.013
0.046
0.071
0.047
0.031
0.031
-0.001
0.025
0.026
-0.003
0.095
-0.045
0.052
-0.022
0.091
0.035
-0.035
0.024
0.030
0.052
0.061
0.001
0.023
0.024
0.007
-0.008
0.066
0.016
0.054
0.027
0.010
0.106
0.075
0.040
0.090
-0.012
0.036
-0.029
0.117
0.057
0.006
-0.012
0.073
-0.005
0.020
0.063
0.040
0.086
-0.025
0.008
-0.017
0.068
-0.013
-0.075
0.026
0.113
0.137
0.024
0.051
-0.096
-0.023
0.012
0.081
0.083
0.027
0.113
-0.023
0.025
-0.010
0.122
-0.011
-0.014
-0.002
0.070
0.126
0.039
-0.006
0.023
0.057
0.090
0.055
0.050
-0.002
0.060
-0.062
0.036
0.030
0.027
0.059
0.093
-0.013
0.021
0.066
-0.038
0.008
0.061
0.049
0.067
-0.040
0.076
0.024
-0.086
0.073
0.087
0.047
0.047
0.001
0.018
0.045
0.034
0.080
-0.011
0.054
-0.003
-0.019
-0.009
-0.021
0.021
0.140
-0.012
0.058
-0.025
0.035
0.011
-0.017
0.077
0.033
0.067
0.092
-0.005
0.056
0.009
0.055
0.014
0.061
-0.041
0.063
0.055
0.038
0.051
0.003
-0.033
0.055
0.082
-0.035
-0.036
0.109
0.008
-0.088
0.002
0.221
0.047
-0.011
0.092
-0.028
-0.006
0.007
0.017
0.037
0.039
0.068
0.092
0.013
0.063
-0.041
-0.009
0.033
-0.022
0.017
0.045
-0.021
-0.019
0.015
0.073
0.035
0.056
0.038
0.064
0.055
0.003
0.015
0.052
0.032
0.018
0.009
0.014
0.058
0.033
0.031
-0.023
0.063
0.126
0.030
0.036
0.045
-0.062
-0.041
0.025
0.033
0.037
-0.004
0.051
0.042
0.082
0.048
0.023
0.039
0.023
-0.001
0.010
-0.025
-0.030
-0.018
0.077
-0.010
0.036
0.067
0.109
0.118
-0.013
0.014
0.001
0.065
-0.020
-0.036
-0.040
0.060
0.027
0.025
0.074
0.007
0.076
-0.025
0.029
0.067
0.016
-0.041
0.043
0.027
0.013
-0.026
0.029
0.068
0.038
0.013
0.106
-0.015
-0.031
-0.036
-0.042
-0.010
0.117
0.154
0.093
-0.054
0.001
-0.058
0.048
0.046
0.078
0.025
0.022
0.016
0.018
0.007
0.014
-0.032
0.002
0.023
0.032
0.060
-0.045
0.047
0.174
0.067
0.040
0.021
-0.024
-0.048
0.003
0.070
0.020
-0.039
0.007
0.079
0.002
0.111
0.046
0.081
-0.018
0.013
0.066
-0.074
0.088
-0.006
0.046
0.095
0.078
-0.023
0.045
0.021
-0.020
-0.020
0.032
-0.014
0.018
0.021
0.084
-0.027
0.031
0.045
0.050
0.038
0.016
0.056
-0.005
0.066
-0.019
0.010
0.007
0.082
0.049
0.057
0.146
0.052
-0.091
-0.039
0.084
0.011
0.038
0.097
0.077
0.014
0.031
0.047
0.035
-0.009
0.117
-0.004
0.014
0.009
0.081
0.018
-0.020
0.001
0.047
-0.003
0.031
0.055
-0.012
0.069
0.115
-0.006
-0.028
-0.136
-0.007
0.112
0.160
0.111
-0.002
-0.071
-0.035
0.047
0.012
0.019
0.039
0.027
0.072
-0.046
0.016
0.022
0.076
-0.014
0.131
0.020
0.032
0.072
0.001
-0.008
0.037
0.054
0.005
0.038
-0.012
0.162
-0.012
0.054
0.025
-0.005
-0.061
0.062
0.065
-0.029
-0.045
0.038
0.017
0.040
0.018
0.045
0.017
-0.031
0.049
-0.008
0.050
0.029
-0.007
0.023
0.084
0.066
0.025
0.043
0.023
0.009
0.005
0.010
-0.001
-0.001
0.004
0.086
0.035
0.091
0.042
0.047
-0.005
0.008
-0.056
0.056
0.059
0.017
-0.012
0.095
0.038
-0.024
-0.050
0.112
0.082
-0.029
0.028
0.068
0.040
0.015
-0.018
-0.003
0.094
0.101
0.006
-0.016
0.131
0.010
-0.016
0.020
0.049
0.010
0.006
0.018
-0.020
0.031
-0.035
0.048
0.164
0.249
0.051
-0.020
-0.028
-0.035
0.016
-0.005
-0.004
0.057
0.075
0.107
0.055
0.023
0.063
-0.008
-0.036
0.024
0.025
0.007
0.016
0.014
0.076
0.044
0.090
0.066
0.019
0.020
0.073
0.008
-0.000
-0.041
-0.024
0.062
0.099
0.056
0.046
-0.060
0.018
0.082
0.026
0.055
0.080
0.008
-0.002
0.049
0.049
0.018
-0.039
0.011
0.023
0.014
0.156
-0.032
-0.011
-0.000
0.005
0.061
0.045
0.056
-0.002
-0.010
0.086
-0.006
0.061
0.066
-0.012
-0.017
0.025
0.069
0.050
-0.041
0.063
0.038
0.066
-0.010
-0.009
-0.012
0.010
-0.087
0.062
-0.017
0.065
-0.012
0.139
0.003
0.025
0.045
0.039
-0.028
0.121
-0.017
0.038
0.076
-0.039
-0.034
0.056
0.085
0.020
-0.070
0.049
0.161
0.162
0.031
-0.063
-0.095
-0.002
-0.046
0.160
0.039
0.059
0.145
0.071
0.097
-0.026
0.013
-0.033
0.000
-0.047
0.001
0.089
0.003
0.044
0.101
-0.046
0.094
0.045
-0.001
-0.045
0.084
0.035
0.023
0.018
0.094
0.026
-0.010
0.089
-0.007
0.019
0.044
0.034
-0.027
0.032
-0.030
0.085
0.091
0.040
0.057
0.025
0.006
-0.045
0.053
-0.010
0.060
0.004
0.055
0.070
0.014
0.029
0.074
0.023
0.029
-0.019
0.034
0.044
0.060
0.033
-0.005
0.015
0.044
-0.021
0.061
-0.018
0.021
0.005
0.024
0.013
0.030
-0.014
-0.028
0.075
0.050
-0.049
0.024
0.087
0.039
0.038
-0.033
-0.014
0.009
0.069
-0.022
0.041
0.093
-0.035
0.007
0.033
0.009
-0.084
-0.003
0.157
0.075
0.063
0.019
0.007
0.003
0.001
0.032
-0.005
0.098
0.103
0.001
0.101
-0.009
-0.034
0.073
-0.001
-0.058
-0.016
-0.022
0.132
0.013
0.019
0.040
0.076
-0.006
0.083
0.050
-0.014
0.021
0.085
0.031
0.026
0.098
-0.017
0.026
-0.011
0.068
0.029
0.048
0.017
0.026
-0.011
0.117
0.026
-0.098
0.018
-0.001
0.029
0.057
0.081
-0.041
0.052
0.076
0.021
0.043
0.086
0.036
0.011
-0.006
0.068
0.013
0.039
0.062
0.080
-0.009
0.010
-0.012
0.028
0.058
0.043
0.007
0.025
0.034
-0.022
-0.000
0.088
-0.016
0.075
0.058
0.089
-0.023
-0.072
0.009
0.061
0.010
0.112
-0.023
-0.005
0.022
0.017
0.100
0.034
-0.080
0.072
0.085
0.009
-0.114
0.028
0.149
0.070
0.099
0.038
0.010
-0.007
-0.024
0.035
-0.025
0.064
0.101
0.070
-0.086
0.099
0.029
0.010
-0.025
0.031
-0.069
0.024
0.049
0.081
0.018
0.008
0.036
0.077
0.030
0.063
0.111
-0.033
0.076
0.077
-0.063
0.077
0.070
-0.002
0.028
0.047
-0.021
-0.005
0.066
-0.001
0.010
0.044
0.058
0.068
0.077
0.026
0.085
0.059
-0.049
-0.007
0.067
0.028
-0.030
0.055
0.038
0.044
0.041
0.097
0.065
0.040
0.027
0.079
0.047
0.042
-0.047
0.042
0.109
-0.032
0.017
0.007
0.088
0.150
0.014
-0.023
0.096
0.046
0.117
-0.025
-0.020
-0.037
-0.027
0.063
0.023
0.052
0.014
0.001
0.159
-0.024
0.023
0.110
0.046
-0.053
-0.063
0.157
0.255
0.052
0.045
0.008
-0.041
-0.028
-0.025
0.024
0.081
0.024
0.132
0.111
-0.019
0.056
0.009
0.006
0.003
0.037
0.016
0.080
-0.035
0.017
-0.031
0.116
0.076
0.073
-0.020
0.047
-0.022
0.090
0.021
0.033
0.021
0.055
0.033
0.097
-0.012
0.056
0.034
0.020
0.004
-0.019
0.020
0.039
0.006
0.040
0.032
0.039
0.030
0.070
0.014
0.042
0.051
0.060
-0.023
0.008
0.097
0.023
-0.042
-0.018
0.032
0.068
0.067
-0.003
0.071
0.056
-0.032
-0.046
-0.018
0.010
0.038
-0.004
0.061
0.022
0.040
0.017
-0.024
0.050
0.040
0.022
-0.001
0.064
0.002
0.010
0.113
0.075
0.017
0.062
-0.015
0.004
-0.022
0.017
0.073
0.091
0.065
-0.019
-0.016
0.020
-0.084
-0.088
0.131
0.135
0.052
0.032
0.002
0.011
0.024
-0.033
0.080
0.027
-0.019
0.033
0.012
-0.008
0.029
0.059
0.078
0.009
0.059
0.088
0.037
0.015
0.100
-0.032
0.067
0.057
0.035
0.038
-0.025
0.105
0.005
0.046
0.155
0.054
-0.029
-0.042
0.006
0.067
0.015
0.002
0.067
-0.025
0.020
0.119
0.105
-0.039
-0.031
0.013
-0.022
0.046
0.067
-0.017
0.095
0.011
0.013
0.067
0.050
-0.023
-0.017
0.074
0.126
-0.065
0.031
-0.013
0.049
0.126
-0.016
0.028
0.007
0.030
0.103
0.050
0.067
0.038
0.005
0.085
0.043
0.052
0.059
-0.035
0.011
0.000
0.062
-0.020
0.019
0.074
0.025
0.057
0.109
-0.020
-0.055
-0.014
0.064
-0.012
-0.039
0.007
0.013
-0.019
-0.026
-0.091
0.224
0.099
0.093
0.098
-0.057
-0.091
-0.080
0.062
0.223
0.033
0.033
0.048
-0.012
0.025
0.021
-0.008
0.002
0.043
0.059
0.042
-0.000
0.043
0.015
0.034
0.012
-0.003
0.074
0.010
0.002
0.067
0.042
0.002
0.066
-0.004
-0.020
0.027
0.102
-0.006
0.014
0.022
0.025
0.054
0.120
-0.023
0.104
0.079
-0.002
-0.060
0.042
0.049
-0.033
0.050
-0.010
0.048
0.057
0.040
0.109
0.035
0.009
0.025
0.025
-0.015
0.010
0.039
0.049
-0.002
-0.002
0.025
0.038
0.013
0.024
0.002
-0.019
-0.017
0.088
-0.029
-0.015
0.132
0.007
0.058
0.106
0.054
0.015
-0.035
0.030
-0.003
0.027
0.121
0.063
0.007
0.010
0.037
0.073
-0.054
-0.019
0.058
0.073
-0.004
0.009
0.057
0.018
0.006
0.112
0.081
0.088
0.059
0.024
-0.045
-0.045
0.054
-0.041
-0.026
0.108
0.115
0.047
-0.005
-0.079
-0.041
-0.010
0.072
0.095
0.038
-0.005
0.093
0.062
-0.003
0.045
0.022
-0.029
0.040
0.005
0.054
0.050
-0.001
-0.035
0.006
0.039
0.099
0.012
-0.047
0.120
0.086
-0.002
-0.020
0.027
0.148
-0.063
0.060
0.016
0.007
0.138
0.088
-0.007
0.029
0.025
0.006
0.022
0.040
0.070
0.030
0.038
0.075
-0.004
0.004
-0.023
0.019
0.063
-0.005
0.049
0.100
-0.009
-0.057
0.010
0.084
-0.020
-0.101
0.097
0.044
0.056
-0.076
0.050
0.068
0.053
0.076
0.045
0.020
0.051
0.013
-0.002
-0.049
0.053
0.011
0.082
0.125
0.063
-0.071
0.032
-0.022
0.094
-0.004
0.028
0.073
0.058
-0.075
0.026
0.030
0.063
-0.054
0.059
0.095
0.084
0.084
0.082
-0.048
0.037
0.031
0.033
-0.024
0.046
0.013
0.015
0.022
0.086
0.024
0.030
-0.004
-0.020
0.060
0.021
0.054
-0.096
-0.005
0.137
0.159
0.161
-0.033
-0.009
-0.063
-0.014
0.007
0.039
0.157
0.036
-0.016
0.042
-0.028
-0.005
0.042
0.008
-0.028
-0.022
0.026
0.081
0.051
-0.003
0.078
0.039
-0.012
0.050
0.060
0.035
0.124
-0.005
-0.026
0.008
0.074
0.029
0.064
0.037
0.048
0.042
-0.008
0.014
0.006
-0.025
0.067
0.037
-0.013
-0.015
0.025
0.083
0.055
0.027
0.070
-0.006
0.023
-0.005
0.035
-0.001
0.025
0.007
-0.005
0.085
0.073
-0.021
0.048
0.013
-0.014
-0.008
-0.011
0.005
0.058
0.035
0.012
-0.020
0.024
0.067
0.002
-0.032
0.008
0.010
0.052
0.015
0.048
0.043
0.067
0.017
-0.001
0.025
-0.070
0.072
0.076
-0.001
-0.007
0.044
0.002
0.061
0.092
0.044
0.003
0.076
-0.033
0.054
-0.026
0.045
0.053
0.087
-0.002
-0.011
0.032
-0.007
0.002
0.025
0.013
0.000
0.010
0.092
-0.041
-0.064
0.034
0.189
0.090
0.054
-0.028
0.116
-0.043
-0.017
0.027
0.115
-0.026
0.023
0.073
0.069
0.038
-0.039
0.020
0.027
0.003
0.045
0.002
0.036
-0.018
0.024
0.051
0.074
-0.036
0.021
0.035
0.097
0.103
0.103
-0.007
0.037
0.046
-0.025
0.045
0.060
-0.038
0.042
0.054
0.096
0.014
-0.001
0.053
0.063
0.094
0.029
0.034
-0.072
-0.018
0.066
0.119
-0.028
-0.102
0.028
0.071
0.034
0.075
0.042
-0.020
-0.056
-0.021
0.060
0.009
0.024
-0.010
0.001
0.028
0.076
0.083
0.016
0.027
-0.046
0.023
0.137
0.058
-0.041
0.097
-0.057
-0.003
0.040
0.011
0.069
0.020
0.071
0.033
-0.003
-0.024
-0.038
0.043
0.062
0.011
0.021
0.034
-0.001
0.082
-0.036
-0.022
0.049
0.037
0.058
0.036
-0.013
0.036
-0.027
0.037
-0.012
0.037
-0.056
0.040
0.013
0.126
-0.065
0.028
0.059
0.023
0.087
0.039
0.021
0.058
-0.024
0.083
0.038
0.050
0.007
-0.015
0.015
0.016
0.032
0.077
0.022
-0.056
-0.076
-0.011
0.154
0.186
0.036
0.067
-0.024
-0.092
0.081
0.039
0.095
0.140
0.106
-0.022
-0.047
0.131
0.049
0.049
-0.058
-0.011
0.054
0.032
0.030
0.043
0.030
0.035
-0.005
0.025
-0.008
-0.026
0.017
0.065
0.003
0.009
0.039
0.054
0.091
0.004
0.093
-0.002
0.003
0.046
0.036
0.033
0.056
0.041
0.073
-0.037
-0.003
0.029
0.028
0.085
0.093
-0.008
0.067
0.086
-0.020
0.071
0.036
-0.036
-0.001
0.004
-0.006
0.043
0.021
0.038
0.023
0.035
0.012
0.059
0.082
0.073
0.084
-0.019
0.012
0.025
0.010
0.077
0.021
0.054
-0.028
0.013
0.041
0.055
0.027
0.044
0.019
0.052
0.029
0.088
0.016
-0.047
0.055
0.012
-0.021
0.027
0.056
-0.053
0.029
0.052
0.047
0.082
0.061
0.054
-0.022
0.108
0.091
0.100
0.018
-0.079
0.084
0.063
-0.055
0.020
0.062
0.029
0.036
0.053
0.017
-0.037
0.064
0.042
0.036
0.088
0.090
-0.009
-0.041
0.046
0.108
-0.011
0.042
0.064
0.025
-0.037
-0.135
0.041
0.208
0.165
0.061
-0.051
-0.066
0.003
0.054
0.029
0.084
0.022
0.027
-0.033
0.031
0.135
0.031
-0.015
-0.017
0.028
-0.003
0.016
0.048
-0.003
-0.016
0.036
0.031
0.025
0.066
0.044
0.091
0.010
-0.030
0.044
-0.051
0.026
0.042
0.022
0.068
-0.000
-0.042
-0.003
0.052
0.132
0.050
0.098
-0.037
-0.002
0.036
0.022
-0.026
0.075
-0.003
0.025
0.071
-0.012
-0.056
0.002
0.071
0.104
-0.043
0.140
-0.052
0.053
0.012
0.016
0.064
0.057
0.024
0.026
-0.030
0.054
0.013
0.007
0.065
0.042
0.017
0.026
0.103
0.052
0.037
-0.044
-0.026
0.029
-0.023
0.060
0.076
0.006
0.005
-0.025
0.060
-0.003
0.076
0.076
-0.004
0.041
0.029
-0.007
-0.009
0.001
-0.062
0.039
0.150
0.069
0.046
0.105
0.034
0.007
0.056
0.008
0.042
0.027
0.067
-0.020
0.038
0.009
-0.037
0.035
0.052
0.100
0.028
0.034
0.049
0.012
-0.022
0.037
0.017
0.044
0.030
-0.053
0.010
0.013
0.013
-0.024
-0.018
0.101
0.222
0.093
-0.029
-0.033
-0.018
-0.034
0.061
0.101
0.031
0.089
0.028
0.049
0.042
0.089
-0.004
0.001
-0.035
0.038
0.021
-0.052
-0.026
0.001
0.039
0.002
0.021
0.111
0.035
-0.009
0.122
-0.013
0.102
0.047
-0.044
-0.025
0.051
0.017
0.059
-0.043
0.171
-0.010
0.039
0.036
0.027
0.014
0.055
-0.012
0.039
0.010
0.050
0.040
0.061
0.039
-0.026
0.011
-0.000
0.006
0.127
-0.024
-0.006
0.018
0.072
0.005
0.068
0.078
0.020
-0.047
0.046
0.022
0.030
0.153
0.017
-0.013
0.051
0.000
-0.019
0.034
0.062
0.018
0.040
0.045
0.005
0.028
0.023
0.053
0.042
0.015
0.023
-0.007
0.005
0.037
0.016
0.025
-0.029
0.045
0.046
0.030
0.037
0.106
-0.008
0.056
-0.004
0.023
0.070
0.039
-0.009
0.022
0.014
0.013
0.014
0.021
0.114
0.061
0.117
-0.025
-0.098
0.009
0.027
0.049
0.002
0.003
0.032
0.085
-0.003
0.091
0.040
-0.043
-0.003
0.066
0.020
0.028
0.019
0.032
-0.006
-0.024
-0.012
-0.001
-0.000
0.090
0.060
0.064
0.017
-0.021
-0.011
0.165
0.149
0.102
-0.018
-0.069
-0.035
-0.051
0.064
-0.009
-0.004
0.062
0.082
0.026
0.000
0.011
-0.015
-0.063
0.016
0.081
0.046
0.065
0.068
0.104
0.082
0.046
0.047
-0.051
0.000
0.008
0.061
0.023
0.004
0.059
-0.034
0.088
0.025
0.064
0.068
-0.078
0.078
0.010
0.025
0.044
-0.034
-0.006
0.085
0.094
-0.000
-0.001
0.053
0.004
-0.012
0.034
0.067
0.062
-0.029
0.026
-0.095
0.081
0.046
0.079
0.008
0.107
0.028
0.005
-0.032
0.032
0.007
0.036
-0.006
0.088
0.084
0.006
0.055
0.003
0.067
0.016
0.021
0.087
0.004
0.134
-0.011
0.024
-0.052
0.062
-0.015
0.001
0.065
0.089
-0.043
0.016
-0.019
0.044
-0.032
-0.061
0.012
0.082
0.030
0.078
0.044
0.021
0.016
0.006
0.032
0.004
0.053
-0.031
-0.037
0.058
0.075
0.022
0.042
0.009
0.028
0.082
0.067
0.004
-0.036
0.046
0.087
-0.060
0.007
-0.033
0.006
0.066
0.127
0.083
0.047
-0.002
0.037
0.039
0.035
0.033
-0.011
0.009
0.027
0.029
0.089
-0.016
0.023
-0.041
0.050
0.100
0.007
0.011
-0.038
0.065
0.102
0.085
0.052
0.021
0.001
-0.060
0.066
0.081
-0.016
-0.095
0.115
0.134
0.122
0.037
-0.011
-0.078
-0.011
-0.014
0.105
0.054
0.042
0.078
0.037
-0.013
0.103
0.012
-0.026
0.013
0.038
-0.004
-0.019
0.024
0.024
0.037
0.048
0.075
0.045
-0.028
0.014
-0.008
0.094
0.103
-0.039
0.012
0.093
0.015
0.073
-0.003
0.003
0.042
-0.022
0.033
0.055
0.047
0.087
0.019
0.061
0.019
-0.000
-0.008
0.034
-0.004
0.060
0.029
0.039
0.019
0.058
0.042
-0.022
0.114
-0.008
0.006
0.041
0.079
0.082
-0.003
0.063
0.067
-0.046
0.006
0.053
-0.006
-0.045
0.005
-0.019
0.080
0.075
0.072
-0.029
0.033
0.011
0.022
0.035
-0.040
0.075
0.027
0.009
0.004
0.056
-0.031
-0.014
0.017
0.126
0.090
0.021
0.038
0.014
-0.043
0.058
0.051
0.041
-0.061
0.011
0.082
0.027
0.117
0.047
0.010
-0.055
0.044
0.062
0.050
0.021
0.069
0.061
0.050
-0.025
0.045
0.061
0.018
0.036
-0.045
0.033
0.021
0.030
-0.054
0.053
-0.017
0.025
0.069
0.056
0.005
0.020
0.060
0.063
0.096
0.044
-0.055
-0.044
0.027
0.058
0.024
0.006
-0.033
0.076
0.004
0.053
0.031
-0.015
0.025
0.030
0.129
0.019
-0.067
0.062
0.004
0.016
-0.025
0.125
0.056
0.027
0.061
0.081
0.027
0.002
-0.019
-0.016
0.015
0.119
0.018
0.063
-0.000
0.132
-0.020
0.131
-0.000
-0.014
-0.021
-0.045
0.070
0.055
0.041
0.076
0.075
0.023
-0.003
0.082
0.097
-0.007
0.015
0.043
-0.011
-0.005
-0.046
0.022
0.025
-0.002
0.092
0.020
0.049
0.028
0.041
0.099
-0.028
0.016
-0.019
0.005
0.064
-0.030
0.025
0.037
0.008
0.066
0.027
0.065
-0.011
0.031
0.023
0.056
0.000
0.081
0.010
0.087
-0.007
0.019
-0.013
-0.025
0.062
0.064
0.097
0.083
-0.007
0.002
0.059
-0.045
0.035
-0.002
-0.005
-0.039
0.068
0.060
0.056
0.055
0.007
-0.003
0.009
-0.010
0.076
-0.026
-0.037
0.066
0.022
0.022
0.032
0.025
0.011
0.038
0.046
0.031
0.041
0.037
-0.040
0.049
0.017
0.008
0.036
0.031
0.065
0.053
-0.045
-0.040
0.147
0.132
-0.039
0.037
0.051
-0.070
-0.046
0.076
0.011
0.042
0.038
0.092
0.106
0.054
-0.080
-0.084
0.018
0.133
0.158
0.046
0.048
-0.046
-0.070
-0.024
0.017
0.071
0.003
0.029
0.119
0.083
0.006
0.037
-0.005
0.015
-0.039
0.002
-0.019
0.057
0.042
0.047
-0.033
0.031
0.109
0.145
0.033
0.041
0.121
0.086
-0.026
0.080
-0.019
0.039
0.018
0.076
0.033
-0.024
-0.026
0.022
0.004
0.103
-0.069
0.022
0.001
-0.003
0.103
0.016
-0.016
0.038
0.066
0.036
0.020
0.098
-0.007
0.062
0.070
-0.004
-0.048
-0.005
0.059
0.088
0.049
0.097
0.087
-0.013
-0.031
0.025
0.017
0.014
-0.017
0.039
0.038
0.007
0.109
0.004
0.076
-0.002
0.013
0.069
0.039
0.052
0.026
-0.041
0.084
0.073
0.021
-0.054
-0.046
0.032
0.060
-0.035
-0.023
0.065
0.045
0.019
0.053
0.032
0.093
0.020
0.012
-0.005
0.015
-0.036
0.031
-0.006
0.069
0.029
0.032
0.063
0.047
-0.021
0.059
0.085
0.003
-0.047
-0.013
0.085
0.038
0.048
0.068
-0.092
0.044
0.025
0.128
0.084
-0.021
0.061
-0.079
-0.000
0.017
0.013
0.008
0.042
0.057
0.002
0.086
0.004
-0.072
0.018
0.122
0.203
0.097
-0.053
-0.014
0.013
-0.014
-0.033
0.141
0.099
0.023
0.037
0.012
-0.063
-0.005
0.054
-0.003
-0.079
-0.046
0.085
0.081
0.138
0.032
-0.032
0.073
0.043
0.005
0.038
0.059
-0.004
0.004
0.021
-0.032
0.079
0.082
0.069
0.095
0.016
0.004
-0.003
-0.009
0.043
0.114
-0.046
0.016
0.005
0.007
0.028
0.090
0.002
0.089
0.059
0.055
0.068
0.017
-0.000
0.059
0.027
-0.052
0.012
0.058
0.017
0.054
-0.015
-0.016
0.067
0.014
0.045
0.027
0.061
0.058
-0.052
0.021
0.007
0.033
0.015
0.051
0.065
0.023
0.036
0.033
0.104
0.060
0.044
-0.019
-0.065
0.078
0.031
0.020
0.052
-0.032
0.021
0.031
0.065
0.010
0.019
-0.008
0.036
0.041
0.084
0.037
0.048
-0.002
0.069
0.047
0.048
-0.004
-0.028
0.017
-0.041
0.076
0.004
-0.005
0.072
0.067
0.060
0.113
0.057
0.013
0.047
-0.048
0.084
0.054
0.012
0.003
-0.006
0.001
-0.004
0.037
0.037
0.027
0.125
0.001
0.036
-0.010
-0.045
0.089
0.026
-0.117
0.036
0.109
0.173
0.038
0.020
-0.104
-0.010
0.026
0.029
0.072
0.081
0.107
-0.033
0.061
0.059
-0.023
-0.074
0.019
0.068
0.011
-0.014
0.063
-0.028
0.050
-0.025
0.034
0.006
0.120
0.151
-0.072
-0.016
-0.005
0.044
0.070
0.078
-0.005
-0.037
0.009
0.115
0.010
0.127
0.054
-0.075
0.007
0.023
-0.022
0.006
0.049
0.149
-0.032
0.008
0.007
0.005
0.015
0.043
0.056
-0.019
0.013
0.061
-0.024
-0.065
0.110
0.038
-0.035
-0.003
0.101
0.021
-0.013
0.038
-0.011
0.072
0.161
0.002
0.046
0.005
0.015
0.027
0.040
0.029
-0.017
0.064
0.057
0.008
0.051
-0.015
0.001
0.061
0.012
-0.016
0.033
0.029
-0.001
-0.062
0.078
0.114
-0.018
-0.052
0.091
0.083
0.036
-0.057
0.042
0.069
0.078
0.105
0.063
-0.028
0.006
0.014
0.056
0.021
0.015
0.062
-0.030
0.102
0.055
0.029
-0.000
0.040
0.014
-0.023
-0.067
0.037
0.029
0.000
-0.023
0.018
0.062
0.048
0.043
0.062
-0.047
0.017
0.070
0.084
0.028
0.011
0.045
0.049
0.027
0.043
-0.004
-0.018
0.031
0.054
0.027
-0.017
0.019
0.052
0.022
0.031
0.048
-0.043
0.026
0.035
-0.009
0.068
0.033
-0.054
0.005
0.082
0.093
0.067
0.013
-0.050
0.070
0.012
0.123
-0.069
-0.047
-0.124
0.031
0.094
0.118
0.086
-0.022
-0.001
0.080
0.053
0.044
-0.018
0.005
0.066
0.091
0.043
0.030
-0.054
-0.052
0.006
0.060
0.055
0.043
0.023
-0.001
-0.029
0.057
0.036
0.005
0.038
-0.005
-0.009
0.031
0.084
0.056
0.000
-0.086
0.081
0.037
0.030
0.067
0.117
0.051
0.055
0.048
0.046
-0.015
0.071
0.057
-0.039
0.064
0.016
0.048
0.001
0.060
-0.016
0.007
0.009
0.062
0.044
0.075
0.013
0.069
-0.003
-0.050
0.050
0.101
0.042
0.103
0.013
0.056
0.002
0.032
0.045
0.030
0.011
0.034
0.033
0.036
0.021
0.109
0.053
-0.001
0.053
0.055
0.017
0.055
0.061
0.012
-0.004
-0.035
0.044
0.034
-0.103
-0.101
0.019
0.086
0.076
0.094
0.093
-0.060
0.080
0.066
0.046
0.017
-0.023
0.068
0.074
-0.007
0.012
0.076
0.028
-0.038
0.121
0.077
0.090
-0.013
-0.000
0.053
0.060
0.089
0.040
-0.065
0.043
0.023
0.018
-0.028
0.007
0.039
0.085
0.073
0.025
-0.032
0.047
0.016
0.005
0.008
0.020
0.034
0.038
0.028
0.005
0.052
-0.021
0.047
0.031
-0.003
-0.008
0.096
0.046
-0.009
0.169
0.053
0.042
0.049
0.043
0.031
0.004
0.006
0.007
0.053
0.098
-0.059
0.039
0.049
0.091
0.058
0.063
0.012
0.018
-0.043
0.054
0.070
0.062
0.047
0.069
-0.007
-0.048
0.045
0.108
0.031
0.076
0.013
0.009
0.019
0.026
0.019
0.108
0.041
0.095
0.013
-0.004
0.094
0.032
0.051
0.014
0.048
-0.006
0.033
-0.067
-0.061
0.053
0.189
0.113
0.092
-0.008
-0.046
0.079
0.083
0.010
0.013
0.074
0.069
0.045
0.038
0.028
-0.060
-0.007
0.068
0.047
0.074
0.053
0.091
-0.021
-0.013
0.071
0.061
0.053
0.024
0.059
0.004
0.035
-0.006
-0.018
0.030
0.087
-0.026
0.000
0.012
0.103
0.011
0.067
0.049
0.001
0.055
0.106
-0.039
0.004
0.119
0.017
0.004
0.055
0.014
0.084
0.018
0.046
-0.005
0.028
0.049
0.027
-0.001
-0.079
0.058
0.003
0.004
0.048
0.006
0.025
0.051
0.051
0.114
0.105
0.016
0.015
0.114
-0.039
0.071
-0.001
0.057
-0.038
-0.005
0.008
0.044
0.105
0.142
-0.035
-0.001
0.110
-0.027
-0.018
0.009
0.070
0.042
0.006
0.044
0.029
0.017
0.015
0.096
0.061
-0.007
0.026
0.047
0.085
0.115
-0.044
-0.001
0.120
-0.013
0.047
0.074
0.009
-0.035
0.000
0.032
-0.015
0.012
0.156
0.077
0.035
0.038
-0.011
0.004
-0.003
0.052
0.079
0.043
0.014
0.005
0.076
0.022
0.024
0.031
0.057
0.076
0.006
0.008
0.093
0.033
0.071
0.002
-0.022
0.069
-0.021
0.062
-0.014
0.061
0.064
0.012
0.018
0.049
0.082
0.061
0.003
0.035
0.002
0.027
0.028
0.034
0.032
0.023
0.092
0.092
-0.041
0.030
0.026
0.057
0.007
0.014
-0.009
-0.031
0.084
-0.015
0.119
0.060
0.023
0.059
0.036
-0.003
0.066
0.039
-0.063
0.040
-0.009
0.053
0.091
0.022
0.039
0.117
-0.043
-0.035
0.105
-0.009
0.029
0.088
0.093
0.019
0.000
0.037
-0.007
0.020
0.089
0.067
-0.017
0.013
0.037
0.018
-0.002
0.110
0.024
-0.019
-0.025
0.056
0.048
0.027
0.054
0.036
0.002
0.138
-0.014
0.009
-0.088
0.091
0.228
0.088
0.044
0.079
-0.009
-0.025
0.053
0.087
0.010
0.014
0.052
0.076
-0.052
0.044
0.085
0.033
0.051
-0.013
-0.073
-0.007
0.074
0.034
-0.024
0.045
0.047
0.054
0.057
-0.015
0.050
0.002
0.009
-0.009
0.071
0.034
0.067
-0.001
0.102
0.080
0.009
0.009
0.086
0.020
0.052
-0.073
0.058
0.053
0.082
0.089
-0.048
0.071
0.005
0.011
0.040
0.031
-0.027
0.005
0.054
0.124
0.037
0.045
-0.022
-0.003
0.093
0.096
0.026
0.036
-0.005
0.027
0.007
0.044
0.025
0.054
0.096
0.025
-0.032
0.034
0.122
-0.049
-0.024
0.141
0.043
0.052
0.068
0.014
0.036
-0.064
-0.029
0.030
0.050
0.053
0.065
0.016
-0.024
0.010
0.058
-0.048
0.110
0.033
0.087
-0.006
-0.043
0.048
0.051
0.043
0.049
0.053
0.055
0.032
-0.016
0.043
-0.016
0.004
0.140
0.004
0.013
0.027
0.031
0.022
-0.021
0.027
0.038
0.048
0.083
-0.068
0.029
0.036
0.099
0.064
-0.033
-0.033
0.029
0.037
0.097
0.020
-0.030
0.095
0.030
0.031
-0.020
0.020
0.021
0.029
0.045
0.010
0.003
0.055
0.132
0.018
-0.001
-0.032
0.006
-0.022
0.010
0.101
0.004
-0.031
0.064
0.008
0.046
0.057
0.081
-0.035
0.005
0.048
0.079
-0.076
0.008
0.070
0.033
0.008
0.086
0.145
-0.043
-0.006
-0.006
0.156
-0.032
0.021
-0.013
0.072
0.143
-0.050
0.040
0.019
0.026
0.020
-0.006
0.059
0.069
0.103
0.093
0.078
0.037
0.064
0.037
-0.022
-0.025
-0.010
-0.031
0.040
0.100
0.174
0.077
-0.028
-0.033
-0.161
0.107
0.049
0.095
-0.026
0.043
0.051
0.037
-0.016
0.023
-0.001
-0.008
0.003
0.061
0.093
-0.011
-0.039
0.097
-0.022
0.061
0.012
-0.004
0.078
0.065
0.062
0.023
0.009
0.005
0.079
-0.017
0.020
0.042
0.042
0.071
0.015
0.053
0.006
-0.029
0.054
0.103
0.026
-0.091
-0.022
0.017
-0.022
0.023
0.099
0.025
0.068
0.006
-0.031
0.031
0.057
0.043
0.032
0.038
-0.001
-0.005
0.039
-0.007
-0.006
0.099
-0.022
0.050
0.066
-0.004
-0.028
0.027
0.052
0.034
-0.008
0.041
0.003
0.037
0.009
0.018
0.026
0.041
-0.056
0.006
0.111
-0.008
0.081
-0.003
0.149
0.061
0.026
-0.014
-0.000
-0.020
0.056
0.062
0.042
0.120
-0.012
-0.004
0.047
0.115
0.050
0.004
0.040
0.036
0.011
0.061
-0.029
0.051
0.059
0.038
-0.002
0.047
0.024
0.018
0.019
0.066
-0.057
0.007
0.054
0.095
0.019
0.012
0.049
-0.006
-0.063
-0.108
-0.029
0.110
0.133
0.171
0.002
-0.006
-0.045
-0.039
0.004
0.071
0.071
0.071
0.077
0.077
0.057
0.031
0.014
-0.013
0.022
0.001
-0.016
0.039
0.031
0.103
0.072
-0.061
0.049
0.040
0.045
-0.003
0.033
-0.020
-0.041
0.008
-0.017
0.024
0.015
0.027
0.011
0.081
0.011
0.095
-0.024
0.059
0.064
0.017
0.024
0.019
-0.024
0.077
0.020
0.047
0.007
0.079
0.113
0.018
-0.002
-0.026
0.054
0.041
0.052
0.021
-0.029
0.021
-0.028
-0.010
0.075
0.042
0.035
0.047
0.021
0.030
0.010
0.020
0.086
0.022
0.046
0.107
0.037
-0.021
0.056
0.009
-0.015
0.051
0.089
0.032
0.082
-0.016
-0.019
0.043
0.067
-0.011
0.021
-0.039
0.061
0.085
0.037
-0.024
-0.076
0.056
0.085
0.045
0.091
0.113
-0.005
-0.014
0.092
0.104
-0.049
0.054
0.003
0.057
-0.019
0.141
-0.002
0.021
0.068
-0.021
0.073
-0.033
-0.034
0.013
0.050
0.000
0.116
0.030
0.005
0.022
0.060
0.077
0.007
0.059
0.016
0.012
0.038
0.083
0.079
0.021
-0.041
0.040
0.085
-0.002
-0.012
0.009
0.132
-0.028
0.032
-0.055
0.097
0.031
0.038
0.051
0.007
0.046
0.021
0.061
-0.001
0.060
0.037
-0.013
-0.032
-0.012
-0.016
0.013
0.047
0.044
0.111
0.026
0.043
0.064
0.054
0.026
0.051
0.086
0.011
0.001
0.115
-0.002
0.029
0.011
0.014
0.076
0.010
0.023
0.067
-0.020
0.098
0.095
0.070
0.034
-0.018
0.002
0.021
-0.025
0.117
-0.029
0.006
0.011
0.127
0.060
-0.051
0.034
0.024
0.017
0.093
-0.009
0.025
0.043
-0.035
0.006
0.029
0.029
0.058
0.068
-0.075
0.013
0.052
0.082
0.066
0.098
-0.025
0.039
0.016
0.072
0.003
-0.022
-0.088
0.050
0.242
0.145
0.051
0.018
0.080
-0.036
0.002
0.024
0.020
0.029
0.034
0.099
0.051
0.009
0.038
0.024
-0.032
0.021
0.033
-0.024
-0.006
0.039
0.072
0.006
0.054
0.017
-0.025
-0.033
0.005
0.084
0.064
0.015
0.063
0.050
0.105
0.076
0.039
0.007
0.027
0.048
0.043
0.064
-0.018
-0.057
0.082
0.016
-0.045
-0.000
-0.025
0.053
0.058
0.086
0.062
0.101
0.014
0.018
0.003
-0.048
0.037
0.043
0.047
0.016
0.038
0.001
0.025
0.036
0.027
-0.090
0.039
0.082
0.081
-0.041
0.079
0.079
-0.025
-0.064
0.044
-0.015
-0.001
0.008
0.012
0.051
0.101
0.057
0.057
0.029
0.018
-0.019
0.032
0.089
-0.017
0.088
0.027
0.037
-0.104
-0.015
0.087
0.044
0.039
0.077
0.117
0.021
-0.003
-0.009
0.026
0.000
0.099
-0.057
0.008
0.037
0.023
0.062
0.055
-0.063
0.041
-0.044
0.037
0.054
0.074
-0.039
0.002
0.010
0.054
0.024
0.083
0.020
-0.039
-0.041
0.061
0.028
0.057
0.047
0.074
-0.049
0.027
0.025
0.027
0.057
0.011
0.062
0.077
0.008
0.031
-0.035
-0.000
0.030
0.013
0.095
0.072
0.073
0.001
0.019
0.041
0.003
0.159
-0.037
-0.061
0.002
0.065
0.058
-0.000
0.027
0.081
-0.052
0.080
0.079
0.085
0.089
-0.024
-0.038
-0.000
0.079
0.031
0.046
0.068
-0.006
-0.028
0.060
-0.046
0.039
0.096
0.009
-0.005
-0.014
0.008
0.037
-0.025
-0.066
-0.029
0.111
0.146
0.138
0.022
-0.033
0.029
0.003
0.002
0.120
0.058
0.142
0.066
0.017
0.080
0.010
-0.023
0.065
0.075
0.008
-0.038
0.061
0.026
0.011
0.008
0.031
0.024
0.034
0.003
-0.002
0.092
0.110
0.117
0.029
-0.021
-0.040
0.003
0.017
0.011
0.048
0.044
0.050
0.101
-0.005
0.011
0.002
0.017
0.163
-0.044
0.028
0.059
0.028
0.076
-0.072
0.045
0.083
0.059
-0.010
0.095
0.140
0.031
0.005
0.007
0.047
0.054
0.093
0.040
0.008
0.063
-0.008
0.011
0.017
0.042
-0.024
0.038
0.014
0.013
0.022
0.019
0.031
0.036
0.031
-0.008
-0.004
0.066
-0.034
0.028
0.056
0.023
0.065
0.048
0.081
0.087
0.042
0.002
0.061
0.034
0.058
0.046
-0.019
0.053
0.041
0.033
0.057
0.041
-0.059
0.120
-0.016
0.095
0.084
0.008
0.025
-0.008
0.036
-0.004
0.032
0.003
0.034
-0.023
0.057
0.070
-0.032
0.014
0.061
-0.020
0.048
0.047
-0.022
0.050
0.027
0.023
-0.043
-0.001
0.109
0.065
0.070
-0.018
0.074
0.056
0.040
0.012
0.059
0.046
0.010
-0.075
0.010
0.015
0.079
0.001
0.033
0.005
0.040
0.007
0.106
0.010
0.036
-0.016
0.066
0.035
-0.002
-0.009
0.034
0.118
0.059
-0.015
0.086
-0.071
0.026
0.121
0.024
0.074
0.036
0.033
-0.020
-0.012
0.031
0.007
0.043
0.047
0.038
0.025
-0.011
0.003
0.049
0.016
0.056
0.006
0.063
0.073
0.006
0.023
-0.014
-0.080
0.081
0.206
0.173
0.050
-0.037
-0.041
-0.044
-0.025
0.082
0.002
0.128
0.081
0.012
0.021
0.031
0.023
0.003
-0.024
0.008
0.098
0.022
-0.052
-0.025
0.092
-0.001
0.040
0.061
0.065
-0.006
0.040
0.096
0.006
-0.071
0.029
0.005
0.013
0.099
0.092
-0.005
0.034
0.049
0.047
0.008
0.100
-0.014
-0.009
0.006
0.003
0.082
0.005
-0.027
0.065
0.054
-0.034
0.022
0.050
0.170
0.026
0.000
-0.012
0.084
-0.016
-0.048
0.067
-0.002
0.013
0.133
-0.039
0.023
0.050
0.011
0.030
0.027
0.045
-0.056
0.115
0.053
0.081
-0.051
0.012
-0.051
0.004
0.013
0.059
0.066
0.043
0.046
0.017
0.046
0.112
-0.050
0.004
0.039
0.013
-0.040
0.012
0.063
0.038
-0.009
0.095
-0.003
0.009
-0.013
0.114
0.094
0.051
0.021
0.050
-0.039
0.050
0.037
0.024
-0.004
0.024
0.035
-0.020
0.061
0.040
0.099
0.105
0.026
-0.053
-0.014
-0.024
0.107
0.036
0.023
0.047
0.023
0.005
-0.020
0.005
0.031
0.001
0.035
0.036
0.183
0.015
-0.080
0.002
-0.031
0.043
-0.001
0.027
0.009
0.028
-0.010
0.118
0.037
0.024
0.012
0.054
0.020
-0.011
0.098
0.040
-0.014
0.038
0.023
-0.032
0.028
0.078
0.030
0.009
0.055
0.051
-0.028
0.038
0.020
0.046
-0.028
0.031
0.014
0.112
-0.009
-0.021
-0.024
0.084
0.037
0.008
0.071
0.059
0.063
-0.042
0.000
0.023
0.084
0.074
-0.042
0.006
0.040
0.020
0.057
-0.014
0.084
0.071
-0.019
0.013
0.077
-0.039
-0.085
0.064
0.009
0.060
0.077
0.087
0.019
-0.022
-0.052
0.028
0.023
-0.003
0.024
0.042
0.055
0.033
0.070
0.073
0.044
-0.002
0.074
-0.054
0.054
0.076
-0.061
0.109
0.049
0.048
0.055
0.025
0.028
0.048
0.026
0.032
-0.023
0.056
0.062
0.037
-0.010
0.031
-0.048
0.067
0.043
0.003
0.075
-0.037
0.044
0.014
0.024
0.114
-0.025
0.065
0.055
-0.036
0.079
-0.055
0.026
-0.021
0.049
0.046
-0.020
0.116
-0.012
0.064
0.062
0.028
0.052
-0.009
0.024
0.007
-0.027
0.085
-0.006
0.049
0.038
0.070
0.065
0.063
0.024
0.031
0.078
-0.026
0.113
-0.017
0.045
0.026
-0.032
0.044
0.016
0.050
-0.051
0.044
0.130
0.018
0.069
0.012
-0.069
0.026
0.005
0.082
0.003
0.055
0.039
-0.005
-0.007
0.121
0.018
0.007
-0.033
0.027
0.054
-0.086
-0.009
0.128
0.068
0.120
0.027
-0.075
-0.124
0.068
0.229
0.135
0.094
-0.030
-0.055
0.058
-0.030
0.109
0.028
0.041
0.075
-0.027
0.071
0.000
-0.017
0.080
0.012
0.068
0.038
0.016
-0.031
0.112
0.032
0.013
-0.023
-0.043
0.035
-0.009
0.111
-0.006
-0.002
-0.033
0.037
0.079
-0.022
-0.027
0.084
0.035
0.117
0.050
0.048
0.047
0.051
-0.001
0.041
0.007
-0.010
-0.008
0.044
0.083
0.014
0.089
0.011
-0.036
0.011
0.081
0.054
0.014
0.042
0.037
-0.043
0.012
0.043
0.061
-0.006
0.074
0.009
0.024
-0.011
0.048
0.032
0.048
0.046
0.035
0.087
0.041
-0.011
0.090
0.002
-0.014
0.009
0.037
-0.023
0.053
0.076
-0.001
-0.009
0.099
0.040
0.039
-0.019
0.065
0.012
-0.033
0.035
0.049
0.007
0.011
-0.044
0.023
0.044
0.076
0.085
0.043
0.058
0.043
-0.045
0.058
0.003
-0.006
0.025
0.034
0.032
0.075
0.019
0.069
-0.008
0.097
-0.006
0.048
-0.011
0.062
-0.079
0.035
0.146
0.051
-0.022
0.059
-0.002
0.007
0.062
0.097
0.039
0.027
-0.036
0.032
0.087
-0.002
-0.042
0.079
-0.028
0.002
0.034
0.040
0.023
0.026
0.074
0.017
0.003
0.007
0.011
0.030
0.021
0.005
0.017
-0.026
0.061
0.076
0.049
0.075
-0.010
0.087
-0.032
0.063
-0.016
-0.027
0.075
0.090
-0.021
0.019
-0.018
0.060
0.040
0.033
0.047
-0.002
0.090
0.002
0.066
0.068
0.012
0.072
-0.008
-0.023
-0.001
-0.020
-0.018
0.036
0.059
0.012
-0.029
0.037
0.009
0.049
0.087
0.022
-0.008
0.001
0.012
0.045
0.052
0.029
-0.008
0.067
0.101
-0.006
-0.063
0.097
-0.004
0.015
0.051
0.054
-0.023
0.059
-0.002
0.075
-0.036
0.114
0.089
0.074
-0.028
0.042
0.066
-0.017
0.069
-0.001
-0.037
0.019
0.011
0.013
0.001
0.022
0.099
0.001
0.005
0.047
0.058
-0.034
0.004
0.092
0.080
-0.033
-0.074
0.074
-0.022
0.041
-0.097
0.076
0.109
0.153
0.123
0.061
-0.044
0.064
0.073
0.034
0.076
0.083
0.047
-0.035
-0.004
-0.002
0.048
0.006
-0.011
-0.006
0.021
0.021
0.013
0.041
-0.070
0.074
0.025
0.149
0.065
0.035
0.019
-0.007
0.015
-0.035
0.073
0.036
0.050
-0.018
0.079
0.059
0.046
0.008
0.107
-0.044
0.006
0.051
0.011
0.071
-0.041
0.013
0.080
-0.016
0.060
0.050
-0.018
-0.005
0.051
0.030
0.071
0.016
0.003
0.054
0.010
0.002
0.004
0.007
0.051
0.006
-0.021
0.031
0.076
-0.013
0.037
0.073
0.023
0.030
0.034
0.013
-0.017
-0.050
0.053
-0.021
0.035
0.041
0.076
0.047
0.004
0.024
0.035
-0.038
-0.026
-0.029
0.057
0.114
0.016
0.015
0.028
0.018
-0.029
-0.055
0.027
0.028
0.067
-0.017
-0.006
0.097
0.042
0.001
0.010
-0.027
0.084
0.052
0.001
0.070
-0.024
0.069
0.089
0.003
-0.022
0.041
0.022
0.003
-0.044
0.045
0.069
0.023
0.022
0.044
0.060
0.025
0.019
0.026
-0.075
0.034
0.086
0.058
0.044
0.009
0.015
0.034
0.055
0.014
0.076
0.013
-0.009
0.037
0.045
0.083
0.021
0.053
-0.024
0.036
0.023
0.020
0.006
-0.015
0.109
0.068
-0.005
0.082
0.114
-0.049
0.109
0.011
-0.035
0.066
0.042
0.025
-0.029
0.017
0.050
0.059
0.008
0.087
0.056
0.066
-0.011
0.055
-0.050
0.030
0.032
0.002
0.066
0.028
0.051
0.109
0.032
-0.019
0.049
0.038
0.040
0.021
-0.034
0.040
0.053
0.063
-0.016
-0.003
0.027
0.099
0.003
0.006
0.067
0.059
0.029
0.057
-0.027
-0.018
0.102
0.033
-0.001
0.033
-0.034
0.046
0.032
0.004
0.027
0.046
-0.036
0.092
0.024
0.057
-0.049
0.012
-0.080
0.035
0.016
0.066
0.084
-0.020
0.048
0.162
0.043
-0.002
0.002
-0.039
-0.017
-0.014
0.088
0.089
0.045
0.007
-0.053
0.059
-0.040
-0.012
0.075
0.028
-0.009
0.012
0.067
0.130
-0.027
-0.019
0.096
0.029
-0.025
-0.002
0.010
0.055
0.026
0.091
0.019
0.031
0.113
0.076
0.041
-0.018
0.068
-0.003
0.006
-0.002
-0.009
0.017
0.105
0.019
0.032
0.035
0.076
0.075
-0.006
0.005
-0.001
0.012
0.013
0.078
0.013
-0.076
0.004
0.047
0.048
0.046
0.088
0.111
-0.002
0.042
0.055
-0.049
0.045
0.070
0.060
0.024
0.031
0.019
0.025
0.039
0.031
0.036
0.105
0.010
0.039
-0.009
-0.083
0.003
0.084
0.055
-0.001
-0.004
0.050
0.004
0.048
0.049
0.093
0.009
0.029
0.102
-0.056
-0.027
0.088
0.026
-0.022
-0.041
0.036
0.001
0.057
0.043
0.078
0.035
-0.023
0.004
0.057
0.092
-0.049
0.040
0.035
-0.013
-0.004
0.038
-0.003
-0.016
0.005
-0.001
0.147
0.034
0.001
0.065
-0.028
-0.002
0.003
0.105
0.034
0.077
-0.017
-0.018
-0.007
0.045
0.054
0.001
-0.013
0.081
-0.015
0.012
-0.001
0.062
0.109
-0.026
0.042
0.021
0.005
0.048
0.039
0.060
0.033
0.014
0.034
0.010
0.157
0.102
-0.024
0.054
0.008
-0.026
0.012
-0.045
0.071
0.035
0.002
0.045
0.019
0.110
-0.028
0.030
0.060
0.035
0.054
-0.005
0.023
-0.020
0.042
0.086
0.080
0.067
0.045
0.016
0.063
0.006
0.057
-0.005
-0.036
-0.073
0.034
-0.013
0.054
-0.023
0.054
0.038
0.122
0.106
0.024
0.060
0.011
-0.039
0.030
-0.003
0.063
0.026
0.055
0.067
0.014
-0.073
-0.037
0.114
0.019
0.021
0.017
0.083
0.021
-0.010
0.082
0.035
-0.128
0.071
0.128
-0.049
0.003
0.015
-0.010
0.020
0.068
0.078
-0.009
-0.004
-0.022
0.077
0.011
0.036
0.002
-0.018
0.060
0.044
0.087
0.035
-0.045
0.009
-0.001
0.015
0.095
0.047
-0.019
0.070
0.055
0.142
-0.052
0.033
-0.042
0.026
-0.026
0.060
0.038
-0.013
0.022
0.057
-0.007
0.040
0.001
0.002
0.029
0.044
0.025
0.005
-0.019
0.068
0.040
0.097
0.061
0.036
0.007
0.023
0.013
0.082
-0.028
0.036
0.050
0.050
0.023
0.048
0.035
0.013
-0.034
0.096
0.028
0.016
-0.004
0.042
-0.014
0.024
0.020
0.080
0.076
0.013
0.108
-0.027
0.108
-0.011
-0.038
-0.049
-0.009
0.080
0.065
-0.018
0.009
-0.011
0.100
-0.013
-0.024
0.004
0.012
0.024
0.083
0.041
0.010
0.005
0.107
0.057
0.023
-0.039
0.059
0.088
0.067
0.032
0.004
0.087
-0.042
-0.038
-0.003
0.006
0.060
-0.004
-0.024
0.024
0.091
0.077
0.000
0.072
-0.024
0.068
0.065
0.024
-0.016
-0.043
0.026
0.048
0.029
0.154
-0.008
-0.003
0.049
0.039
0.048
0.000
-0.062
0.029
0.093
0.066
0.049
-0.116
-0.136
0.128
0.208
0.098
0.016
-0.021
-0.002
0.032
-0.059
0.021
0.030
0.065
0.061
0.059
0.094
-0.022
-0.017
-0.021
0.019
0.023
0.020
-0.013
0.094
0.073
0.056
-0.002
0.050
-0.023
-0.058
0.023
0.079
0.126
-0.003
-0.051
0.093
0.068
0.000
0.019
0.062
-0.007
0.090
0.032
0.016
-0.031
0.043
0.079
0.011
0.023
0.053
0.030
0.018
0.038
-0.033
0.029
0.044
0.034
0.088
0.010
0.034
0.009
0.059
0.008
0.047
0.033
0.041
0.080
-0.010
-0.052
0.061
0.072
0.019
0.018
-0.050
0.021
0.037
0.039
0.122
0.066
-0.015
0.079
0.023
0.111
-0.084
-0.019
0.036
0.107
0.039
-0.016
0.014
0.064
0.018
0.145
0.053
-0.053
-0.029
0.039
0.066
0.109
0.028
0.027
-0.059
0.010
0.027
0.032
0.015
0.043
0.051
0.092
0.019
0.118
0.059
0.104
-0.007
0.050
0.019
-0.029
0.021
0.046
-0.011
-0.055
0.139
-0.000
0.028
0.083
0.105
0.056
0.007
-0.013
-0.020
-0.041
0.103
0.095
-0.037
0.071
0.030
-0.013
-0.015
0.117
-0.009
0.020
0.017
0.018
0.068
0.042
0.028
-0.041
0.086
0.038
-0.000
0.075
-0.009
0.002
0.022
0.109
0.019
-0.052
0.021
0.119
-0.012
-0.005
0.072
0.046
0.041
0.040
0.023
-0.069
0.056
0.019
0.018
-0.001
0.081
0.058
0.016
0.011
-0.015
0.077
-0.030
0.092
-0.014
0.048
0.035
0.018
0.051
0.070
-0.055
0.044
0.112
-0.031
0.029
-0.039
0.031
0.065
0.061
0.022
-0.023
0.045
0.033
0.063
0.032
-0.052
0.016
0.060
0.014
0.124
0.051
-0.072
-0.036
0.058
0.041
0.013
-0.003
0.108
-0.001
0.101
0.061
0.063
-0.028
-0.027
-0.020
-0.005
0.030
0.008
0.031
0.148
0.052
0.027
-0.008
0.030
-0.009
0.090
0.038
0.078
-0.005
-0.043
0.002
0.060
0.069
0.010
0.068
-0.017
0.050
0.008
0.043
0.067
0.083
-0.095
0.038
0.008
0.050
0.082
0.018
0.120
-0.037
0.052
0.046
-0.000
0.090
0.014
0.047
0.005
0.042
0.080
0.007
0.023
0.014
0.035
0.063
0.013
0.075
0.071
-0.062
0.008
0.067
0.012
0.081
-0.045
0.085
-0.052
-0.020
0.063
0.085
-0.020
0.054
0.015
-0.053
0.008
0.034
0.004
0.070
0.061
0.078
0.036
0.010
0.052
0.012
0.073
-0.010
0.023
0.008
0.020
-0.011
0.050
0.007
0.057
-0.035
0.055
-0.017
0.044
0.122
0.064
0.034
0.025
0.030
0.057
0.011
0.046
0.018
-0.027
0.041
0.036
0.013
0.046
-0.011
0.040
0.035
0.023
-0.030
0.065
-0.024
-0.026
0.063
0.093
0.019
-0.013
-0.012
0.093
-0.007
0.048
0.042
0.005
0.085
0.003
0.009
-0.098
-0.035
0.121
0.047
0.033
0.049
-0.047
0.098
-0.005
0.119
0.035
-0.030
0.053
0.055
-0.037
0.093
-0.014
0.041
0.012
0.006
0.052
0.041
-0.006
-0.006
0.065
0.087
0.062
0.034
0.097
-0.011
-0.002
0.028
-0.048
0.066
-0.005
0.046
0.030
0.072
0.054
0.047
0.020
0.051
0.089
0.069
-0.058
0.046
0.049
0.002
0.025
0.017
0.006
0.104
0.031
-0.005
0.009
0.110
0.008
-0.002
0.078
0.070
-0.003
-0.063
0.003
0.012
0.057
0.066
0.055
-0.043
0.140
-0.038
0.062
0.134
-0.051
0.022
0.074
0.073
-0.047
0.054
0.096
0.015
0.023
0.041
0.006
0.069
-0.044
0.042
0.018
0.038
0.078
0.093
0.015
0.047
-0.006
0.092
0.038
0.012
0.071
-0.005
0.023
0.089
-0.053
-0.008
-0.027
0.103
0.114
0.009
0.058
0.063
0.011
0.035
-0.025
0.047
-0.021
-0.029
0.115
0.026
-0.066
0.097
0.079
0.065
-0.009
-0.022
0.012
0.034
0.041
0.033
0.018
0.093
0.002
0.010
-0.005
0.022
-0.019
0.045
0.037
-0.012
0.093
0.061
0.043
0.048
-0.016
-0.014
-0.035
0.040
0.143
0.073
-0.027
0.031
0.020
-0.007
-0.024
0.055
0.035
0.049
0.089
-0.011
-0.031
0.095
-0.012
-0.025
0.019
0.025
0.013
0.013
0.006
0.056
0.046
0.012
0.016
0.082
-0.055
0.049
0.067
-0.011
0.061
-0.011
0.040
0.070
0.033
0.040
0.001
0.037
0.076
0.051
0.000
-0.074
0.025
0.084
0.043
0.042
0.017
0.012
0.047
-0.001
0.162
-0.076
0.060
0.073
0.026
0.021
0.124
-0.028
0.074
0.011
0.011
-0.004
-0.013
-0.002
0.041
0.021
0.105
-0.014
0.038
-0.003
-0.001
0.008
-0.002
0.068
0.038
0.128
-0.001
-0.012
0.018
0.028
0.011
0.069
0.072
0.072
-0.022
0.011
0.127
0.024
-0.064
0.094
0.054
0.075
-0.020
0.093
0.002
-0.011
0.018
0.026
-0.009
0.056
0.008
0.006
0.026
0.026
0.082
-0.003
0.001
0.039
0.034
0.023
0.034
0.006
0.014
0.010
0.013
0.052
-0.018
0.027
0.033
0.061
-0.017
-0.056
0.033
-0.002
0.073
0.097
0.117
0.046
0.004
-0.064
-0.027
0.033
-0.035
0.053
0.062
0.019
0.048
-0.024
0.038
0.049
0.016
0.021
0.042
0.027
0.057
-0.073
0.034
0.052
0.091
-0.006
-0.005
0.011
0.024
0.066
0.092
0.034
-0.009
0.049
0.023
-0.058
0.002
0.113
0.048
0.009
-0.008
0.085
0.054
0.042
-0.001
0.025
0.016
0.049
-0.003
0.041
-0.019
0.038
-0.008
-0.002
0.061
0.042
-0.013
0.137
0.087
0.060
0.002
-0.062
0.023
0.022
0.027
0.101
-0.035
0.006
0.009
0.025
0.079
0.034
0.099
0.045
0.049
-0.009
0.016
0.037
0.038
-0.017
0.046
0.001
-0.006
0.051
0.031
0.036
0.038
0.043
0.010
-0.023
0.129
0.009
-0.027
0.009
0.011
0.163
0.028
-0.009
0.044
-0.013
-0.001
0.003
0.055
0.026
-0.008
-0.069
-0.057
0.096
0.178
0.110
0.026
-0.059
-0.011
0.095
0.057
0.033
0.029
0.021
0.107
0.069
0.022
-0.068
-0.012
-0.027
0.038
-0.013
-0.028
-0.013
0.018
0.058
0.066
0.122
-0.013
0.059
0.047
0.046
-0.080
-0.024
0.077
0.173
0.042
0.002
-0.049
-0.016
0.007
-0.014
0.054
0.081
0.013
0.048
0.017
0.028
-0.012
0.084
0.006
-0.030
0.038
0.017
0.042
0.090
0.050
0.001
0.118
-0.025
0.001
-0.023
0.048
-0.020
0.012
0.087
0.053
-0.046
0.036
0.030
0.124
0.083
-0.031
0.045
0.028
0.090
0.017
0.010
0.029
-0.029
-0.012
0.099
0.034
-0.003
0.014
0.068
-0.011
0.090
0.065
0.048
-0.064
-0.061
-0.003
0.013
0.127
-0.023
-0.009
0.014
0.043
0.039
0.057
-0.011
0.035
0.004
0.035
0.062
0.047
0.070
-0.016
0.032
0.055
-0.033
0.055
0.069
0.097
0.040
0.099
0.033
0.032
0.033
0.103
0.006
-0.051
0.002
-0.015
0.025
0.048
0.040
-0.013
-0.040
0.045
0.066
0.035
0.072
-0.020
0.046
0.011
0.037
0.001
0.050
0.054
0.014
-0.038
0.037
0.085
0.099
0.020
0.022
0.055
0.071
-0.001
0.039
-0.003
0.009
-0.021
-0.037
0.006
0.028
0.039
0.046
0.085
0.140
0.051
0.013
-0.010
0.023
0.051
0.044
0.007
0.007
0.022
-0.037
-0.009
0.034
0.064
0.102
-0.002
-0.025
0.066
0.040
0.052
0.013
-0.015
-0.031
0.017
0.008
0.060
0.119
0.091
-0.024
0.055
0.036
0.015
0.011
-0.010
0.019
0.047
-0.049
0.019
-0.006
0.056
0.051
0.062
0.004
0.038
0.028
0.038
-0.012
0.012
0.036
-0.042
0.000
0.079
0.076
0.055
-0.050
0.049
0.061
-0.001
0.001
0.029
0.020
0.087
0.071
0.051
-0.052
0.018
0.096
0.006
-0.050
-0.008
0.116
0.058
0.016
0.045
-0.016
-0.024
0.005
-0.027
0.051
-0.023
0.013
0.031
0.032
0.092
0.099
-0.027
-0.021
0.025
0.065
-0.011
0.032
0.009
0.052
0.024
0.126
-0.016
-0.042
0.003
0.069
0.074
0.050
0.014
0.043
-0.056
0.131
-0.018
0.072
0.051
-0.023
0.008
0.019
0.036
0.051
0.090
0.085
0.060
0.051
0.075
-0.026
-0.015
0.063
0.007
0.026
0.054
-0.036
-0.037
0.041
0.131
-0.004
0.045
-0.030
-0.038
0.065
0.034
0.030
-0.007
-0.009
0.068
0.036
0.043
-0.027
0.067
0.040
0.059
0.056
0.080
0.011
0.101
0.012
0.069
0.036
-0.001
-0.032
0.048
0.088
0.060
-0.032
0.007
0.052
0.109
0.012
0.049
0.032
0.069
-0.000
0.058
-0.019
-0.007
0.108
-0.006
0.054
0.014
0.040
0.005
-0.062
0.006
0.071
0.118
0.040
-0.079
0.098
0.042
0.021
0.010
0.027
0.014
-0.045
0.002
0.074
0.096
0.047
0.073
0.028
0.029
0.013
0.061
0.059
-0.035
0.097
0.043
0.003
0.011
0.012
0.055
0.036
0.035
0.144
-0.009
0.053
0.103
-0.025
-0.074
0.044
0.021
0.040
0.011
0.024
-0.030
0.029
0.115
0.029
0.058
0.026
0.020
0.065
0.047
-0.004
0.124
-0.031
0.071
0.021
0.071
-0.006
-0.021
0.072
0.079
0.007
0.011
0.029
0.132
-0.023
0.002
0.029
0.030
-0.008
0.117
0.078
0.039
0.037
0.075
-0.023
0.040
0.075
0.027
-0.062
0.084
0.005
0.027
0.006
0.076
0.006
0.053
0.094
0.071
0.014
-0.006
0.010
-0.043
0.068
0.064
0.067
-0.005
0.093
0.150
0.045
0.075
-0.018
0.079
-0.001
0.019
0.103
0.076
-0.124
-0.025
-0.024
0.079
-0.038
0.021
0.043
-0.031
0.080
0.032
0.120
-0.043
0.025
0.113
0.065
0.036
0.046
0.022
-0.024
0.011
0.087
0.041
0.011
-0.043
0.114
0.043
0.018
0.091
0.042
0.035
0.045
0.013
0.062
-0.069
0.041
0.028
0.071
0.041
0.034
0.108
-0.016
0.110
0.090
-0.016
0.015
0.035
-0.019
0.076
-0.081
0.002
-0.005
0.049
0.015
0.045
0.070
0.071
-0.037
0.046
0.049
0.068
0.022
-0.010
-0.019
-0.028
0.047
0.051
0.128
0.002
0.000
0.008
0.004
0.128
0.025
0.050
0.037
-0.011
0.082
0.017
0.057
0.034
0.034
0.034
-0.016
0.022
-0.016
-0.025
0.137
0.071
0.056
0.005
-0.012
0.028
0.118
-0.004
0.024
0.005
0.020
0.022
0.035
0.006
-0.013
0.055
0.071
-0.017
0.005
0.041
0.064
0.067
-0.044
-0.022
0.055
0.063
0.098
0.040
0.033
0.082
-0.023
0.018
0.037
0.004
0.016
0.083
0.029
-0.030
-0.052
0.078
-0.010
0.058
0.076
0.060
0.002
0.013
0.039
-0.044
0.004
0.066
0.083
0.017
-0.001
0.011
0.026
-0.009
0.047
0.067
0.056
0.022
0.038
0.036
0.137
0.004
0.046
0.006
-0.006
-0.001
0.009
0.038
0.028
0.014
0.103
0.020
-0.007
0.119
0.022
0.036
0.006
0.060
0.051
-0.032
0.037
0.052
0.050
0.056
-0.052
-0.032
0.031
0.090
0.008
0.040
0.075
0.031
0.009
0.082
0.001
-0.013
0.068
0.052
0.018
0.050
0.036
0.056
-0.014
0.114
0.018
0.004
0.031
0.041
-0.013
0.015
0.006
0.110
-0.024
0.030
0.018
0.053
0.044
0.015
-0.003
0.023
0.009
0.017
-0.029
0.067
0.048
0.035
0.053
0.100
0.035
0.094
-0.005
0.023
0.044
-0.038
0.077
0.066
0.102
0.008
0.002
0.062
-0.005
0.007
0.065
-0.047
0.025
-0.032
0.110
-0.047
-0.015
0.092
0.091
0.025
0.049
0.044
0.041
-0.035
-0.029
-0.007
-0.021
0.069
0.007
0.067
-0.048
-0.025
0.080
0.043
0.046
0.053
-0.048
0.037
0.061
0.012
-0.001
0.023
-0.029
0.091
0.016
0.069
0.059
0.041
0.026
-0.008
-0.003
0.079
0.130
0.012
0.116
0.031
-0.103
0.034
0.073
0.044
0.003
0.016
-0.063
0.088
0.126
-0.011
-0.037
-0.050
0.048
0.044
0.053
0.103
0.006
0.083
0.068
-0.021
0.023
0.010
0.035
0.042
0.069
0.032
0.043
-0.003
0.108
-0.029
-0.029
0.068
-0.020
0.015
0.037
0.005
0.039
0.089
0.125
-0.010
0.037
0.080
0.029
0.010
-0.003
-0.002
0.051
0.045
0.083
-0.001
0.012
0.089
0.038
0.009
-0.025
0.062
0.025
0.027
0.098
0.015
-0.080
0.047
0.066
0.045
0.069
0.119
-0.006
0.003
0.000
0.071
0.003
0.006
0.077
0.062
0.017
0.088
-0.020
-0.023
0.021
0.069
0.056
-0.016
0.041
0.056
-0.008
-0.008
0.057
0.051
0.012
-0.075
0.030
0.031
0.115
0.014
0.038
0.013
0.024
0.038
0.013
0.044
0.043
0.036
0.005
0.018
-0.025
0.048
0.078
0.066
0.059
-0.037
0.021
-0.018
0.026
0.068
0.051
0.018
0.040
0.079
0.014
-0.021
0.078
0.043
0.028
-0.018
0.073
0.113
0.013
0.028
0.042
-0.033
0.103
-0.036
0.032
-0.003
-0.078
0.092
0.043
0.063
0.018
-0.016
0.057
0.039
0.029
-0.055
0.009
0.089
0.007
0.004
0.064
-0.063
0.090
0.019
0.039
0.071
0.009
0.037
0.040
0.064
0.057
0.075
0.042
-0.042
-0.058
0.103
0.087
0.007
-0.046
0.076
0.097
0.039
-0.003
-0.031
0.007
0.035
-0.035
0.024
0.041
-0.031
0.053
0.023
-0.023
0.044
-0.022
0.031
0.017
0.062
0.033
0.053
0.020
0.013
0.113
0.012
0.012
0.042
-0.001
-0.032
0.008
0.080
0.023
0.025
-0.029
0.022
0.074
0.096
0.018
0.066
-0.076
-0.013
0.059
0.040
0.009
0.015
0.006
0.010
0.116
0.047
0.083
0.003
0.010
0.062
0.079
-0.092
-0.066
-0.017
0.007
0.090
0.057
0.015
0.018
0.003
0.038
0.022
0.068
0.042
0.010
0.167
0.102
-0.101
-0.022
0.035
0.058
-0.000
0.001
-0.008
0.064
0.062
-0.013
0.070
0.111
0.010
0.015
-0.016
0.062
0.031
0.018
0.021
-0.036
0.011
0.125
0.037
0.005
0.025
0.064
0.059
0.004
-0.062
-0.009
-0.008
0.068
0.062
0.041
0.002
0.092
0.037
-0.029
0.126
0.060
-0.014
0.012
0.056
0.034
0.046
-0.044
0.013
0.071
0.004
0.042
0.039
-0.001
-0.052
0.070
0.115
0.069
0.041
-0.016
0.059
0.079
0.016
0.007
0.033
-0.082
0.072
0.074
-0.009
-0.045
0.059
0.030
-0.013
0.036
0.096
0.046
0.020
0.028
0.049
0.106
-0.016
0.045
-0.049
0.029
0.009
0.111
-0.007
-0.002
0.008
0.174
0.040
-0.000
0.086
-0.018
0.062
0.025
0.039
0.013
0.029
0.009
0.048
0.080
0.118
-0.017
-0.021
-0.012
0.019
-0.059
0.034
0.080
-0.029
0.001
0.133
0.065
0.049
-0.048
-0.019
-0.020
0.050
0.109
-0.023
-0.011
0.122
0.003
-0.001
0.024
0.053
0.051
0.063
0.051
0.045
0.044
0.060
0.100
-0.019
-0.001
0.015
-0.001
0.015
0.078
0.002
0.072
0.058
0.163
-0.004
-0.034
-0.069
0.068
0.081
-0.040
-0.019
0.121
0.072
0.043
-0.039
-0.016
0.095
0.040
0.050
0.009
-0.030
0.108
0.036
0.019
0.049
-0.023
-0.036
0.074
0.086
0.018
0.043
-0.018
-0.027
0.041
0.079
0.018
0.004
0.085
0.078
-0.001
-0.018
0.051
0.035
0.000
0.084
0.030
-0.016
0.025
0.098
0.015
0.024
0.080
0.057
-0.064
0.001
-0.002
0.077
0.024
0.056
0.061
-0.019
0.072
0.038
0.034
0.046
0.050
0.021
0.001
0.029
0.068
-0.006
0.007
0.003
0.062
0.028
0.063
0.072
0.047
0.002
0.019
0.084
-0.069
0.046
0.072
0.029
0.003
0.033
0.046
0.020
0.061
0.049
0.072
-0.043
0.043
-0.014
0.085
-0.045
0.061
0.033
0.000
-0.015
-0.001
0.037
0.055
0.046
0.074
-0.016
0.094
0.065
0.015
-0.060
0.077
0.041
0.057
0.061
0.100
0.017
0.025
-0.002
0.039
0.059
0.093
0.062
-0.062
-0.029
0.036
0.029
0.039
-0.013
0.084
0.026
0.129
0.037
0.019
0.000
0.054
0.010
0.035
0.065
-0.037
0.009
0.003
0.032
-0.030
0.095
0.070
0.012
0.021
0.091
0.033
-0.007
0.020
0.025
-0.008
0.040
0.097
0.038
0.088
0.055
-0.023
0.057
0.004
0.055
-0.022
0.003
-0.007
-0.012
-0.033
0.059
0.022
0.039
-0.029
0.063
-0.005
0.074
0.033
0.061
-0.004
0.078
-0.010
0.074
-0.027
0.019
0.028
-0.002
0.047
-0.030
0.027
0.065
0.044
0.069
0.017
-0.042
0.080
0.005
0.014
-0.021
0.015
0.073
-0.079
-0.018
0.027
0.021
0.040
0.115
0.087
0.051
0.004
0.016
0.092
-0.051
0.034
-0.025
0.033
-0.007
0.035
0.075
0.028
-0.046
0.054
-0.004
0.020
0.049
0.017
-0.008
0.068
0.014
0.047
-0.042
-0.016
0.009
0.089
0.060
0.064
-0.008
-0.047
0.070
0.125
0.004
-0.020
0.025
0.004
0.041
0.033
0.063
0.055
-0.018
0.116
0.044
-0.002
0.000
-0.041
0.034
0.075
0.002
-0.014
0.037
0.001
0.045
0.064
0.042
0.042
0.058
-0.043
0.092
0.012
0.022
0.073
-0.041
0.040
0.039
-0.009
0.080
0.012
0.076
0.084
0.030
-0.009
0.012
0.030
0.091
-0.001
0.112
0.016
-0.035
0.001
-0.028
0.046
0.061
0.022
0.047
0.046
0.021
-0.028
-0.005
0.019
0.085
0.020
0.111
0.043
0.067
0.047
-0.028
0.067
0.029
-0.005
0.060
-0.000
-0.001
0.016
-0.031
0.047
-0.014
0.092
0.080
0.023
0.012
0.021
0.059
0.098
-0.002
0.031
0.024
-0.011
0.024
-0.024
0.051
-0.003
0.077
0.107
-0.045
0.051
0.070
0.029
0.039
0.030
0.031
-0.002
-0.038
0.070
0.030
0.009
-0.017
0.049
0.020
0.077
-0.006
0.078
0.050
0.054
0.046
0.025
-0.004
-0.012
0.023
0.080
0.097
0.058
0.006
-0.007
0.156
-0.020
-0.014
0.046
-0.015
-0.016
-0.061
0.085
0.009
0.002
0.138
0.065
0.129
-0.078
-0.002
0.120
0.017
-0.048
0.035
-0.011
0.009
0.012
0.037
0.013
0.042
0.063
0.083
0.050
-0.011
0.025
0.047
-0.025
0.043
0.084
0.015
0.003
0.102
0.061
-0.011
0.025
0.075
-0.041
-0.009
0.050
0.124
0.038
0.010
-0.037
0.054
0.047
0.034
0.069
-0.037
-0.074
0.036
-0.043
0.015
-0.025
0.113
0.129
0.053
0.084
0.005
-0.082
0.003
0.001
0.052
0.029
0.048
0.096
-0.033
0.026
0.058
0.090
-0.068
0.024
-0.027
0.031
0.071
0.020
0.077
-0.049
0.013
0.020
0.060
0.101
0.049
-0.019
0.095
0.059
0.052
-0.109
-0.004
0.047
0.132
0.009
0.010
0.043
-0.001
-0.007
0.059
0.005
-0.050
0.022
0.072
0.040
-0.011
-0.012
0.022
0.075
0.086
0.048
0.067
-0.070
0.054
0.058
-0.007
0.012
0.112
0.075
-0.010
0.064
0.036
0.038
-0.074
0.070
0.049
0.011
0.043
0.083
0.010
-0.022
0.014
0.060
-0.041
0.105
0.013
0.034
-0.034
-0.054
0.078
0.119
0.030
0.011
-0.008
0.130
0.022
-0.009
-0.072
0.046
0.071
0.007
-0.020
0.009
0.032
0.065
0.080
0.083
-0.037
-0.009
-0.031
0.047
0.048
0.026
-0.002
-0.003
0.044
0.020
0.048
0.016
0.049
0.048
0.031
-0.004
0.032
0.134
-0.023
0.028
0.006
0.033
0.025
-0.016
-0.052
0.075
0.073
0.079
0.050
-0.036
-0.073
0.003
0.030
-0.023
0.009
0.057
-0.000
-0.009
0.035
-0.036
0.124
0.034
0.038
0.076
0.050
0.014
0.011
0.030
0.039
0.016
0.014
-0.022
0.065
0.051
0.026
0.014
0.009
0.013
0.052
-0.010
0.091
0.053
-0.029
0.026
0.025
-0.044
-0.052
0.068
0.078
0.019
0.042
0.146
-0.009
-0.019
-0.007
0.110
0.039
0.076
0.039
-0.023
-0.063
0.018
0.131
0.022
0.056
0.047
0.054
-0.040
0.080
-0.003
-0.073
0.043
0.075
-0.003
0.083
0.017
0.037
0.060
0.037
-0.023
0.033
0.093
-0.024
-0.011
0.047
0.124
0.041
0.012
0.009
-0.004
0.046
0.081
-0.039
-0.013
0.093
0.013
-0.051
0.021
0.062
0.000
0.006
0.089
0.077
-0.031
-0.064
0.047
-0.029
0.087
0.045
0.033
0.072
0.070
0.038
0.052
0.054
-0.049
0.029
0.104
-0.029
0.058
0.004
-0.008
0.117
0.019
0.073
0.009
0.077
-0.054
0.031
0.096
-0.003
-0.003
0.067
-0.007
0.006
0.002
0.017
-0.020
0.055
0.075
0.040
0.035
-0.031
0.032
0.020
0.006
0.046
0.025
0.063
0.062
-0.059
0.120
0.080
0.017
0.023
0.039
0.076
-0.010
0.013
0.171
-0.011
-0.025
0.005
-0.028
0.036
0.095
0.021
0.051
0.002
0.151
0.078
-0.037
0.096
0.018
0.041
0.094
0.030
0.033
0.020
-0.002
-0.051
0.077
-0.030
0.072
0.048
0.041
0.013
0.010
-0.025
0.034
0.065
0.037
-0.096
0.035
-0.013
0.029
0.052
0.051
0.048
0.051
0.048
0.062
0.065
-0.103
-0.024
0.090
0.018
0.020
0.060
0.039
0.016
0.003
0.082
0.035
0.004
0.024
0.015
0.118
-0.068
0.023
0.041
0.028
-0.003
0.041
0.010
-0.090
-0.025
0.034
0.102
0.006
0.083
-0.016
-0.050
0.011
0.050
0.109
-0.040
0.019
-0.021
0.055
-0.008
-0.013
0.042
0.042
0.030
0.037
0.050
-0.033
0.007
0.008
0.117
0.035
-0.010
-0.043
-0.012
0.004
0.041
0.052
0.030
-0.008
0.098
0.003
-0.030
0.062
0.009
0.005
0.004
0.034
0.065
-0.009
0.013
0.027
0.011
-0.020
0.043
0.015
0.041
0.025
0.163
0.066
-0.035
-0.006
0.002
0.124
0.052
0.073
0.013
0.002
-0.010
0.014
0.031
0.030
0.039
0.075
0.077
-0.001
0.036
0.034
0.014
0.028
-0.006
0.014
0.038
0.043
0.019
0.001
0.066
-0.018
0.029
0.060
0.013
0.048
0.028
0.044
-0.011
-0.012
0.090
0.056
0.017
-0.022
0.024
-0.039
-0.010
-0.034
0.049
0.142
0.141
0.040
0.031
-0.026
-0.032
0.058
0.024
0.066
-0.045
0.021
0.020
0.004
0.059
0.102
0.046
0.036
0.036
0.033
-0.009
-0.033
0.067
0.025
0.016
0.085
-0.042
-0.002
-0.033
-0.061
0.077
0.083
-0.014
0.024
0.010
0.008
0.013
0.088
0.004
-0.021
-0.024
0.018
0.031
0.018
0.005
0.123
-0.052
-0.004
0.058
0.046
0.058
0.015
0.046
0.056
-0.034
0.072
-0.023
0.063
-0.013
0.080
0.011
0.043
0.022
-0.039
0.020
0.071
0.116
0.014
0.038
-0.084
0.035
0.105
0.046
-0.059
-0.008
0.012
0.081
0.045
0.078
0.068
0.001
0.056
0.058
0.042
-0.014
-0.019
0.080
0.030
0.023
0.081
-0.008
0.004
0.027
0.077
-0.016
0.044
0.013
0.004
-0.029
0.099
0.083
0.045
-0.040
0.041
0.017
0.061
0.010
0.043
0.019
0.091
0.088
0.138
0.031
0.025
0.013
-0.021
-0.024
-0.003
0.108
0.082
0.004
0.026
-0.015
0.024
0.018
0.020
0.051
0.119
-0.020
0.084
0.019
0.062
0.050
0.025
0.035
-0.019
0.071
-0.013
0.023
0.050
0.097
-0.023
-0.001
-0.012
0.066
0.005
0.055
0.026
0.069
0.044
-0.015
0.057
0.079
-0.031
-0.058
0.046
-0.024
0.064
0.004
0.053
0.037
0.044
0.106
0.011
-0.043
0.053
0.095
0.098
-0.103
0.035
0.009
0.001
0.131
0.055
-0.016
0.038
0.012
0.131
0.002
0.021
0.009
0.045
0.048
0.003
-0.006
0.026
0.112
0.114
0.093
0.024
0.002
0.012
-0.000
0.055
0.063
-0.027
0.007
0.005
0.006
0.045
0.059
0.017
0.055
0.020
0.009
0.081
-0.024
-0.023
0.001
0.046
0.179
0.025
0.048
0.025
0.003
0.058
-0.018
0.014
0.000
0.006
0.011
0.103
0.021
0.042
0.009
0.041
-0.042
0.056
0.168
0.028
-0.062
-0.015
0.106
0.048
0.074
0.078
0.030
-0.016
-0.057
0.117
0.027
-0.017
0.018
0.126
0.023
-0.022
-0.008
-0.033
0.073
0.035
0.053
-0.054
0.073
0.080
-0.018
0.013
0.072
0.027
-0.032
-0.011
0.030
-0.026
0.056
0.076
-0.003
-0.035
0.023
0.039
0.090
-0.009
-0.026
0.124
0.056
0.041
0.027
-0.011
0.041
0.036
0.071
0.049
0.049
-0.031
0.036
0.012
-0.005
0.050
0.118
-0.014
0.026
-0.064
-0.015
-0.019
-0.010
0.143
-0.051
0.052
-0.035
0.059
0.111
0.028
-0.018
0.046
-0.008
-0.030
0.077
0.052
0.016
0.027
0.084
0.084
-0.035
0.043
0.032
0.011
0.075
0.004
-0.070
0.014
0.069
0.095
0.040
0.011
-0.013
-0.049
0.006
0.134
0.065
0.008
0.031
0.101
-0.070
0.016
0.054
0.033
0.009
0.010
0.048
-0.048
0.058
0.050
0.051
0.027
0.026
-0.014
0.006
0.015
-0.028
0.097
0.072
-0.001
0.085
0.020
0.073
0.038
-0.021
0.048
0.021
0.046
-0.006
0.005
0.102
-0.011
0.112
0.015
0.038
0.087
-0.006
-0.041
0.050
0.056
0.024
0.017
0.051
-0.001
0.048
0.134
-0.072
-0.002
-0.021
0.099
0.029
0.019
0.025
-0.061
0.046
0.074
0.066
0.106
-0.009
0.012
-0.000
-0.003
0.025
0.039
-0.006
0.144
0.072
-0.006
0.077
0.067
0.073
-0.000
0.059
0.028
-0.011
0.018
-0.037
0.073
0.084
0.010
0.008
0.006
0.061
0.025
0.044
0.083
-0.034
0.087
0.139
-0.015
-0.039
0.076
0.013
-0.016
0.021
0.077
0.063
-0.014
0.065
0.084
-0.029
-0.031
0.006
0.074
0.075
0.034
0.053
0.024
0.051
0.048
-0.018
-0.012
0.001
0.054
0.077
0.075
-0.010
-0.048
0.032
0.045
0.061
0.007
0.016
-0.004
-0.002
-0.011
0.037
0.047
0.137
0.075
0.011
0.062
0.109
-0.018
0.022
0.015
0.073
0.040
-0.026
0.032
0.036
0.098
0.001
0.019
0.077
0.016
0.030
-0.031
0.011
0.004
0.020
0.063
-0.006
0.036
0.033
0.033
-0.017
0.105
0.006
0.034
0.065
0.081
0.020
0.030
0.026
0.042
-0.040
0.048
0.020
0.026
-0.013
0.007
0.019
0.023
0.041
-0.031
0.095
0.069
0.055
-0.032
0.002
0.005
0.014
0.053
0.001
0.036
0.027
0.056
0.004
0.076
0.080
0.035
-0.081
0.010
0.143
0.057
0.019
0.048
-0.048
0.019
0.006
0.027
-0.002
0.110
0.005
0.065
0.046
0.055
0.029
0.102
-0.010
0.051
-0.009
0.019
0.019
0.084
-0.016
-0.056
0.065
0.046
-0.004
0.036
0.016
0.052
0.079
0.017
0.048
-0.002
-0.033
0.046
0.044
0.008
0.066
-0.010
-0.002
0.046
-0.019
-0.004
0.020
0.054
0.035
0.066
0.051
-0.017
0.054
0.011
0.019
-0.006
0.009
0.026
0.008
0.018
0.067
0.106
0.074
0.062
-0.037
0.065
0.038
-0.019
0.067
0.013
0.038
0.044
0.032
-0.007
0.004
0.044
0.010
0.077
0.095
0.056
-0.008
-0.003
-0.003
0.057
0.018
0.021
0.006
-0.009
0.015
0.092
0.052
-0.063
0.043
0.146
0.041
-0.065
0.067
-0.034
-0.028
-0.018
0.043
0.034
0.028
0.027
0.048
0.051
0.047
0.071
0.005
0.009
-0.007
0.100
0.048
0.033
0.067
-0.031
-0.029
0.016
0.126
0.062
0.056
0.004
0.028
0.028
0.061
0.066
0.119
0.047
0.008
-0.008
0.047
0.005
0.028
0.024
0.025
0.033
0.021
0.038
0.083
-0.006
-0.041
0.063
-0.010
0.016
0.012
0.007
0.058
0.056
-0.006
0.036
0.079
0.049
0.026
0.034
0.091
0.126
-0.026
0.004
0.000
0.036
0.009
-0.003
0.028
-0.017
-0.001
0.005
-0.012
-0.026
0.068
0.094
0.072
0.076
0.045
0.059
0.009
0.057
0.022
0.017
-0.038
-0.028
0.003
0.012
0.035
0.016
0.057
0.029
0.092
-0.022
0.045
-0.004
0.038
0.116
0.015
-0.022
0.026
0.043
0.074
-0.037
0.037
0.043
0.005
0.007
0.030
0.109
-0.017
0.024
-0.050
0.044
0.032
0.202
-0.044
0.067
-0.019
0.020
0.004
-0.027
0.063
0.063
-0.001
-0.003
0.013
0.038
0.029
-0.005
0.086
0.050
-0.006
0.076
0.008
0.013
-0.034
0.032
-0.004
0.028
0.060
0.018
0.037
0.141
0.017
0.066
0.042
-0.049
0.006
0.027
0.091
-0.025
0.035
0.074
-0.003
0.017
0.136
-0.043
-0.009
-0.018
0.050
-0.051
0.043
0.043
-0.011
0.015
0.043
0.102
0.057
-0.005
-0.054
0.063
0.028
0.064
0.049
0.059
-0.007
0.020
0.083
0.007
-0.069
0.020
0.017
0.013
0.071
0.012
0.074
0.023
0.016
0.177
-0.027
-0.045
-0.049
0.093
0.017
0.066
0.023
-0.077
0.037
0.065
0.003
0.015
0.100
0.013
0.079
0.059
-0.023
-0.047
0.008
0.071
0.091
0.015
-0.012
0.034
0.017
0.070
0.015
-0.049
0.097
0.033
0.032
0.010
0.097
-0.017
0.010
-0.007
-0.027
0.014
0.018
0.127
0.052
0.049
-0.007
0.046
-0.006
-0.019
0.111
0.069
0.059
0.079
0.010
0.018
-0.010
0.067
-0.028
0.035
0.124
0.056
-0.006
0.099
-0.003
0.004
0.086
0.025
-0.096
-0.017
0.092
0.036
0.054
0.020
-0.030
-0.077
0.088
0.088
0.007
0.010
0.106
0.030
-0.018
-0.029
0.102
0.029
0.013
-0.029
0.018
0.026
0.008
0.147
-0.038
0.024
0.013
0.007
0.008
0.061
0.056
0.062
0.021
-0.032
0.052
0.071
0.066
0.056
0.007
0.022
-0.004
0.066
0.018
0.058
-0.079
0.088
0.019
0.054
0.003
0.022
0.054
0.096
0.050
0.011
0.041
-0.020
0.007
0.002
0.015
0.008
0.076
0.043
0.034
-0.014
0.200
0.012
0.009
0.079
0.008
-0.034
-0.020
0.048
0.024
0.022
0.031
0.033
0.062
0.013
0.062
0.002
0.045
0.075
0.081
0.049
-0.010
0.113
-0.002
0.024
0.029
0.014
0.002
-0.031
0.089
0.047
0.035
0.079
0.041
0.088
0.008
0.043
0.076
0.087
-0.043
0.079
-0.002
-0.030
0.019
0.083
0.022
-0.007
0.010
-0.032
0.046
0.052
0.056
-0.000
-0.052
-0.025
0.029
0.142
0.008
0.024
0.034
-0.018
0.059
0.159
0.250
-0.023
0.008
0.098
0.011
-0.010
0.011
0.081
-0.008
-0.051
0.109
0.012
-0.044
0.001
0.070
0.024
0.073
-0.010
-0.023
0.041
-0.014
0.061
0.031
0.072
-0.030
0.021
0.102
0.123
0.053
0.045
-0.014
0.005
0.017
0.090
0.022
-0.012
-0.002
0.002
0.038
0.048
0.024
0.029
0.071
0.071
0.038
-0.000
0.055
0.079
0.032
-0.002
-0.004
0.043
0.042
0.048
0.040
0.043
-0.011
0.031
0.043
0.116
0.027
-0.003
0.042
0.063
-0.015
0.023
0.029
-0.010
0.003
0.111
0.077
0.021
-0.015
-0.000
0.034
0.033
0.138
-0.030
-0.009
-0.038
0.027
0.119
0.084
0.067
-0.028
-0.008
0.024
0.007
-0.006
0.058
0.031
0.098
-0.067
0.066
0.004
0.097
0.085
0.012
0.011
-0.030
0.090
0.037
0.011
-0.005
0.005
0.070
0.024
0.078
0.038
0.065
0.017
-0.022
0.020
0.062
0.045
0.041
-0.052
0.021
0.029
-0.022
-0.045
0.070
0.068
0.147
0.089
0.033
-0.057
0.047
-0.017
-0.049
0.065
0.050
0.032
-0.042
0.070
0.070
-0.029
0.002
-0.024
0.052
0.025
0.068
0.032
0.019
0.087
0.050
0.028
0.037
0.036
0.041
-0.019
0.068
0.040
-0.000
-0.009
0.052
0.093
0.043
0.069
0.023
0.004
-0.020
-0.013
-0.029
0.037
0.077
0.007
-0.036
-0.089
0.100
0.032
0.068
0.052
0.018
0.016
-0.011
0.011
-0.012
0.040
0.009
0.047
0.067
0.038
0.057
0.006
0.062
0.000
0.025
0.010
0.050
0.031
0.102
-0.025
0.002
-0.055
0.040
0.026
0.026
0.029
0.115
-0.028
-0.019
0.004
-0.031
0.119
0.161
-0.017
-0.020
0.058
-0.047
0.004
0.016
0.013
-0.009
0.013
0.105
0.082
0.015
0.006
-0.031
-0.006
0.082
0.021
-0.040
0.090
0.075
0.019
-0.032
0.126
-0.036
0.016
0.072
0.012
-0.012
-0.002
0.046
0.048
-0.047
0.048
0.065
-0.010
-0.029
0.026
0.047
0.049
0.104
-0.001
0.007
0.063
0.030
-0.013
0.005
0.056
0.048
0.076
0.069
0.009
0.047
-0.038
0.065
0.028
0.034
0.040
0.053
0.038
0.035
-0.015
0.024
-0.032
0.036
0.055
0.047
-0.010
0.095
-0.063
0.015
0.067
0.037
0.002
0.075
-0.054
-0.024
0.028
0.074
0.060
-0.065
0.010
0.120
0.047
-0.055
0.045
0.017
0.059
0.057
0.017
0.051
0.016
0.044
-0.015
0.005
0.065
-0.038
0.059
0.056
0.020
0.002
0.067
0.077
0.082
-0.017
0.035
0.056
0.029
-0.015
-0.014
0.077
-0.002
0.034
-0.047
-0.016
-0.055
0.086
0.071
0.096
-0.024
0.052
0.022
0.026
0.071
-0.008
0.059
0.051
-0.044
0.009
0.035
-0.003
-0.009
0.076
0.044
-0.019
0.037
-0.021
-0.054
0.075
-0.006
0.039
-0.003
0.060
0.134
0.045
0.075
0.030
-0.049
0.012
0.079
0.032
-0.131
0.027
0.018
0.083
0.028
0.102
0.019
0.003
0.031
0.056
-0.014
0.007
0.045
0.062
0.014
0.086
-0.002
-0.003
-0.027
-0.001
0.090
0.013
0.077
-0.079
0.064
0.126
0.039
0.014
0.028
-0.067
-0.020
0.052
0.005
0.004
0.054
-0.013
0.032
0.008
0.078
0.066
0.016
0.030
-0.008
-0.026
-0.011
0.021
0.082
0.020
0.067
0.001
0.035
0.017
0.036
0.066
-0.001
0.068
0.055
0.046
0.042
0.030
0.027
0.033
-0.020
0.099
-0.008
0.050
0.069
-0.007
0.005
0.030
-0.021
0.145
-0.015
0.067
0.037
-0.016
0.004
0.011
0.047
-0.042
-0.001
-0.029
0.033
0.067
-0.059
0.046
0.070
0.020
0.011
0.047
0.032
0.075
0.055
0.013
0.066
0.115
0.021
0.020
0.011
0.030
0.049
0.061
0.001
0.044
-0.029
-0.013
-0.043
0.038
0.074
0.061
0.080
-0.004
0.077
-0.001
0.022
0.067
0.047
0.046
-0.006
0.041
0.031
-0.005
-0.024
0.090
0.022
0.061
0.002
0.204
0.022
0.011
0.013
-0.028
0.006
0.049
0.047
-0.013
0.008
-0.057
0.094
0.009
0.009
0.021
0.100
0.083
-0.032
0.011
0.006
0.047
0.020
0.105
0.073
0.026
-0.009
0.019
-0.027
-0.033
0.023
0.107
0.048
-0.009
0.059
0.009
-0.071
0.003
0.039
0.010
0.079
0.100
0.130
0.006
-0.028
0.058
0.003
-0.008
0.039
0.081
0.032
-0.036
0.005
0.033
0.059
0.044
0.038
-0.038
0.083
0.018
0.112
0.047
-0.016
-0.047
0.142
0.037
0.115
0.017
-0.010
-0.098
0.023
0.099
0.033
-0.103
0.016
0.102
0.081
-0.003
0.060
-0.061
0.059
0.123
-0.017
-0.013
-0.016
-0.002
0.079
0.014
-0.045
0.043
-0.014
0.041
0.062
0.130
0.007
0.005
-0.014
0.034
0.031
0.066
-0.005
0.099
0.031
-0.014
0.036
-0.008
0.033
0.078
0.033
-0.059
0.022
0.041
0.034
0.034
0.057
0.006
0.067
-0.006
-0.020
0.036
0.086
0.072
-0.004
0.086
0.013
0.034
-0.051
0.079
0.033
0.114
-0.116
-0.032
0.023
0.043
0.019
-0.011
-0.034
-0.031
0.011
0.166
0.038
-0.005
0.005
0.059
0.048
0.061
-0.010
-0.034
0.100
0.047
-0.014
0.067
0.029
-0.053
0.054
-0.011
0.078
0.022
0.035
0.033
0.099
0.028
0.008
0.007
0.004
0.007
0.039
0.023
0.015
-0.036
-0.015
0.067
0.079
0.005
0.021
0.028
0.039
0.065
0.031
0.035
0.083
0.036
0.044
0.083
0.050
-0.017
0.070
-0.007
0.045
0.048
0.116
-0.038
-0.012
0.075
0.092
0.025
-0.013
0.066
0.002
0.051
0.115
0.002
-0.034
-0.012
0.042
0.018
0.029
0.119
0.069
-0.021
0.063
0.040
-0.018
0.068
0.016
0.034
0.038
0.023
0.069
0.036
0.075
0.062
0.012
0.019
-0.029
-0.008
0.012
0.040
0.098
-0.036
-0.019
0.055
-0.007
0.052
0.024
0.090
0.009
0.040
0.025
0.071
0.120
0.020
0.041
0.067
-0.035
-0.012
0.038
0.028
0.059
0.072
-0.004
0.010
0.016
0.099
-0.019
0.026
-0.023
-0.011
0.048
0.047
0.002
0.067
0.077
0.022
-0.024
0.071
0.049
0.095
0.029
-0.021
0.003
0.014
0.037
-0.054
0.034
0.009
0.032
-0.085
0.064
0.024
0.056
0.028
0.060
-0.013
0.038
0.092
0.015
0.066
-0.023
0.028
0.063
0.021
0.074
-0.000
0.029
0.063
-0.005
-0.016
0.044
0.040
0.094
-0.036
-0.022
0.047
0.071
0.047
-0.054
-0.004
-0.070
0.042
0.097
0.056
0.056
0.038
0.004
0.109
0.026
-0.006
0.028
-0.033
0.016
0.024
0.033
0.017
0.003
-0.002
0.033
0.054
0.036
-0.018
-0.011
-0.005
0.075
0.075
-0.026
0.000
-0.013
-0.017
0.046
-0.015
0.038
0.031
0.001
0.076
0.008
0.005
0.043
0.079
0.060
0.020
-0.001
0.043
-0.023
-0.036
0.060
0.037
-0.027
0.037
0.027
0.082
0.030
-0.011
0.034
0.016
0.004
0.050
0.077
-0.010
-0.006
0.014
0.003
0.072
0.062
-0.072
-0.033
0.114
0.062
-0.045
-0.030
0.042
0.042
0.052
-0.012
0.005
0.058
-0.004
-0.021
0.023
0.021
0.061
0.081
-0.036
0.039
0.056
0.114
0.019
0.022
-0.006
0.102
0.088
-0.005
0.047
-0.021
0.026
0.076
0.024
-0.016
0.042
0.011
-0.023
-0.020
0.055
0.065
0.029
0.029
0.044
0.037
0.042
0.103
0.044
0.064
0.055
-0.006
0.051
-0.052
0.068
0.033
0.098
0.013
-0.003
0.000
-0.047
0.031
-0.026
0.001
0.038
-0.042
0.043
0.103
0.085
0.074
-0.017
0.058
-0.042
0.004
-0.010
0.003
0.075
0.140
0.006
0.043
0.008
-0.020
0.116
0.063
0.010
-0.030
0.035
0.202
0.060
-0.009
0.021
0.011
0.040
0.014
0.025
0.031
-0.046
0.001
0.031
-0.013
0.024
0.064
0.028
0.043
0.023
0.007
-0.021
0.011
0.011
0.035
0.004
0.097
0.018
0.027
0.037
0.098
-0.075
0.019
0.027
0.094
0.152
0.045
0.039
-0.026
0.003
0.040
-0.059
0.012
0.015
0.103
0.113
0.053
0.013
0.025
0.029
0.040
0.005
-0.001
0.072
-0.035
0.060
-0.008
0.016
-0.002
-0.025
0.092
0.062
0.101
0.054
-0.050
-0.000
0.065
0.032
-0.017
0.036
0.003
0.036
-0.026
0.084
0.055
-0.043
-0.009
0.053
0.120
0.065
-0.036
0.029
0.032
0.000
0.022
-0.005
0.042
0.110
0.057
0.003
0.013
0.059
0.053
0.019
0.011
0.043
-0.054
0.019
0.038
0.096
0.004
0.097
-0.017
0.016
-0.006
0.070
0.089
0.029
-0.044
0.034
-0.042
0.013
0.017
0.005
0.010
0.029
0.009
0.060
0.013
0.065
0.014
0.058
0.052
0.002
0.013
-0.089
0.025
0.070
0.098
0.109
-0.010
-0.060
-0.003
0.021
0.049
0.006
0.102
0.029
0.051
-0.052
0.005
-0.040
0.031
0.068
0.132
0.059
0.033
0.007
0.076
-0.063
0.080
0.142
0.066
-0.061
-0.043
0.074
0.070
0.007
-0.031
0.057
0.004
0.050
0.076
0.018
0.016
0.026
-0.018
0.088
0.003
0.078
0.042
0.096
0.069
0.098
-0.077
0.006
0.094
0.073
-0.031
0.073
0.006
-0.051
0.072
0.075
-0.042
-0.006
0.140
0.118
0.016
-0.004
0.008
0.055
-0.015
0.050
0.099
0.016
0.011
-0.045
0.058
0.093
0.040
0.038
0.001
0.067
0.086
0.002
0.015
-0.012
0.080
0.118
-0.050
0.022
0.089
0.049
0.018
0.023
0.037
0.027
0.053
0.094
0.013
-0.003
0.068
-0.001
-0.060
0.030
0.026
-0.008
0.050
0.036
-0.021
0.038
-0.057
0.155
0.034
0.026
-0.038
0.075
0.009
0.048
0.045
0.028
0.004
-0.005
-0.015
0.068
0.007
0.037
0.057
0.040
0.091
0.006
-0.034
0.011
-0.002
0.040
0.104
0.029
-0.049
0.009
0.024
0.074
0.096
0.031
-0.079
0.018
0.061
0.025
0.052
-0.070
0.088
0.022
0.048
0.024
0.058
0.032
0.082
-0.037
0.022
0.029
0.067
0.067
0.018
0.024
-0.026
-0.047
-0.008
0.120
0.022
0.103
0.104
-0.024
0.044
0.068
0.053
-0.005
0.032
0.067
0.008
0.069
0.038
-0.013
0.042
0.009
0.008
0.003
0.058
0.055
0.012
0.065
0.071
-0.000
0.034
0.048
0.020
0.021
0.029
0.109
0.008
0.104
0.036
-0.024
-0.014
0.061
0.051
0.052
0.083
0.018
-0.026
0.123
0.009
0.031
0.029
0.032
0.061
0.059
0.028
0.045
-0.027
-0.013
0.003
-0.012
0.060
0.031
0.042
0.030
-0.002
0.043
0.022
0.048
0.001
0.032
0.005
0.028
0.051
0.050
0.002
-0.012
0.080
0.038
-0.026
-0.022
0.119
-0.003
0.055
0.043
0.043
0.098
0.077
0.001
0.030
-0.013
0.062
0.021
0.026
0.042
-0.034
0.058
0.059
0.018
-0.018
0.077
0.004
0.044
0.020
-0.010
-0.018
-0.015
-0.015
0.071
0.112
0.034
0.019
0.035
0.016
0.085
0.007
0.002
0.037
0.067
0.085
0.002
0.070
0.024
-0.053
0.006
0.018
0.050
-0.008
0.022
0.072
-0.004
-0.006
0.044
0.010
0.080
0.005
0.024
0.094
-0.050
0.019
0.043
0.049
0.002
-0.040
0.059
0.033
0.045
0.154
0.053
0.011
0.082
0.039
-0.001
-0.030
0.083
0.000
0.001
0.052
0.036
0.035
0.079
0.163
0.034
-0.030
-0.021
0.070
0.012
-0.003
0.091
-0.024
0.023
0.027
0.063
-0.010
-0.072
-0.015
0.096
0.023
0.098
-0.037
0.084
0.030
-0.037
0.014
0.014
0.038
0.050
0.055
-0.004
0.024
0.106
0.086
0.006
0.003
0.150
0.044
0.050
0.104
-0.003
-0.065
0.017
0.069
0.048
0.017
-0.003
0.043
-0.020
0.028
0.077
0.048
0.038
-0.027
0.043
-0.007
0.038
0.074
0.021
0.057
0.012
0.094
0.046
0.015
0.061
0.051
0.002
-0.033
-0.009
0.080
0.083
0.020
0.019
0.086
-0.053
0.009
0.000
0.091
0.013
0.062
0.045
0.006
-0.027
-0.002
0.062
0.004
-0.006
0.107
0.049
0.013
0.061
0.038
-0.042
-0.056
0.115
0.013
0.022
0.064
0.018
-0.034
0.051
-0.032
0.075
0.018
0.018
0.078
-0.016
0.019
0.020
0.059
0.021
0.042
0.043
0.025
-0.007
0.072
0.089
-0.020
-0.064
-0.018
0.097
0.060
-0.060
0.046
0.050
0.002
0.031
0.125
-0.004
0.040
-0.003
0.045
0.012
0.053
0.070
-0.033
0.040
0.005
0.093
0.032
-0.051
0.092
0.084
0.052
0.002
-0.017
0.047
0.018
0.028
0.029
0.013
0.012
0.061
0.068
-0.036
0.053
0.098
0.038
-0.003
0.071
0.039
0.010
-0.032
0.036
0.010
-0.019
0.020
0.045
0.079
0.096
0.066
0.070
-0.040
0.041
0.063
0.071
-0.011
0.091
0.017
0.025
0.042
0.101
0.084
-0.006
0.008
0.015
0.010
0.093
0.044
0.016
0.026
0.017
0.095
-0.039
-0.012
0.079
0.034
0.019
-0.011
0.051
0.059
0.025
-0.012
0.118
0.066
0.032
0.016
0.061
0.025
-0.016
0.021
0.025
-0.020
0.047
0.073
0.026
0.026
0.046
0.073
-0.026
-0.033
-0.018
0.013
0.120
0.035
0.034
-0.036
0.017
0.035
-0.027
0.109
0.115
0.062
0.008
0.040
-0.044
0.052
-0.027
0.040
0.060
0.087
0.051
0.019
0.013
0.022
0.041
0.137
0.003
-0.010
-0.014
0.029
0.020
0.006
-0.009
0.006
0.103
0.054
0.016
-0.006
0.031
0.103
0.089
-0.050
-0.020
0.086
0.033
-0.009
-0.001
0.046
0.054
-0.035
0.034
-0.029
0.100
0.029
0.023
0.078
-0.003
0.089
0.107
-0.013
0.048
-0.008
0.042
-0.029
-0.007
-0.040
0.012
0.113
0.111
0.020
0.008
0.018
0.014
0.038
-0.020
0.057
0.062
-0.024
0.081
0.062
0.021
0.092
-0.041
0.008
0.005
0.048
0.119
0.031
0.026
0.029
0.012
0.013
-0.023
0.103
0.053
-0.016
0.054
0.048
0.002
-0.002
0.052
0.064
0.035
0.052
0.010
-0.046
0.048
0.008
0.003
0.020
0.007
-0.011
0.097
-0.064
0.010
0.142
0.030
0.060
0.012
0.058
0.008
-0.029
0.144
0.082
-0.050
0.040
0.014
-0.009
0.007
0.075
0.115
0.070
0.044
-0.076
0.060
0.033
-0.003
0.059
-0.017
-0.007
0.112
0.032
0.068
-0.054
-0.054
0.084
0.080
-0.034
0.123
0.025
0.039
0.087
0.035
0.020
0.019
0.028
0.046
-0.008
0.049
-0.070
0.023
0.099
0.098
0.004
0.007
0.105
-0.032
-0.052
-0.026
0.040
0.115
0.016
0.033
0.036
0.071
0.133
0.026
0.027
0.009
0.072
-0.050
0.022
0.002
-0.015
0.046
0.093
0.050
0.011
0.019
0.017
0.063
0.021
0.049
0.006
0.023
0.015
-0.002
0.037
0.058
0.023
-0.010
0.065
0.052
0.036
0.078
0.091
0.070
-0.037
0.025
0.014
0.049
0.071
0.046
0.072
-0.084
-0.022
0.086
0.028
-0.024
-0.019
0.034
0.091
0.002
0.000
0.114
-0.008
0.063
0.032
0.002
-0.025
0.012
0.021
0.035
0.078
0.018
0.019
0.028
0.020
0.069
0.037
0.115
0.095
0.017
-0.107
0.049
0.042
0.057
0.022
0.021
0.093
0.035
0.014
0.078
0.064
-0.055
-0.029
0.063
0.035
0.061
0.063
0.037
0.017
-0.060
0.057
0.043
0.009
0.013
0.018
0.039
0.059
-0.033
0.024
-0.004
0.096
0.055
0.037
-0.002
0.045
0.045
0.039
0.062
-0.019
0.079
0.032
-0.021
0.068
0.023
0.025
0.108
0.007
0.105
-0.050
0.028
0.028
0.009
0.019
0.012
0.037
0.042
0.033
0.045
0.030
-0.040
-0.026
0.060
0.062
0.048
0.026
0.070
0.001
0.039
0.047
0.037
0.016
0.073
0.052
0.036
0.020
0.056
0.041
0.070
-0.068
0.067
0.108
0.003
-0.002
0.051
0.025
0.004
0.057
0.066
0.014
0.023
0.042
-0.033
-0.020
0.022
0.064
-0.018
-0.001
0.064
0.002
0.009
0.103
-0.021
0.121
0.015
-0.018
0.146
0.036
0.063
-0.015
-0.039
-0.014
-0.025
0.098
0.070
-0.015
0.028
0.046
0.047
0.092
0.036
-0.072
0.020
-0.001
0.066
0.011
0.101
0.030
0.027
-0.043
0.019
-0.014
0.054
-0.001
0.013
0.011
0.024
0.118
0.055
-0.023
-0.042
0.024
0.099
0.030
-0.015
0.028
0.013
0.025
0.027
0.036
-0.000
0.030
0.024
0.026
0.008
0.061
0.039
-0.003
-0.039
0.011
0.042
0.003
0.077
0.047
-0.028
0.080
-0.023
-0.006
0.026
0.071
-0.003
-0.020
-0.002
-0.041
0.096
0.049
0.090
0.043
-0.005
-0.018
0.022
0.010
0.050
0.028
0.008
0.050
0.047
-0.065
0.091
0.019
0.003
-0.006
0.002
0.110
-0.004
0.023
0.050
-0.034
0.034
0.048
0.059
0.012
-0.007
0.061
0.021
0.026
0.016
0.045
0.043
0.066
-0.001
0.021
-0.062
0.040
0.039
0.083
0.044
0.039
0.051
0.020
-0.046
0.034
0.072
0.033
0.011
0.044
0.086
-0.034
0.042
0.041
-0.044
0.061
0.016
0.066
-0.016
0.026
0.089
0.057
0.034
0.106
0.004
-0.017
0.063
0.044
0.009
0.010
-0.022
0.069
0.013
0.023
0.006
0.033
0.057
0.012
0.122
0.049
0.020
-0.003
0.059
0.016
0.045
0.044
0.020
-0.012
0.006
0.059
0.017
0.008
0.001
0.092
0.134
0.012
0.095
-0.042
0.046
0.063
0.013
-0.035
0.013
-0.021
0.097
0.020
0.104
0.011
0.052
-0.034
0.078
0.074
-0.055
0.045
-0.008
0.110
0.053
0.068
0.097
-0.059
-0.008
0.074
0.017
0.076
0.084
0.062
-0.019
0.029
-0.066
0.028
-0.047
0.047
0.063
0.047
0.002
0.068
0.035
0.055
0.060
0.036
-0.029
0.044
0.045
-0.026
0.017
0.061
0.032
0.016
0.003
0.105
0.086
-0.013
0.032
-0.009
0.020
0.026
0.085
0.035
0.027
0.077
-0.015
-0.009
-0.018
-0.036
0.085
-0.037
-0.016
0.035
0.081
0.041
0.069
0.047
0.023
0.071
0.019
0.146
-0.017
0.036
0.080
0.029
-0.064
-0.003
0.087
0.019
0.063
0.066
0.026
0.018
0.027
0.054
-0.015
0.113
0.026
-0.007
-0.034
0.021
0.010
0.025
0.089
0.027
0.012
0.067
-0.004
0.040
0.023
0.059
0.086
0.044
0.059
0.010
-0.038
0.051
0.009
-0.042
-0.011
0.145
0.126
-0.001
0.003
0.045
-0.007
0.130
0.023
0.011
-0.071
0.015
0.068
0.031
0.056
0.028
0.038
0.081
0.006
0.075
0.070
-0.005
0.084
-0.035
0.059
0.023
0.050
0.059
0.059
-0.053
0.077
-0.058
0.020
0.010
0.097
0.042
-0.005
0.012
-0.009
-0.009
0.066
0.095
-0.007
0.064
-0.006
0.158
0.025
-0.035
0.012
-0.014
-0.033
0.064
-0.014
0.097
0.093
0.020
-0.027
-0.053
0.025
0.041
0.015
0.014
-0.001
0.146
0.032
-0.032
0.107
-0.008
0.051
0.051
0.050
-0.018
0.014
0.052
0.023
0.014
0.025
-0.024
0.039
0.055
0.015
0.064
0.032
0.006
-0.044
0.040
0.125
0.003
0.001
-0.020
0.056
0.069
-0.013
0.062
0.032
-0.030
0.028
0.041
0.003
0.023
0.079
0.063
0.029
0.033
0.077
0.079
0.012
0.050
-0.001
-0.038
-0.048
-0.030
0.122
0.052
0.098
0.069
-0.041
0.023
0.014
0.068
0.056
-0.018
0.024
0.075
0.007
0.011
0.016
0.031
-0.018
-0.020
0.020
0.027
0.014
-0.022
0.041
0.052
-0.001
0.031
0.050
0.014
0.013
0.011
0.072
0.064
-0.050
0.089
0.069
0.008
0.093
0.108
-0.024
0.042
0.012
0.141
-0.061
0.028
0.009
0.012
-0.036
-0.006
-0.042
0.051
0.033
0.088
-0.012
0.007
0.033
0.028
0.007
0.054
0.011
-0.037
0.081
-0.019
-0.027
0.013
0.092
0.046
0.083
0.059
-0.015
-0.043
0.027
0.012
0.031
0.002
0.119
-0.005
0.001
-0.007
0.038
0.023
0.046
0.058
0.007
0.028
0.004
0.019
0.048
0.043
-0.011
0.106
0.055
-0.029
-0.031
0.061
0.019
0.011
0.046
0.006
0.026
-0.053
0.047
0.083
0.016
0.087
0.070
0.000
0.007
0.003
0.042
0.076
0.063
-0.008
0.013
-0.054
0.022
0.063
-0.014
-0.024
0.013
0.081
0.026
0.040
0.156
0.032
0.048
-0.038
0.007
-0.081
0.007
0.070
0.020
0.053
0.075
0.044
0.017
0.022
-0.062
0.027
0.102
0.022
-0.046
-0.018
0.041
-0.000
0.015
0.028
0.061
0.002
-0.002
0.008
0.102
0.150
0.083
0.068
-0.051
0.053
0.019
0.037
0.051
0.030
-0.033
0.001
0.021
0.058
-0.029
0.057
0.044
-0.001
0.073
0.026
0.044
-0.028
0.040
0.022
0.066
0.020
0.079
-0.065
0.019
-0.059
0.081
0.136
-0.008
0.064
0.114
0.003
-0.012
-0.022
0.000
-0.056
0.065
0.096
0.101
-0.036
0.057
0.059
0.053
0.047
0.135
0.087
-0.054
0.043
-0.004
-0.031
0.028
-0.045
0.041
-0.007
0.089
0.059
0.011
-0.031
0.075
0.006
0.054
0.058
0.103
0.064
0.031
-0.016
0.059
0.033
-0.008
0.059
0.097
0.008
0.011
0.015
0.028
0.040
0.206
-0.011
-0.027
-0.017
0.037
0.097
0.016
-0.034
-0.061
0.088
0.069
0.091
0.020
-0.017
0.037
0.071
-0.004
-0.038
0.066
0.009
0.062
0.005
0.099
0.064
-0.007
-0.067
0.024
0.054
0.043
-0.013
0.067
0.069
0.023
0.091
0.052
-0.027
0.031
-0.031
0.055
0.005
0.111
0.098
0.025
0.007
0.075
-0.004
0.007
-0.024
0.038
-0.030
0.044
0.054
-0.071
0.030
0.093
0.121
0.018
0.005
-0.027
0.001
0.097
0.049
0.053
0.030
-0.017
0.002
0.042
0.058
-0.029
0.054
0.008
0.023
0.074
0.020
0.034
-0.037
0.070
0.087
0.018
0.010
-0.051
0.021
-0.003
0.072
-0.032
-0.026
0.046
0.006
0.022
0.032
0.030
0.092
0.007
0.029
0.042
0.093
0.048
-0.035
0.060
-0.006
0.008
0.017
0.039
-0.021
0.056
0.073
0.085
-0.072
0.045
0.046
0.057
0.047
-0.011
0.002
0.034
0.057
-0.017
-0.021
-0.051
-0.001
0.122
0.078
0.003
0.012
0.077
-0.043
-0.038
0.053
0.116
-0.024
-0.041
0.076
0.043
0.047
0.095
0.056
-0.005
0.016
0.027
0.023
-0.001
-0.017
0.043
0.087
0.084
0.011
-0.013
-0.016
0.049
0.086
-0.009
0.010
0.048
0.016
0.029
0.020
0.054
-0.006
-0.016
0.032
0.085
0.083
0.122
0.039
0.019
0.108
-0.009
0.018
0.020
-0.013
0.010
-0.024
0.050
-0.011
-0.053
0.051
0.097
-0.006
0.029
0.067
0.001
0.018
0.002
0.059
0.068
0.040
-0.053
0.065
0.060
0.052
-0.028
0.072
0.018
0.070
0.065
0.010
-0.067
0.098
0.073
-0.027
0.012
0.044
0.038
0.046
-0.036
-0.001
0.046
0.071
0.077
0.043
0.028
0.012
0.051
0.038
-0.012
-0.031
0.028
0.047
0.085
-0.012
0.121
0.089
0.011
-0.082
0.110
0.031
-0.014
-0.001
0.027
-0.079
0.016
0.033
0.013
-0.022
0.142
-0.039
-0.010
0.022
0.053
0.087
0.016
0.013
-0.061
0.071
0.037
0.079
-0.003
-0.004
0.047
0.056
0.019
0.014
0.021
0.074
-0.036
0.037
0.003
-0.024
-0.043
0.057
0.046
0.066
0.035
0.047
0.082
0.039
-0.006
0.102
0.106
-0.007
0.005
-0.025
0.054
0.019
-0.016
0.020
0.011
0.080
-0.024
0.062
0.058
0.049
0.010
-0.009
-0.081
0.074
0.032
0.066
-0.022
0.010
0.021
-0.024
-0.028
0.036
0.029
0.052
0.066
-0.014
0.005
-0.015
0.091
0.034
0.042
0.104
0.033
-0.048
0.012
0.048
0.015
-0.050
0.115
0.055
-0.034
0.068
-0.011
0.019
-0.003
0.092
-0.000
0.007
0.039
0.159
0.048
-0.051
0.007
0.037
0.005
0.042
0.030
0.042
-0.090
0.016
0.044
0.018
0.027
0.067
0.019
0.002
0.062
0.087
-0.013
0.047
-0.049
0.069
0.018
0.096
0.041
0.010
-0.063
0.009
0.006
-0.003
-0.002
0.059
0.001
0.014
0.061
0.037
-0.016
-0.015
0.103
0.086
0.026
0.011
-0.047
0.055
-0.026
-0.092
0.054
0.069
0.057
0.013
0.133
-0.004
0.033
0.061
-0.035
-0.047
0.071
0.053
0.044
0.020
0.007
-0.034
0.057
0.047
0.104
0.044
-0.023
0.012
-0.005
0.004
0.019
0.026
0.070
0.041
0.058
-0.003
0.064
0.007
-0.014
0.007
0.056
0.059
0.023
-0.006
0.039
0.049
0.150
-0.038
-0.072
-0.001
0.030
0.050
0.019
0.052
-0.045
0.011
0.073
-0.018
0.032
0.022
-0.043
0.111
0.034
0.111
0.063
-0.029
0.040
-0.047
0.041
0.124
0.036
0.059
-0.020
0.049
-0.012
0.075
-0.027
0.071
0.029
-0.025
-0.001
0.120
0.034
0.035
0.013
-0.011
-0.020
0.006
0.072
-0.012
-0.009
0.048
-0.023
0.066
-0.007
0.037
0.040
-0.022
0.047
0.031
0.018
0.075
0.005
-0.008
0.006
0.047
-0.016
0.039
0.089
0.055
0.013
-0.013
0.049
-0.001
0.155
0.090
0.001
-0.053
-0.006
-0.003
0.036
0.095
-0.022
-0.031
-0.002
0.060
0.058
0.085
0.023
-0.013
0.015
0.040
0.117
-0.067
0.015
-0.013
-0.013
0.024
0.070
0.091
-0.027
0.042
-0.012
-0.024
0.023
0.126
-0.008
0.060
0.046
0.041
0.078
0.025
0.041
0.023
0.019
0.052
-0.015
0.081
0.068
-0.001
0.055
0.063
-0.005
-0.018
0.006
0.080
0.040
0.068
-0.018
0.037
-0.008
0.054
0.053
-0.007
0.020
-0.006
-0.007
0.053
0.063
0.058
0.038
0.066
0.026
0.073
0.016
-0.012
0.040
0.046
0.080
-0.006
-0.054
0.039
0.089
0.122
0.002
0.011
-0.015
0.074
0.162
0.070
-0.034
0.021
0.003
-0.005
-0.052
0.022
0.011
0.041
0.049
0.128
-0.025
0.022
-0.015
0.095
-0.030
0.077
0.006
-0.044
0.011
0.060
0.113
0.034
0.064
-0.016
-0.031
0.031
0.059
0.086
0.061
0.007
0.001
0.061
0.100
-0.096
0.006
-0.045
-0.005
0.031
0.060
0.043
0.001
-0.013
0.119
0.007
0.083
-0.028
0.071
0.048
-0.025
0.056
0.021
0.004
0.087
0.027
-0.035
0.011
0.059
0.070
0.044
0.034
-0.003
0.023
0.025
0.066
-0.016
-0.024
0.021
0.072
-0.005
0.047
0.093
0.034
-0.022
0.111
0.052
0.006
-0.042
0.017
0.096
0.063
-0.001
0.046
0.036
-0.008
0.019
-0.001
0.043
0.040
0.058
-0.020
0.011
0.074
0.006
0.109
0.058
0.019
0.075
-0.057
0.058
0.087
0.031
-0.037
-0.019
0.067
0.067
0.083
0.001
-0.004
-0.039
0.046
0.059
0.135
0.023
0.089
0.032
-0.005
0.065
0.045
-0.016
0.054
0.075
-0.033
0.037
0.029
0.055
0.039
0.091
0.093
0.018
0.109
0.054
0.004
-0.022
0.081
0.053
0.039
-0.024
0.032
0.060
0.109
-0.045
0.043
0.064
0.035
0.087
-0.014
0.062
0.025
0.077
0.085
-0.003
-0.069
0.071
0.022
0.041
0.081
0.058
0.019
0.026
0.136
-0.007
-0.022
0.062
0.006
0.004
0.061
0.087
0.042
-0.008
0.042
0.074
-0.031
0.053
-0.014
0.059
0.029
0.074
0.067
0.007
0.036
0.011
0.004
0.113
0.020
0.070
0.019
0.028
0.020
0.040
-0.025
0.114
0.021
0.089
0.033
0.010
0.079
-0.014
0.023
0.033
0.011
-0.016
-0.011
0.002
0.062
0.063
0.024
0.023
-0.011
-0.014
0.034
0.074
0.031
0.057
0.124
0.047
-0.076
0.036
0.071
0.009
-0.001
0.068
-0.029
-0.008
0.078
-0.015
0.099
0.096
0.019
0.029
0.039
-0.066
0.105
0.004
0.022
0.037
0.024
0.009
-0.001
0.029
0.079
0.012
0.076
-0.036
0.074
-0.001
0.049
-0.018
0.010
0.091
0.034
-0.010
-0.058
0.040
-0.009
0.037
0.084
-0.026
-0.006
0.117
0.051
0.047
0.015
0.004
0.037
0.074
0.102
0.047
0.016
0.048
-0.002
0.086
-0.068
0.049
-0.012
0.023
0.029
-0.013
0.068
0.018
0.000
-0.017
0.058
0.028
0.008
0.083
0.024
0.022
0.015
0.150
-0.023
-0.050
0.024
0.002
-0.039
0.067
0.035
0.009
0.021
0.031
-0.024
0.081
0.020
0.023
0.042
0.010
-0.022
0.039
0.009
0.007
0.056
0.070
0.029
-0.065
0.100
-0.009
0.083
-0.036
0.139
0.003
0.082
0.061
0.022
0.109
-0.036
0.073
0.017
-0.047
0.082
-0.010
0.048
0.036
0.079
0.016
0.005
0.094
0.005
-0.040
0.072
0.040
0.046
-0.014
-0.037
0.006
0.060
0.066
0.058
0.091
-0.019
0.024
0.054
0.073
-0.009
0.027
-0.006
0.056
0.004
0.025
0.065
0.024
-0.014
0.032
0.001
0.028
0.022
0.114
0.051
0.034
0.072
-0.001
-0.041
0.139
0.032
0.066
0.006
-0.009
0.072
-0.022
0.054
0.017
-0.028
0.047
0.007
0.067
0.052
0.058
0.070
-0.062
0.038
0.064
0.003
-0.059
0.068
0.065
0.059
-0.007
0.048
0.003
-0.014
0.044
0.016
0.029
0.069
-0.053
0.142
-0.014
-0.020
0.015
0.059
0.066
-0.003
0.007
0.023
-0.005
0.046
0.006
0.109
0.002
-0.066
0.068
0.017
0.068
-0.003
0.062
0.064
-0.086
-0.037
-0.019
0.045
0.041
0.032
0.045
-0.069
0.028
0.002
0.143
0.099
0.012
0.040
0.044
0.034
0.026
-0.005
0.054
0.015
-0.024
-0.017
0.005
0.125
-0.030
0.075
-0.005
0.062
0.065
0.017
0.033
0.024
0.060
0.046
0.061
0.016
0.014
0.041
-0.015
0.023
0.016
0.003
-0.018
0.059
-0.034
0.040
0.055
-0.034
0.061
0.108
0.025
0.081
-0.059
0.050
-0.066
0.023
0.027
0.015
0.016
0.043
0.087
0.005
0.030
-0.039
0.057
0.022
0.027
-0.028
0.041
0.048
0.037
0.014
0.001
0.007
0.015
0.060
0.041
0.029
-0.008
0.052
0.028
0.066
0.047
-0.053
0.025
0.008
0.074
0.078
0.038
0.008
-0.003
0.019
0.128
0.056
0.052
-0.028
-0.058
-0.047
0.092
0.057
0.026
0.002
0.041
-0.012
0.059
-0.009
-0.016
0.026
0.026
0.034
0.127
-0.007
0.002
0.012
0.032
0.072
0.005
0.077
0.127
-0.087
0.033
0.013
0.021
0.036
-0.008
-0.025
0.070
0.030
-0.038
0.061
0.063
0.125
-0.054
0.055
-0.044
0.107
0.105
0.033
0.035
0.027
-0.067
-0.012
0.119
0.002
0.031
0.042
-0.041
0.060
0.038
0.138
-0.055
0.020
0.039
0.045
-0.010
-0.012
0.004
0.060
0.031
0.091
0.081
0.042
0.023
-0.001
0.064
0.048
0.059
-0.010
-0.052
0.099
0.013
0.020
0.115
0.026
0.066
-0.034
0.046
0.010
-0.002
0.089
0.014
-0.084
0.144
-0.024
0.036
-0.000
0.011
0.119
-0.058
0.037
0.051
0.012
0.150
-0.058
0.013
0.020
0.065
-0.013
0.027
-0.002
0.010
0.041
0.038
-0.002
0.098
0.045
0.053
-0.004
0.014
0.126
0.007
-0.014
0.013
0.058
-0.058
0.034
0.025
0.084
0.020
0.023
0.135
0.010
0.004
0.027
0.017
0.070
0.078
-0.002
-0.015
0.023
0.038
0.041
-0.011
-0.008
0.067
0.111
0.034
-0.007
0.017
0.028
0.046
0.019
-0.049
0.067
0.009
0.027
0.008
0.006
-0.018
0.046
0.021
0.033
0.026
-0.003
0.038
0.102
0.070
0.032
-0.045
0.011
0.057
0.080
0.000
0.070
0.015
0.065
0.002
-0.001
0.058
0.012
0.038
0.019
-0.034
-0.003
0.078
0.059
-0.026
-0.013
0.042
0.005
0.080
-0.008
-0.002
0.013
0.023
0.045
0.028
0.051
0.056
0.006
-0.024
0.080
0.135
0.006
0.078
-0.035
0.047
-0.011
0.005
0.077
0.031
-0.017
0.036
0.043
0.053
-0.049
0.026
0.066
0.050
0.038
0.150
0.009
-0.003
0.006
0.045
0.002
0.020
0.006
0.036
0.053
0.042
0.010
0.026
0.050
0.023
0.044
-0.051
0.048
-0.002
0.018
0.070
0.025
-0.046
0.138
-0.085
0.029
0.064
0.050
0.028
0.093
0.013
-0.049
0.018
0.064
0.007
-0.003
0.044
0.050
0.047
-0.028
0.070
0.077
0.037
0.073
-0.005
0.009
-0.032
0.024
0.043
0.065
0.044
-0.007
-0.029
-0.023
0.106
-0.067
0.026
0.024
0.078
0.025
0.003
-0.004
0.050
0.031
0.078
0.097
-0.005
0.047
0.053
-0.014
-0.017
0.005
0.160
-0.037
0.032
0.036
0.013
0.063
-0.006
0.009
0.015
-0.015
0.085
0.024
-0.010
-0.003
0.016
0.037
0.022
0.061
0.013
-0.041
0.046
0.024
0.019
0.081
0.042
-0.003
0.010
0.020
0.134
0.025
-0.019
0.060
0.017
0.029
0.044
-0.043
0.017
-0.002
0.050
0.026
0.032
0.020
0.080
0.016
0.012
0.057
0.047
0.013
-0.014
0.093
-0.010
-0.002
-0.018
0.058
0.051
0.004
0.056
0.047
-0.009
0.081
0.033
0.068
-0.018
0.066
-0.022
0.051
0.042
0.055
-0.013
-0.051
-0.008
0.067
0.092
-0.026
0.015
0.064
0.053
0.037
-0.014
0.070
-0.057
0.094
-0.011
-0.009
0.043
-0.039
0.026
0.035
-0.011
0.038
-0.048
0.069
0.066
0.095
0.000
0.130
0.035
-0.012
0.038
-0.016
0.055
0.005
0.025
0.027
-0.051
0.026
0.033
-0.048
0.063
-0.036
-0.016
0.005
-0.015
0.112
0.014
0.060
0.055
-0.006
0.099
0.031
0.039
-0.002
0.043
0.017
0.031
-0.019
0.018
0.048
0.049
0.005
0.016
0.073
0.020
0.051
0.010
0.020
0.039
0.042
0.019
0.058
-0.091
0.071
0.049
-0.016
-0.000
0.104
0.038
-0.039
-0.005
0.074
0.023
-0.017
-0.005
0.033
0.091
0.094
-0.004
0.027
0.039
0.045
0.060
0.041
-0.002
0.026
-0.013
0.087
-0.028
0.060
-0.015
0.031
-0.018
0.088
0.003
-0.023
0.072
0.039
0.050
0.060
0.024
0.150
0.046
0.049
0.033
0.032
-0.046
0.053
-0.012
0.008
0.044
0.051
0.042
0.013
0.022
0.051
-0.045
-0.042
0.110
0.097
-0.002
-0.044
0.024
0.024
-0.003
0.103
0.058
0.026
0.067
0.066
-0.022
0.025
0.034
0.123
-0.046
0.050
0.050
-0.027
0.004
0.079
0.058
0.007
0.071
0.000
-0.027
0.030
0.081
0.008
0.039
0.011
-0.007
0.052
0.054
0.071
0.048
0.046
-0.025
0.026
-0.022
0.003
0.069
0.031
0.034
-0.070
0.047
0.055
0.002
-0.006
0.008
0.108
0.097
0.068
0.086
-0.022
0.053
0.058
-0.031
0.004
0.019
-0.013
0.000
0.059
0.064
0.033
0.082
0.002
0.012
0.024
0.030
0.054
-0.010
0.048
0.057
0.020
0.046
-0.072
0.043
0.061
0.035
0.076
0.011
-0.016
-0.045
0.013
-0.000
0.085
0.076
0.008
-0.001
0.022
0.068
0.036
0.013
0.039
0.071
0.009
-0.004
-0.024
0.024
0.084
0.091
0.014
0.090
-0.042
-0.002
0.010
-0.016
0.104
0.090
0.003
0.003
-0.017
0.061
0.033
0.022
0.016
0.045
0.002
0.045
0.018
-0.032
-0.038
0.050
0.035
0.023
0.023
-0.035
0.069
0.034
0.029
0.045
0.042
-0.037
0.086
0.046
0.059
0.042
-0.012
-0.064
0.004
0.050
0.080
0.010
0.093
0.092
-0.084
0.062
0.046
0.035
0.042
-0.014
-0.021
-0.007
0.058
0.037
0.013
0.021
0.038
0.018
0.013
0.027
0.151
-0.047
0.006
0.077
-0.052
0.046
0.077
0.013
0.030
-0.008
0.063
0.053
0.102
0.049
0.013
0.039
0.059
-0.006
0.023
0.021
0.007
0.083
0.038
0.026
-0.004
0.019
0.048
0.029
0.049
0.022
-0.033
-0.019
0.017
0.033
0.013
0.011
0.044
-0.038
-0.030
0.131
0.065
0.079
-0.014
0.042
0.002
0.029
0.003
0.034
-0.038
0.050
0.020
-0.006
0.032
0.041
0.050
0.013
-0.004
0.013
0.028
0.091
0.031
0.095
0.026
0.038
-0.002
-0.017
-0.033
-0.002
-0.037
0.104
0.052
0.103
0.104
0.075
0.030
0.018
-0.038
0.025
-0.017
-0.013
0.053
0.019
-0.037
0.044
0.042
-0.003
0.071
-0.013
0.023
0.055
0.062
-0.004
0.075
-0.035
0.055
0.042
0.044
0.014
0.069
0.015
0.054
-0.034
0.037
-0.014
-0.010
0.020
-0.014
0.071
0.047
-0.045
0.064
0.018
0.004
0.096
0.091
0.043
0.011
0.047
0.042
0.012
0.067
-0.035
-0.028
0.063
0.154
-0.022
-0.050
0.029
0.104
0.111
0.019
-0.001
-0.008
0.071
0.087
-0.008
0.053
-0.029
-0.064
0.080
-0.044
0.051
0.087
0.073
0.048
0.035
-0.032
-0.012
0.054
-0.007
0.089
0.058
0.009
-0.022
-0.029
0.071
0.026
0.054
0.001
0.046
0.111
0.051
-0.018
0.014
0.029
-0.001
-0.064
0.059
-0.021
0.086
0.019
-0.002
0.046
-0.001
0.010
0.110
0.008
-0.025
0.004
0.042
-0.074
0.028
0.064
0.076
0.041
0.003
0.029
0.031
0.008
0.003
-0.024
0.031
0.013
0.017
0.069
0.077
-0.029
-0.016
0.099
-0.073
0.023
0.020
-0.012
0.020
0.010
0.043
0.037
-0.009
0.011
0.046
0.041
0.077
-0.010
0.014
0.125
-0.005
-0.037
0.033
0.114
-0.002
-0.044
0.047
-0.008
0.001
0.086
0.001
-0.026
-0.021
0.025
0.039
-0.026
0.043
-0.011
0.012
0.048
-0.023
0.073
0.019
-0.005
0.010
-0.005
0.012
-0.034
0.030
0.032
0.041
0.039
0.054
0.019
0.013
0.066
0.019
-0.031
0.048
0.069
0.018
-0.013
-0.000
0.090
0.033
0.024
0.087
0.033
0.068
0.037
0.115
-0.028
-0.014
0.043
0.013
0.009
0.029
0.016
0.017
0.048
0.040
0.029
-0.026
0.035
0.007
-0.009
0.006
0.050
-0.004
-0.007
-0.061
0.010
0.093
0.097
0.043
0.059
0.006
0.054
0.085
0.119
-0.020
-0.014
-0.029
0.107
-0.042
0.075
0.032
0.010
0.035
0.018
0.042
0.030
0.002
0.011
0.045
0.052
0.058
0.052
-0.030
0.027
0.046
0.005
-0.030
0.041
0.014
0.035
-0.011
0.091
0.042
0.057
-0.002
0.021
0.018
0.005
0.079
0.008
-0.052
0.016
0.024
0.070
0.078
0.025
0.014
-0.009
-0.042
0.081
0.051
-0.022
-0.043
0.089
0.050
-0.012
0.060
0.055
0.055
0.019
0.030
0.085
0.052
-0.014
-0.019
-0.003
0.058
-0.061
0.067
0.073
-0.077
0.027
0.023
0.001
0.170
0.087
0.036
-0.056
0.003
0.038
0.066
0.001
0.044
0.056
0.098
-0.050
0.081
0.124
0.031
-0.007
-0.047
0.030
0.028
0.042
0.005
0.040
0.079
-0.084
0.063
-0.027
0.059
0.000
0.079
0.064
-0.053
-0.028
0.061
0.045
0.015
0.078
0.041
0.074
0.088
0.090
-0.068
0.020
-0.002
0.073
0.063
0.003
0.036
0.039
-0.018
0.073
0.015
0.077
-0.045
0.070
-0.010
-0.052
0.125
0.072
0.022
0.001
0.047
0.054
-0.004
0.017
-0.001
0.062
0.059
0.109
0.043
0.065
-0.012
0.045
0.036
0.041
0.035
-0.047
0.000
0.020
0.070
0.025
0.020
0.001
0.107
0.028
0.019
0.050
-0.006
0.088
0.027
0.022
-0.002
-0.035
0.078
0.057
0.037
-0.090
0.056
0.001
0.052
0.030
0.116
-0.021
-0.025
0.055
0.099
0.130
0.055
0.025
-0.005
-0.032
0.012
0.041
-0.004
0.032
0.091
0.031
-0.017
0.038
0.103
0.068
0.103
-0.030
-0.019
0.067
0.012
0.012
0.030
0.036
0.020
0.061
0.067
0.054
-0.116
0.082
0.076
0.006
0.023
-0.024
-0.047
0.068
0.058
0.081
0.003
-0.009
0.055
-0.002
0.101
0.014
0.041
-0.013
-0.021
0.073
-0.012
0.010
0.063
0.055
0.010
-0.022
0.021
0.144
0.019
-0.052
-0.038
0.003
0.098
0.018
0.000
0.062
0.007
0.087
-0.015
0.124
0.062
-0.049
0.035
-0.010
0.114
-0.014
0.006
0.104
-0.017
0.074
0.031
0.010
0.029
-0.040
0.071
-0.020
0.029
0.010
0.082
-0.006
-0.003
0.044
0.029
-0.054
0.064
0.022
0.023
0.091
-0.024
-0.002
0.097
-0.004
0.121
0.034
0.041
-0.056
-0.009
0.030
0.054
0.068
0.058
0.043
0.067
0.046
0.009
-0.042
0.099
0.077
0.053
0.001
0.014
-0.010
0.054
0.019
-0.016
0.029
0.098
0.006
0.164
0.052
-0.013
0.011
0.069
-0.022
-0.032
0.022
-0.007
0.055
-0.027
0.086
-0.020
0.092
-0.011
0.039
-0.018
0.079
0.111
0.018
0.038
-0.025
0.086
0.079
0.061
0.009
-0.054
0.002
0.002
0.032
0.036
-0.019
0.057
0.040
0.081
0.044
0.034
0.089
0.037
0.017
0.003
0.009
-0.003
0.027
0.001
0.007
0.030
0.053
-0.007
0.012
0.056
0.061
-0.022
0.079
0.022
0.017
0.063
0.018
0.059
0.061
0.029
0.029
0.030
0.012
-0.022
0.079
0.111
0.046
0.008
0.028
-0.012
-0.009
-0.032
0.098
0.063
0.059
0.014
-0.016
-0.036
0.068
0.032
0.017
0.016
-0.025
-0.007
0.065
0.015
0.042
-0.041
0.020
0.021
0.093
0.047
0.006
0.011
-0.010
0.045
0.024
-0.044
0.097
0.013
0.047
-0.035
-0.015
0.012
0.011
0.109
0.069
0.011
0.086
-0.059
0.052
0.081
-0.018
-0.008
0.053
0.045
-0.012
-0.024
0.043
-0.001
0.053
0.044
0.043
-0.015
0.015
-0.027
0.070
-0.014
0.024
0.036
-0.048
0.021
0.024
0.032
0.091
0.042
0.026
0.066
0.040
-0.011
0.008
0.039
0.075
-0.007
-0.003
0.014
0.038
0.007
0.039
0.009
0.029
-0.016
0.032
0.037
-0.027
0.092
0.018
0.014
-0.057
0.035
-0.000
0.038
0.010
0.057
0.046
0.060
0.057
0.116
-0.046
0.003
-0.000
0.091
0.003
0.023
0.074
0.024
-0.024
0.068
0.131
0.056
0.009
-0.036
0.068
0.003
0.023
0.015
0.007
-0.019
0.072
0.017
0.066
0.070
-0.013
0.005
0.082
0.024
-0.025
0.010
0.100
0.065
0.026
0.057
-0.012
0.019
0.016
0.057
0.012
0.043
0.015
0.051
-0.061
0.021
0.098
0.046
-0.067
0.012
0.042
0.016
0.086
0.028
-0.014
0.078
0.037
0.003
-0.070
0.036
0.094
0.061
0.005
-0.031
0.028
0.112
-0.000
0.097
0.131
-0.050
-0.021
0.029
0.089
-0.076
0.053
0.090
-0.025
-0.027
0.031
0.080
-0.016
-0.001
0.052
0.089
0.043
0.007
0.029
0.043
-0.045
0.033
0.032
0.040
0.019
-0.010
0.035
0.016
0.155
0.060
0.021
-0.017
-0.004
0.086
0.041
0.057
0.046
0.001
0.068
0.049
0.063
-0.021
-0.056
0.022
0.101
0.035
0.037
-0.031
-0.006
0.043
0.012
0.047
-0.044
0.028
-0.001
0.076
0.048
0.129
-0.035
0.064
0.020
0.113
0.058
-0.050
0.074
-0.003
-0.053
0.044
0.003
0.029
0.023
