0.097
0.074
0.090
-0.079
0.003
0.051
0.070
-0.003
-0.082
0.081
0.032
0.006
-0.053
-0.049
-0.015
0.012
-0.035
-0.000
0.025
0.076
0.047
-0.108
0.080
-0.002
-0.031
0.075
0.030
-0.019
0.036
0.084
0.012
-0.007
0.004
-0.042
0.097
0.075
-0.055
0.023
0.140
0.080
-0.024
-0.082
0.076
0.066
-0.071
0.047
0.041
0.112
-0.008
-0.082
0.046
0.111
0.004
0.042
-0.029
-0.025
0.057
-0.012
0.029
0.020
0.059
-0.055
0.072
-0.043
0.069
0.090
-0.040
0.040
0.026
0.046
-0.012
0.032
-0.027
0.036
0.009
0.011
-0.034
0.054
0.090
-0.022
0.052
-0.008
0.122
0.048
-0.042
0.061
-0.004
-0.043
-0.003
-0.011
0.050
-0.004
-0.068
0.004
0.034
0.052
-0.014
-0.123
-0.071
0.168
0.137
0.017
0.042
-0.003
-0.014
0.028
0.014
0.075
0.030
0.099
0.025
-0.059
0.013
0.022
0.002
-0.026
-0.043
0.006
-0.085
0.039
0.109
-0.027
-0.051
0.066
0.005
-0.021
0.114
-0.077
0.072
0.041
0.099
0.039
0.044
-0.075
-0.017
0.015
0.024
0.031
0.065
0.046
-0.059
-0.015
-0.001
0.071
0.095
-0.069
-0.020
0.083
0.025
0.047
0.093
0.018
-0.024
0.065
-0.000
0.025
0.008
0.101
0.186
-0.070
-0.004
-0.019
0.025
0.111
-0.039
-0.052
0.076
0.033
-0.006
0.000
0.025
-0.005
0.078
0.045
0.041
-0.035
-0.048
0.033
0.093
0.049
0.058
0.066
0.092
0.020
-0.020
0.011
0.074
0.034
0.038
0.049
0.006
0.025
0.031
0.024
0.014
0.083
0.005
0.019
0.054
0.040
0.056
-0.116
-0.115
0.054
0.079
0.016
0.019
-0.017
-0.052
0.035
0.051
0.064
0.026
-0.045
0.024
0.083
-0.014
0.011
0.073
0.098
0.012
0.017
-0.006
0.026
-0.095
0.052
0.027
0.077
0.046
0.034
0.080
0.028
-0.035
0.037
0.048
0.004
0.044
-0.023
-0.033
0.021
0.019
0.005
0.051
-0.023
-0.135
0.055
0.110
0.039
0.071
-0.036
-0.027
0.049
-0.004
-0.024
-0.034
-0.029
0.147
0.081
-0.052
-0.035
0.055
-0.050
0.006
0.090
0.070
-0.086
-0.027
0.004
0.119
0.076
-0.032
0.057
0.104
-0.035
-0.062
0.039
0.033
0.027
0.055
0.070
-0.006
0.013
0.005
0.005
0.088
0.016
-0.082
0.082
0.064
0.042
-0.055
-0.003
0.013
0.017
0.039
-0.005
0.045
0.002
0.040
-0.032
-0.016
0.030
0.008
-0.106
0.106
0.012
-0.015
0.034
-0.006
0.003
0.005
0.076
0.060
0.053
-0.065
0.117
0.044
-0.067
0.062
0.030
-0.004
-0.004
0.045
-0.003
0.015
-0.051
0.017
0.039
0.085
0.060
0.017
-0.016
-0.006
0.064
-0.072
0.012
0.084
0.086
-0.037
0.024
-0.029
0.095
0.007
0.045
0.023
-0.030
0.127
0.014
-0.103
0.024
0.026
-0.015
0.043
0.011
0.016
0.058
0.036
0.011
0.007
0.047
0.080
-0.112
0.003
0.079
-0.058
0.032
0.026
0.009
-0.103
0.005
0.008
0.067
0.036
-0.053
0.059
0.067
0.067
-0.063
0.083
0.074
-0.045
-0.048
0.106
0.079
-0.020
0.126
0.031
-0.000
-0.006
-0.058
0.003
0.069
-0.011
0.044
0.014
0.039
0.019
0.003
0.127
-0.034
0.002
-0.033
-0.092
0.100
0.020
0.052
0.024
-0.086
0.000
0.141
0.022
0.044
-0.076
0.056
0.025
0.057
-0.021
-0.025
-0.029
0.061
-0.001
-0.142
0.056
0.093
0.024
-0.010
-0.015
-0.045
0.005
0.088
0.055
-0.100
0.034
0.058
0.040
-0.051
0.003
0.062
0.115
-0.039
-0.012
0.055
0.038
0.013
0.037
0.051
-0.066
0.064
0.021
-0.012
0.065
0.061
-0.050
0.089
0.013
0.034
-0.092
0.082
0.068
0.000
0.057
0.044
0.013
-0.001
0.064
0.021
0.038
-0.024
0.082
0.003
-0.050
0.025
-0.033
0.062
0.064
0.100
-0.048
-0.032
0.004
-0.096
0.026
0.097
0.008
0.005
0.045
0.048
0.003
-0.069
0.000
0.053
-0.023
0.086
0.025
-0.021
0.028
0.011
0.003
0.066
0.071
0.074
0.052
-0.007
-0.014
0.026
-0.009
0.030
0.050
0.011
0.051
-0.002
0.005
0.037
0.008
0.019
0.033
0.099
0.022
-0.011
-0.077
-0.068
0.156
0.025
0.072
0.118
-0.030
-0.090
-0.057
0.091
0.046
-0.053
0.001
0.027
-0.033
0.028
-0.095
-0.043
0.110
0.023
0.001
-0.002
0.056
0.013
0.045
-0.051
0.012
-0.034
0.007
-0.018
0.098
0.091
-0.064
0.052
0.006
-0.022
0.025
0.028
-0.024
-0.002
0.067
0.080
-0.021
-0.003
0.106
0.066
0.077
-0.069
0.032
-0.046
0.052
-0.051
0.050
0.095
-0.038
0.000
0.029
0.026
0.043
0.083
-0.021
0.003
0.039
0.063
0.017
0.058
0.011
0.002
0.047
-0.019
0.024
0.021
-0.030
-0.049
0.035
-0.051
0.037
0.049
-0.035
0.136
0.098
0.003
-0.005
0.031
0.009
0.000
0.107
0.072
-0.056
-0.017
0.088
-0.071
0.038
0.059
0.128
0.018
-0.031
0.035
-0.030
-0.096
0.062
0.128
0.073
0.002
0.013
0.020
0.091
0.043
0.047
-0.096
-0.040
0.175
-0.076
0.072
0.046
-0.013
-0.008
0.034
-0.010
-0.061
0.084
0.045
-0.062
0.008
0.024
0.013
-0.001
-0.010
0.040
0.112
0.035
-0.039
-0.020
-0.004
0.027
-0.006
0.083
0.060
-0.068
-0.031
0.043
0.094
-0.090
0.193
-0.025
-0.015
0.086
0.053
0.071
-0.012
0.075
0.072
0.008
-0.063
0.064
0.035
-0.043
-0.037
-0.029
0.019
0.017
0.102
-0.040
0.042
0.059
-0.078
0.052
0.072
0.071
0.030
-0.014
-0.067
0.031
-0.004
-0.037
0.030
0.136
0.067
-0.034
0.040
0.017
0.031
-0.082
0.127
0.003
-0.116
0.040
0.047
-0.018
0.036
0.152
0.002
-0.026
-0.061
-0.020
0.141
-0.061
-0.008
0.015
0.060
0.039
-0.025
0.033
0.014
0.082
0.079
-0.048
0.027
0.113
0.066
-0.066
0.022
0.053
0.036
0.021
-0.010
0.062
0.084
0.013
0.019
-0.037
-0.007
0.026
0.096
0.013
-0.083
-0.160
0.069
0.093
-0.017
-0.031
-0.060
0.141
0.028
-0.023
0.091
-0.059
0.033
0.015
0.089
0.010
0.107
-0.066
-0.014
0.039
0.017
-0.033
0.037
0.003
0.084
0.020
0.108
0.048
0.047
-0.067
0.010
-0.013
0.144
-0.108
-0.088
0.120
-0.019
0.023
0.082
0.115
0.002
0.065
-0.057
-0.045
0.044
-0.015
0.039
-0.006
0.048
-0.002
0.072
0.019
0.069
0.015
0.052
-0.019
0.008
0.100
-0.029
-0.077
-0.003
0.036
0.052
-0.037
-0.029
-0.018
0.065
0.010
0.078
-0.095
-0.001
0.038
-0.001
-0.028
0.097
0.076
0.107
-0.027
-0.094
-0.015
0.004
-0.040
0.091
0.077
0.026
0.002
0.044
0.059
-0.017
0.017
0.032
-0.022
0.004
-0.019
0.114
0.002
0.003
-0.035
0.024
0.066
0.011
-0.015
-0.033
-0.015
0.082
0.094
-0.032
-0.004
0.002
-0.078
0.045
-0.043
0.050
-0.007
0.107
-0.027
-0.035
0.071
0.028
-0.010
-0.043
0.015
0.138
0.035
0.010
0.043
-0.024
0.045
0.012
0.047
0.016
0.003
-0.003
0.013
-0.005
0.069
0.036
0.025
-0.015
-0.009
0.034
-0.001
-0.048
0.069
-0.047
0.002
0.006
0.027
0.037
-0.014
-0.053
0.073
0.076
0.102
0.090
-0.043
-0.058
0.068
0.009
-0.043
0.079
0.094
0.045
-0.021
-0.021
0.070
-0.039
0.013
-0.063
-0.008
-0.015
0.057
0.026
-0.008
-0.041
0.045
0.099
-0.004
0.001
0.055
-0.010
0.066
0.073
0.141
-0.001
-0.051
-0.057
0.033
0.040
0.013
0.009
0.056
0.042
-0.029
-0.013
0.011
0.082
0.060
-0.061
-0.046
0.052
0.034
0.044
-0.005
0.188
0.036
0.066
-0.020
0.044
0.031
-0.075
0.020
0.066
0.020
-0.004
0.069
0.066
-0.104
0.012
-0.014
0.055
0.046
-0.029
0.018
-0.011
0.053
0.039
-0.049
0.123
0.067
-0.068
0.009
0.123
0.003
0.027
0.035
-0.009
0.102
0.048
0.045
0.028
0.027
-0.082
-0.026
0.054
-0.041
-0.001
0.111
0.100
0.011
-0.024
0.012
-0.017
0.058
0.034
-0.021
0.031
-0.003
0.020
0.006
0.058
-0.017
0.078
0.030
0.026
-0.110
0.002
0.004
-0.017
0.049
0.060
-0.006
0.042
0.007
-0.042
0.089
-0.011
0.069
0.002
0.051
0.056
0.123
-0.104
-0.053
0.029
-0.020
0.062
0.046
0.007
-0.038
-0.044
0.026
0.138
-0.006
0.001
0.001
-0.004
-0.079
0.108
-0.006
-0.055
-0.015
-0.016
0.058
0.112
0.005
0.016
-0.046
0.095
0.068
-0.077
0.037
0.076
0.038
0.048
0.073
0.070
-0.040
-0.021
0.071
0.079
-0.102
-0.039
-0.064
0.128
0.075
-0.020
0.074
0.060
0.023
-0.051
-0.044
0.053
-0.061
0.034
0.049
-0.003
0.004
0.031
-0.048
-0.064
0.038
0.036
0.001
0.020
0.067
0.010
0.087
-0.033
0.081
-0.087
-0.020
0.118
0.018
-0.004
-0.032
0.054
-0.009
-0.014
-0.003
0.039
-0.009
0.057
0.074
0.009
0.035
-0.012
0.018
0.080
-0.069
-0.015
-0.047
-0.072
0.009
0.103
0.099
0.059
-0.021
-0.013
-0.027
0.050
-0.024
0.055
0.017
0.059
0.071
-0.104
0.055
0.099
0.052
-0.014
-0.039
-0.038
0.051
-0.030
0.094
0.005
0.046
0.002
-0.036
0.024
-0.037
0.002
0.028
0.001
-0.019
0.009
0.008
0.056
-0.103
0.100
0.077
-0.033
0.002
0.059
0.027
0.041
-0.047
0.051
0.051
0.068
-0.041
0.076
0.022
0.009
0.041
0.024
0.034
0.009
-0.075
0.040
0.065
0.051
-0.003
-0.009
0.016
0.106
0.035
-0.067
-0.028
0.094
0.080
0.050
0.000
-0.071
0.030
0.052
0.020
0.076
0.056
-0.002
0.013
0.019
0.044
-0.077
0.068
-0.022
0.029
0.044
-0.005
0.023
0.039
-0.030
0.007
-0.007
0.120
0.039
-0.023
-0.046
0.047
0.109
-0.015
0.017
0.024
-0.003
-0.006
0.097
0.076
-0.059
-0.016
0.027
0.040
0.021
0.060
0.042
0.079
0.014
-0.038
0.043
0.043
0.006
0.034
0.018
0.020
0.006
0.110
0.003
0.016
0.063
-0.030
-0.049
-0.017
0.057
0.114
0.077
-0.074
0.011
0.035
0.101
-0.029
-0.020
0.032
-0.014
-0.006
-0.001
0.041
0.035
0.024
-0.094
-0.062
0.077
0.068
0.061
0.009
0.039
0.063
0.046
0.064
-0.012
-0.056
-0.027
0.025
0.089
-0.005
0.047
0.035
0.068
-0.019
0.029
-0.023
-0.067
0.058
-0.009
0.039
0.027
0.037
0.018
-0.011
-0.006
-0.017
0.089
0.038
-0.012
0.078
-0.005
0.009
-0.014
0.086
0.064
0.020
0.096
-0.045
-0.034
0.064
0.059
-0.048
-0.095
0.008
-0.049
0.152
0.028
-0.034
-0.031
0.091
0.017
-0.059
0.171
-0.006
0.089
-0.000
-0.045
-0.090
0.033
0.164
0.044
0.010
-0.074
0.029
0.006
0.051
-0.029
0.086
0.015
-0.087
0.072
-0.014
0.005
0.080
0.046
0.024
-0.006
0.051
0.080
0.051
0.005
0.014
0.007
-0.003
0.033
-0.110
0.023
0.067
-0.016
-0.014
0.015
-0.032
0.083
-0.010
-0.031
-0.015
-0.074
0.098
0.025
-0.036
0.067
0.028
0.002
0.027
-0.062
0.062
0.008
0.072
0.068
0.010
-0.060
0.037
0.063
-0.008
-0.019
-0.082
-0.012
-0.002
-0.014
-0.063
0.041
0.075
0.024
-0.016
-0.032
0.016
0.028
0.031
0.036
0.015
0.068
0.059
0.084
0.074
-0.074
0.015
0.003
-0.063
-0.020
0.105
0.023
0.043
-0.005
0.002
0.060
-0.122
0.038
0.073
-0.036
-0.047
-0.005
0.075
0.069
0.011
-0.040
-0.024
0.124
0.059
0.068
0.074
-0.081
0.011
0.040
0.067
-0.002
-0.042
0.078
-0.038
-0.043
-0.046
-0.017
0.089
0.086
0.085
0.002
-0.006
0.064
0.027
0.005
0.089
0.044
-0.049
0.061
0.051
0.051
-0.011
0.023
-0.060
-0.021
0.105
-0.003
0.040
0.040
0.062
-0.044
-0.033
0.199
-0.014
0.043
-0.019
-0.067
0.093
-0.027
0.068
0.079
0.064
-0.040
-0.000
-0.005
-0.053
-0.009
0.023
0.110
0.071
0.048
-0.024
-0.053
-0.021
0.031
0.079
-0.076
0.059
-0.042
-0.002
0.025
0.083
0.004
-0.020
0.020
0.048
-0.012
-0.065
0.094
0.071
0.066
0.001
-0.058
0.031
-0.028
0.073
-0.025
0.028
-0.052
0.090
0.028
0.068
0.094
-0.040
0.034
-0.066
0.136
0.059
-0.034
-0.067
-0.022
0.071
0.097
0.031
-0.024
-0.027
0.025
0.084
-0.030
-0.017
-0.016
-0.037
0.079
0.061
0.010
0.066
0.080
-0.023
-0.017
0.013
-0.011
0.110
-0.002
-0.023
0.015
-0.005
-0.079
0.108
0.011
-0.008
-0.032
-0.091
0.024
0.061
0.027
0.035
0.058
0.006
0.074
-0.041
-0.007
0.034
0.044
0.005
0.071
-0.044
-0.000
-0.025
0.126
-0.023
0.050
0.029
0.067
-0.074
-0.019
-0.040
0.043
-0.022
0.046
0.140
-0.127
0.035
0.072
-0.088
0.052
-0.033
0.032
0.126
-0.006
-0.082
-0.033
0.087
0.013
-0.017
0.057
0.041
-0.027
-0.082
0.111
-0.038
-0.022
0.035
0.026
0.079
0.020
-0.050
-0.071
0.096
-0.045
-0.059
0.091
-0.015
0.053
0.090
-0.044
-0.027
0.096
-0.022
0.008
0.071
-0.035
-0.020
0.070
0.024
0.007
-0.011
-0.045
0.121
0.040
-0.001
0.052
0.009
-0.055
0.016
0.116
-0.037
0.048
0.010
0.017
0.004
0.056
-0.035
0.031
0.080
0.036
-0.113
-0.007
0.089
-0.010
-0.027
0.088
-0.031
0.017
0.087
0.028
0.053
0.007
0.016
-0.030
0.018
0.049
0.092
0.056
0.001
0.043
-0.037
0.063
0.103
0.056
0.048
-0.058
-0.030
0.116
-0.049
-0.042
0.172
-0.042
0.051
0.034
-0.073
-0.015
0.040
0.095
0.036
-0.064
0.032
0.003
0.107
-0.062
-0.098
0.075
0.147
0.123
-0.040
-0.005
0.028
0.029
-0.064
0.031
0.050
0.121
-0.054
-0.024
-0.047
0.106
-0.025
0.051
0.019
0.032
0.060
-0.123
-0.056
0.079
0.061
0.055
-0.029
-0.064
0.019
0.004
0.066
0.015
0.007
0.006
0.003
-0.125
0.059
0.114
0.068
0.127
-0.010
-0.013
-0.005
0.080
0.082
0.067
0.007
-0.008
0.029
-0.007
0.072
-0.012
-0.079
0.011
0.024
0.108
0.024
-0.038
0.004
0.044
-0.017
0.067
-0.104
0.016
0.052
0.062
-0.036
-0.051
0.080
0.050
0.073
0.082
-0.012
-0.016
-0.001
0.017
0.073
0.039
0.081
0.083
0.018
-0.088
0.030
0.019
0.014
0.068
0.050
0.073
0.081
0.033
0.019
0.080
-0.016
-0.001
0.001
0.027
0.115
0.039
0.032
0.014
0.058
0.000
0.004
0.022
-0.014
-0.039
0.030
0.036
0.085
0.008
0.026
0.023
0.024
0.048
0.037
0.040
0.075
-0.022
0.077
0.018
0.041
0.055
-0.012
-0.016
-0.058
-0.030
0.022
0.101
0.058
-0.053
-0.019
0.012
0.052
0.065
-0.007
0.019
-0.061
0.049
-0.035
0.136
0.047
-0.046
-0.036
-0.064
-0.050
0.004
0.056
0.030
-0.019
-0.011
0.028
0.111
0.016
-0.073
0.087
0.026
0.062
-0.006
-0.004
-0.040
0.077
-0.064
0.010
-0.040
-0.079
0.105
0.002
0.120
-0.005
-0.003
-0.065
-0.042
0.043
-0.019
0.046
0.078
0.026
0.036
0.011
-0.045
0.019
-0.016
-0.023
0.101
-0.028
0.033
-0.037
0.082
0.001
-0.074
0.052
0.036
-0.029
0.008
0.012
-0.023
0.088
0.027
0.062
0.011
-0.033
0.055
0.023
-0.005
-0.024
0.022
-0.014
-0.042
0.072
0.027
-0.012
0.006
-0.027
0.037
0.124
-0.027
-0.033
0.086
0.079
-0.085
-0.008
0.029
0.039
0.012
0.084
-0.023
0.149
0.027
0.023
-0.010
0.003
0.012
0.048
0.041
-0.046
-0.002
0.012
0.025
0.012
0.006
-0.012
0.101
-0.034
0.039
0.025
-0.032
0.065
-0.003
-0.046
0.029
0.019
0.025
0.006
-0.071
0.027
0.026
-0.036
0.048
0.038
-0.006
0.003
0.063
-0.067
0.083
0.014
0.008
0.042
-0.015
0.034
0.084
0.008
0.022
-0.068
0.071
-0.001
0.001
0.001
0.099
0.088
0.009
0.053
0.033
-0.070
0.010
0.046
0.087
0.009
0.037
0.081
-0.011
0.020
0.016
-0.038
0.062
0.087
0.052
-0.055
-0.043
0.050
-0.066
0.028
-0.057
0.032
0.011
0.111
-0.007
0.100
-0.005
-0.042
-0.039
-0.038
0.093
0.047
-0.020
0.038
0.037
0.015
0.047
0.020
0.014
-0.062
0.043
0.008
0.009
-0.077
0.112
0.060
0.070
0.002
0.007
0.142
-0.032
-0.007
0.040
0.071
-0.021
-0.011
0.034
0.001
0.020
0.111
0.010
-0.080
0.001
0.052
0.119
-0.021
0.010
0.007
-0.051
-0.002
0.039
0.120
0.018
-0.079
0.029
0.050
-0.005
-0.060
0.044
-0.106
0.059
0.042
0.110
-0.049
0.071
0.036
-0.042
-0.022
-0.006
-0.009
0.068
-0.101
0.171
0.028
-0.016
-0.007
-0.049
0.020
0.088
-0.024
0.046
0.054
-0.012
-0.076
0.072
-0.022
0.093
-0.035
0.101
0.019
0.020
0.008
-0.002
0.059
0.068
0.086
0.001
-0.020
0.056
-0.020
0.058
0.037
-0.043
0.011
-0.040
0.008
-0.033
0.037
0.109
0.066
0.012
0.069
-0.009
-0.062
0.144
-0.026
0.035
0.014
-0.039
0.068
0.075
0.111
0.026
-0.018
-0.039
0.097
-0.018
0.142
-0.001
-0.033
-0.043
0.075
0.107
-0.034
-0.005
0.022
0.027
0.078
-0.004
0.050
0.016
-0.026
-0.049
0.021
0.046
0.087
0.021
-0.004
0.064
0.026
0.026
0.001
-0.029
0.016
-0.002
0.103
0.017
-0.041
0.002
-0.020
0.065
0.075
0.005
-0.120
0.055
0.093
0.036
-0.025
-0.016
0.051
0.053
-0.107
0.004
0.084
0.075
-0.027
-0.016
0.009
0.085
0.005
0.034
0.052
-0.074
0.029
-0.011
0.044
0.060
0.015
-0.010
0.021
0.022
-0.025
-0.021
0.055
0.028
0.007
-0.055
-0.090
0.114
-0.027
0.029
-0.015
0.104
0.001
0.038
-0.013
0.032
0.002
0.074
-0.021
-0.022
-0.044
0.036
-0.018
0.080
-0.038
-0.004
-0.004
0.011
0.027
0.058
0.028
0.032
-0.032
0.043
0.028
0.042
0.008
0.023
-0.009
0.057
0.043
0.068
0.062
-0.037
0.024
-0.005
0.036
0.096
0.020
0.062
0.022
0.104
-0.101
-0.025
0.009
0.032
0.087
0.039
0.056
-0.010
0.043
-0.025
0.051
-0.057
0.011
0.003
-0.024
-0.036
0.209
0.011
0.028
-0.044
0.002
0.015
-0.005
0.000
-0.012
-0.048
0.017
0.010
0.139
-0.035
0.014
0.139
0.002
0.002
0.028
0.023
0.031
-0.012
-0.039
0.089
0.129
-0.011
-0.091
0.008
0.047
0.048
0.054
0.026
-0.010
-0.080
0.075
0.066
-0.067
-0.040
0.117
-0.035
-0.037
-0.018
0.051
0.143
0.051
-0.054
-0.006
-0.085
-0.091
0.125
-0.043
0.112
0.012
-0.042
-0.003
0.033
0.013
0.013
0.037
0.038
0.027
-0.019
-0.037
0.066
0.053
-0.046
0.003
0.020
0.008
0.087
-0.029
-0.033
0.066
0.044
0.078
0.075
0.008
0.076
-0.069
0.068
0.076
-0.014
0.066
-0.061
0.062
0.027
0.075
-0.000
0.103
-0.009
-0.028
0.002
0.049
0.044
-0.022
-0.016
-0.013
-0.012
-0.077
0.028
0.042
0.091
0.000
-0.021
0.075
0.016
0.030
-0.080
-0.011
0.025
0.013
0.013
-0.010
0.079
0.096
-0.011
-0.016
-0.005
0.196
-0.008
0.012
0.069
-0.068
0.006
0.079
0.058
0.027
-0.068
0.056
0.059
-0.003
-0.060
0.062
0.055
0.014
-0.061
0.078
0.073
0.006
0.042
-0.097
0.032
-0.024
0.066
0.030
0.008
-0.024
-0.036
-0.017
0.010
0.060
0.006
0.038
-0.027
-0.047
0.007
0.011
-0.007
0.037
-0.043
0.097
-0.026
0.042
0.108
-0.068
0.027
0.055
0.002
0.065
-0.066
0.040
-0.021
0.065
-0.003
-0.009
-0.009
0.003
0.064
-0.058
-0.018
0.053
0.017
0.073
0.028
0.022
0.023
0.051
-0.090
0.051
-0.006
0.047
-0.009
0.047
-0.088
0.124
0.127
-0.010
-0.054
-0.083
0.023
0.024
0.057
0.061
-0.033
0.016
0.071
0.046
-0.045
0.029
0.053
-0.027
0.044
0.022
0.007
-0.018
0.073
0.077
0.072
-0.014
-0.009
0.040
0.037
0.078
-0.018
0.002
0.042
0.025
-0.089
-0.031
0.085
0.079
0.044
-0.082
0.038
0.005
0.028
0.079
0.043
-0.017
-0.075
-0.038
0.084
0.007
0.041
-0.033
0.035
0.048
0.086
0.132
-0.024
-0.022
0.059
0.029
0.017
-0.028
0.094
-0.024
0.067
0.039
0.021
0.037
0.062
-0.090
0.094
0.081
-0.023
-0.014
0.050
-0.086
-0.110
0.058
0.079
0.082
0.008
-0.037
0.037
0.057
0.023
-0.038
0.006
0.066
0.033
0.036
-0.013
-0.030
0.085
0.068
-0.024
0.029
-0.047
-0.019
0.147
0.033
0.007
0.057
0.046
-0.085
0.013
0.038
0.057
0.024
-0.023
0.133
-0.008
0.020
-0.043
-0.166
-0.032
0.119
0.051
0.014
0.029
-0.050
-0.035
0.059
0.046
-0.010
0.015
0.040
0.009
0.161
0.039
0.006
0.006
0.020
0.069
0.028
0.027
-0.042
-0.023
0.058
0.066
0.002
-0.009
0.006
-0.004
-0.038
0.076
0.053
0.011
0.047
-0.050
0.064
0.002
0.018
0.058
0.036
0.058
-0.042
-0.039
0.001
0.043
0.016
-0.018
-0.071
0.033
0.094
-0.010
-0.001
-0.015
0.050
-0.034
0.067
0.009
0.081
0.022
0.043
0.092
-0.070
-0.046
0.054
0.033
0.017
0.008
0.060
0.021
0.083
0.015
-0.054
0.040
0.021
0.018
0.026
0.025
0.007
0.031
-0.011
-0.028
-0.025
-0.053
0.029
0.065
0.122
-0.036
0.061
0.009
0.006
0.023
0.137
-0.028
-0.013
0.027
-0.035
0.058
0.119
-0.017
-0.072
0.092
0.021
-0.050
0.102
0.012
0.071
0.021
-0.007
0.065
0.058
0.069
-0.068
0.009
0.002
-0.051
0.074
0.056
0.026
0.079
-0.019
-0.018
0.039
-0.019
0.035
0.111
0.008
-0.049
0.016
0.005
0.095
-0.038
-0.033
0.044
0.070
0.077
0.019
0.005
-0.013
0.066
-0.021
-0.103
0.043
0.065
0.067
0.023
-0.065
0.020
0.001
-0.024
0.093
-0.032
0.022
0.036
0.031
-0.164
0.053
0.133
-0.003
0.071
0.071
0.095
-0.032
-0.013
-0.027
0.007
0.053
0.022
0.043
0.054
0.003
-0.010
0.067
0.013
0.010
-0.040
0.046
-0.011
0.050
0.053
-0.038
-0.020
0.001
0.051
0.131
0.046
0.075
-0.004
-0.016
0.010
-0.106
0.028
-0.017
0.115
0.031
-0.047
0.034
-0.032
0.095
0.099
0.012
-0.034
-0.008
-0.082
-0.005
0.073
0.005
0.029
0.071
-0.002
0.011
0.051
-0.101
0.090
0.128
-0.075
0.000
0.009
0.029
0.074
0.088
0.143
0.073
-0.001
0.041
0.081
0.043
-0.043
0.106
0.008
0.061
0.016
0.054
-0.056
0.049
-0.023
0.064
-0.005
-0.014
-0.030
-0.033
0.068
-0.010
0.106
0.024
0.028
-0.081
-0.002
-0.033
0.080
0.130
-0.038
0.062
0.029
0.094
0.032
-0.038
0.003
0.053
-0.019
0.050
0.006
-0.007
0.028
0.008
0.024
0.006
0.025
-0.026
0.074
0.033
-0.068
0.034
-0.004
-0.031
0.007
0.021
0.076
0.016
0.043
0.070
0.025
-0.008
0.072
-0.051
0.087
0.117
0.067
0.006
-0.094
-0.004
-0.045
0.032
0.028
0.020
0.102
-0.007
0.078
-0.033
-0.045
-0.020
-0.009
0.096
0.107
0.047
-0.039
0.051
-0.041
0.033
0.024
0.089
-0.049
0.078
0.067
-0.050
0.012
0.027
0.061
-0.019
0.132
-0.038
-0.005
0.067
-0.083
-0.019
-0.001
0.141
-0.027
0.034
0.028
0.026
0.116
0.003
0.044
-0.019
0.068
-0.000
-0.021
-0.036
0.006
0.095
0.026
-0.028
0.063
0.066
-0.010
0.041
0.052
0.038
0.046
0.029
-0.008
0.031
-0.004
0.053
0.020
0.025
0.046
-0.000
0.072
0.072
-0.062
0.002
0.070
-0.012
-0.010
0.116
0.071
-0.064
0.084
-0.011
0.020
0.036
0.012
0.044
0.078
0.051
-0.044
0.042
-0.058
0.048
0.056
0.048
0.066
-0.013
0.053
0.002
-0.020
-0.023
0.013
0.014
-0.058
0.023
0.076
0.085
0.078
-0.009
0.003
0.052
0.022
-0.004
-0.032
0.047
0.050
-0.026
0.027
-0.006
0.067
0.041
-0.004
0.069
-0.062
0.066
0.034
0.032
-0.015
0.108
0.017
0.036
0.016
-0.065
-0.013
0.072
0.115
-0.060
0.082
-0.081
0.006
0.035
0.064
-0.044
-0.028
0.053
0.034
0.047
-0.016
0.088
0.016
-0.057
0.031
-0.023
-0.024
0.032
0.062
-0.031
-0.028
0.036
0.028
0.077
0.037
0.093
0.025
0.043
-0.011
0.098
0.041
-0.088
-0.030
0.005
0.050
-0.086
0.019
0.097
0.022
-0.048
-0.020
0.001
0.067
-0.033
0.012
0.056
0.132
0.060
-0.004
-0.027
0.022
0.030
0.015
0.005
0.031
0.014
-0.049
0.042
-0.017
-0.029
0.049
-0.002
0.074
0.004
0.004
0.036
0.022
0.069
-0.024
0.065
0.068
0.053
-0.021
0.090
-0.017
0.009
0.004
0.035
0.112
-0.020
0.106
-0.002
0.008
-0.078
0.029
0.027
0.104
0.011
-0.075
0.069
-0.049
0.014
0.029
0.041
0.095
-0.021
0.003
-0.043
0.054
-0.003
0.005
0.059
0.006
0.010
0.040
0.029
0.026
-0.056
0.126
0.036
-0.049
0.012
0.005
0.083
0.035
0.034
-0.036
0.105
0.014
0.003
0.043
0.032
0.055
-0.096
0.082
0.028
0.035
-0.009
0.045
-0.037
-0.062
-0.011
0.025
-0.043
-0.018
0.029
0.000
0.068
0.010
0.056
0.016
0.151
0.044
-0.005
0.020
-0.083
0.051
0.078
-0.039
0.047
0.031
0.024
-0.007
0.007
0.005
0.085
0.063
0.029
0.034
-0.053
0.038
0.079
0.053
0.089
-0.040
-0.004
-0.021
0.019
-0.007
0.023
0.000
-0.002
0.076
0.034
-0.002
0.064
-0.065
0.085
-0.037
0.037
0.017
-0.020
-0.054
0.038
0.032
0.061
0.027
0.034
-0.006
0.014
0.054
0.007
0.085
-0.010
-0.000
0.073
0.042
0.025
0.009
0.037
0.064
0.028
0.043
-0.035
0.074
0.009
0.038
-0.035
0.028
0.031
0.066
-0.054
0.049
-0.009
-0.072
0.030
0.035
0.026
0.066
-0.026
0.048
0.004
0.002
0.006
0.080
0.018
-0.027
0.080
-0.101
0.079
-0.020
0.003
0.067
0.017
-0.029
0.038
0.038
-0.009
0.011
-0.027
0.013
0.101
-0.120
0.019
-0.023
0.072
0.005
0.058
0.020
0.011
-0.020
0.035
-0.096
0.035
0.135
0.025
0.130
-0.054
-0.082
0.062
0.005
0.061
0.062
0.005
0.053
0.022
-0.103
0.040
0.083
0.010
0.001
-0.033
-0.066
0.040
0.025
0.041
0.066
0.010
0.016
0.011
-0.069
0.024
-0.025
0.113
0.040
0.078
-0.101
0.009
0.097
0.014
-0.023
-0.002
0.051
0.036
0.000
-0.055
0.029
0.017
0.028
0.072
-0.006
-0.007
0.016
0.115
-0.071
-0.017
-0.027
0.072
0.008
-0.068
0.064
-0.034
0.003
0.017
0.043
0.137
-0.022
0.006
0.052
-0.036
0.041
-0.025
0.001
0.013
0.088
0.006
-0.056
-0.025
-0.009
0.032
0.042
0.046
-0.054
-0.043
0.032
0.118
0.081
-0.047
0.012
0.023
0.084
0.012
-0.008
-0.006
0.150
-0.043
0.009
0.026
-0.014
0.103
0.030
0.020
0.035
-0.078
0.003
0.054
-0.081
0.030
0.008
0.060
0.102
0.007
0.004
-0.009
0.008
0.036
0.008
0.117
0.084
-0.037
-0.025
-0.005
0.028
0.019
-0.009
0.014
0.043
0.023
0.059
0.066
0.003
-0.070
0.087
0.090
0.056
0.090
-0.007
0.068
0.079
0.011
0.035
0.011
-0.043
0.001
0.053
0.070
0.055
0.061
-0.019
-0.040
0.036
0.058
-0.006
0.045
0.053
0.071
0.067
-0.017
0.011
-0.134
0.022
0.014
0.084
-0.003
0.053
-0.000
-0.018
-0.062
0.092
0.038
0.011
-0.043
0.043
0.065
-0.019
0.104
-0.057
0.023
0.096
-0.046
0.027
0.070
0.019
0.018
0.029
0.002
-0.044
0.074
0.029
-0.050
0.116
0.014
-0.049
0.016
0.028
0.051
0.105
-0.047
-0.021
0.002
-0.006
0.035
0.020
0.039
-0.055
-0.037
0.039
-0.033
0.025
0.002
0.023
-0.043
0.053
0.044
-0.010
0.048
0.033
0.027
-0.027
-0.083
0.077
0.101
-0.011
0.015
0.031
-0.034
0.059
0.006
0.034
0.059
-0.031
0.043
-0.016
-0.010
0.051
-0.007
0.067
0.071
-0.007
-0.014
0.075
0.027
-0.030
-0.004
0.011
0.109
-0.051
0.068
-0.017
-0.082
-0.013
0.115
0.130
-0.073
-0.041
0.030
0.114
-0.070
-0.085
0.026
-0.008
0.046
0.071
0.026
0.077
-0.020
-0.031
0.007
-0.025
0.081
-0.011
0.099
-0.034
0.066
0.013
0.077
0.046
0.059
-0.102
0.021
0.072
-0.019
0.056
-0.032
0.109
0.023
-0.024
0.029
0.057
0.011
-0.074
-0.032
0.052
0.102
0.033
-0.019
0.048
-0.053
0.046
0.197
-0.031
0.029
-0.063
0.008
-0.036
0.005
0.069
-0.029
0.047
-0.006
0.082
-0.002
-0.083
0.122
0.113
0.152
-0.062
0.009
0.035
-0.079
0.070
-0.013
0.099
0.073
-0.004
-0.008
-0.068
0.070
-0.050
-0.063
0.108
0.060
0.020
0.064
-0.038
-0.011
-0.009
0.062
0.033
-0.051
0.053
0.027
0.065
-0.000
0.037
0.048
0.059
0.039
0.097
0.041
-0.057
0.075
-0.090
0.082
0.030
-0.038
0.067
0.013
-0.047
0.043
0.088
0.067
0.028
0.046
-0.033
0.025
-0.009
-0.003
0.071
-0.084
0.012
0.100
-0.001
-0.056
-0.026
0.055
-0.048
0.055
0.037
0.011
0.074
0.033
0.016
0.035
-0.011
-0.060
0.061
-0.057
0.014
0.035
0.010
0.121
0.085
-0.036
0.006
0.049
0.063
0.061
0.034
-0.075
0.044
0.023
0.065
0.018
-0.017
0.025
0.039
-0.014
0.086
-0.033
-0.029
-0.033
0.090
0.043
0.033
-0.038
0.075
0.024
0.027
-0.011
0.049
0.004
-0.074
0.143
-0.034
-0.020
0.081
-0.003
-0.002
-0.021
0.094
0.051
-0.054
0.015
0.046
0.020
0.005
0.023
0.037
0.016
0.035
0.002
0.044
-0.016
0.101
0.013
0.047
-0.097
0.021
-0.003
-0.022
0.016
0.112
-0.057
0.036
0.005
-0.012
0.109
-0.057
0.118
0.064
-0.021
-0.007
0.010
0.141
-0.058
0.029
0.041
-0.004
-0.137
0.031
0.172
0.011
0.081
0.000
0.037
-0.017
0.034
-0.100
0.071
-0.088
0.021
0.023
0.083
-0.044
-0.020
-0.002
0.094
0.045
0.031
0.040
-0.005
-0.041
0.078
0.176
-0.047
0.016
0.083
-0.023
0.005
-0.009
-0.067
0.084
0.069
0.052
0.088
0.001
-0.037
-0.052
0.080
0.025
-0.053
0.036
0.009
0.112
-0.052
-0.019
0.084
0.043
0.070
-0.037
0.050
-0.026
0.039
0.150
0.062
0.011
-0.022
-0.045
0.026
-0.030
0.145
0.042
0.057
-0.070
0.063
-0.063
-0.047
0.072
0.054
0.025
-0.063
0.186
-0.017
-0.063
0.028
0.041
-0.007
0.012
-0.025
0.045
0.056
-0.063
0.082
0.008
-0.023
-0.003
0.021
0.050
-0.011
-0.027
0.124
-0.043
0.049
-0.022
-0.014
0.087
0.128
-0.023
-0.036
0.055
-0.088
0.034
0.063
0.076
0.098
-0.067
0.092
-0.017
-0.012
-0.008
0.019
-0.064
-0.023
0.056
0.037
0.059
-0.042
0.108
-0.055
-0.049
0.037
0.043
0.070
0.071
-0.024
0.008
0.036
0.070
0.010
-0.037
-0.049
0.042
0.048
0.078
-0.058
-0.039
0.049
0.012
0.013
-0.006
0.022
-0.026
0.150
0.075
0.011
-0.024
-0.032
0.000
0.050
0.003
0.001
0.036
0.010
-0.001
-0.029
-0.058
0.104
0.053
-0.020
0.049
0.022
0.021
0.063
0.003
-0.017
0.071
0.078
0.045
0.094
-0.037
0.032
0.043
0.036
0.058
-0.047
-0.044
-0.021
0.006
0.022
-0.018
0.068
-0.056
-0.006
0.022
0.008
0.055
0.036
-0.099
-0.001
0.049
-0.015
0.082
0.006
0.054
-0.004
-0.056
0.016
0.086
-0.039
0.000
0.027
0.031
0.142
0.071
-0.019
-0.032
-0.138
0.019
0.082
0.046
0.140
-0.009
-0.082
-0.023
0.067
0.103
0.041
0.026
0.077
-0.067
-0.002
0.013
0.021
-0.064
0.045
0.129
-0.070
0.020
-0.005
-0.004
0.074
-0.022
0.081
0.054
-0.088
0.072
0.023
0.044
-0.026
-0.072
0.114
0.119
-0.030
0.005
0.033
-0.064
0.071
0.028
0.006
0.031
-0.048
0.032
0.063
0.091
-0.060
0.044
0.101
0.043
-0.117
-0.038
0.046
0.094
0.064
-0.014
-0.048
0.104
-0.027
-0.053
-0.045
0.026
-0.012
0.044
0.111
0.027
-0.005
-0.055
0.009
0.049
-0.005
0.059
0.129
-0.062
0.026
0.042
-0.015
0.029
0.024
0.003
-0.048
0.023
-0.059
-0.010
0.085
-0.010
-0.029
-0.029
0.011
0.055
0.002
0.089
-0.001
-0.009
0.085
-0.008
0.010
-0.049
0.110
0.014
0.005
0.040
0.004
0.050
-0.093
0.040
0.043
0.010
0.053
0.071
-0.006
-0.032
0.067
-0.071
-0.056
0.052
0.050
-0.031
0.031
0.053
0.041
0.074
-0.106
-0.015
0.001
0.058
0.015
0.069
0.066
0.020
0.009
0.016
-0.043
0.010
-0.002
0.117
0.004
-0.030
0.066
0.028
-0.041
-0.028
0.053
0.029
0.075
-0.039
-0.008
0.002
-0.076
-0.001
0.050
0.146
0.049
0.027
-0.030
-0.124
0.024
-0.035
0.061
0.012
0.061
-0.037
-0.012
-0.024
0.020
0.070
-0.043
0.015
-0.009
0.044
-0.047
0.024
-0.005
0.025
0.070
-0.038
0.046
0.073
-0.044
0.084
0.081
0.039
-0.011
-0.126
-0.003
0.039
0.078
0.012
-0.007
-0.008
-0.001
0.092
-0.062
-0.044
-0.056
0.054
0.089
0.050
-0.055
0.038
0.039
0.023
-0.050
0.035
-0.003
0.112
-0.033
0.071
-0.024
-0.014
0.123
0.030
0.077
-0.008
0.000
0.022
0.035
-0.024
-0.081
0.041
0.009
0.001
0.044
0.091
0.086
0.021
0.068
-0.044
-0.009
-0.065
0.002
0.150
0.121
0.060
0.069
-0.068
0.025
-0.012
0.056
0.031
-0.042
0.021
0.022
-0.006
0.118
0.037
0.024
0.060
0.083
0.009
-0.018
0.034
-0.074
0.032
0.063
-0.004
0.002
0.018
0.014
0.032
-0.021
0.011
-0.020
0.002
0.044
0.086
-0.032
-0.039
0.165
0.062
-0.067
-0.036
0.103
0.089
0.048
-0.034
-0.022
0.003
0.099
0.027
-0.045
0.114
0.062
-0.137
0.074
-0.022
0.029
0.005
-0.052
0.020
0.029
0.065
0.008
0.066
0.008
-0.048
0.016
-0.004
-0.013
-0.020
0.025
0.051
0.091
-0.045
-0.035
0.080
0.029
0.012
0.023
0.005
-0.001
0.044
-0.011
0.038
0.002
-0.050
0.032
0.017
0.078
0.002
-0.047
-0.020
0.038
0.127
-0.050
-0.009
0.055
0.076
-0.118
0.103
0.119
0.011
-0.059
0.026
0.012
0.054
0.004
-0.029
0.005
0.098
0.053
-0.017
-0.112
0.003
0.119
0.052
-0.075
-0.031
0.068
0.028
-0.045
0.017
-0.033
0.001
0.073
-0.062
-0.025
0.001
0.043
0.053
-0.033
-0.051
0.119
0.049
-0.089
-0.044
0.050
0.123
-0.003
-0.024
-0.031
0.028
-0.048
0.035
-0.015
0.114
0.097
-0.131
0.019
0.044
0.062
0.021
-0.039
0.001
0.011
0.065
0.049
0.004
-0.031
0.016
-0.018
-0.054
-0.007
-0.001
0.099
0.014
-0.026
0.009
-0.014
0.036
0.055
0.026
0.027
0.039
0.009
-0.022
0.075
0.007
-0.113
0.089
-0.025
-0.033
0.085
-0.019
0.118
-0.022
-0.075
0.037
0.027
0.009
-0.028
0.012
-0.001
-0.056
0.031
0.092
0.081
0.038
0.002
-0.034
-0.111
0.104
0.105
-0.047
-0.092
0.044
0.068
-0.007
-0.011
-0.064
0.068
0.060
-0.024
0.023
-0.081
0.081
0.038
0.057
0.003
0.049
0.079
-0.028
0.069
0.038
0.014
0.026
0.041
0.052
0.030
0.050
-0.011
-0.006
-0.007
-0.030
0.105
-0.028
-0.068
0.072
-0.006
-0.038
0.070
-0.020
0.063
0.013
0.041
0.087
-0.001
0.002
0.081
0.032
0.009
-0.051
0.019
0.129
0.012
-0.132
0.036
0.052
0.029
0.048
-0.022
0.031
0.076
-0.049
0.040
0.058
0.093
-0.057
-0.007
0.092
0.076
0.068
-0.034
0.075
-0.031
0.063
-0.048
-0.006
0.157
0.040
0.031
-0.035
0.003
0.029
-0.012
0.050
-0.013
0.127
-0.034
-0.050
0.006
0.037
0.038
-0.008
0.043
0.054
0.044
0.029
0.011
0.099
-0.043
-0.082
0.001
0.088
-0.061
0.070
-0.078
0.003
-0.010
0.132
0.085
-0.004
-0.079
0.138
0.013
-0.011
-0.020
-0.028
0.021
-0.020
0.066
-0.028
-0.021
0.014
-0.007
-0.019
-0.025
0.112
-0.005
0.030
0.038
0.004
0.020
0.013
0.051
-0.042
0.086
-0.034
0.038
0.013
-0.042
-0.003
0.047
0.091
0.076
0.003
-0.058
-0.002
0.045
0.026
0.032
-0.034
0.035
0.050
0.075
-0.088
-0.023
0.127
0.045
0.003
-0.004
0.006
0.024
0.045
0.044
-0.005
0.009
0.032
-0.083
-0.054
0.108
0.039
0.026
0.038
0.007
-0.043
0.006
-0.043
0.034
0.038
0.034
0.045
0.106
0.018
-0.016
0.111
0.076
0.031
0.027
-0.008
-0.011
0.003
-0.034
-0.023
0.107
0.049
0.007
0.048
0.022
-0.091
-0.001
0.024
-0.038
0.006
-0.037
0.084
0.015
0.040
0.066
0.082
-0.122
0.032
0.034
0.106
-0.055
-0.031
0.015
0.051
0.024
0.057
-0.116
0.048
0.036
0.068
-0.083
-0.113
0.013
-0.052
0.113
-0.020
-0.014
-0.029
0.027
0.079
0.032
-0.003
-0.001
-0.049
-0.058
0.113
0.041
0.015
0.009
-0.110
0.015
0.119
-0.039
0.018
0.030
-0.013
-0.000
0.098
-0.000
0.059
-0.051
-0.025
-0.042
-0.010
0.073
0.068
-0.011
-0.073
0.097
0.043
-0.096
-0.052
0.017
0.010
0.137
0.015
-0.053
-0.026
0.002
0.025
0.081
-0.076
0.055
-0.045
0.023
0.058
-0.040
0.028
-0.011
0.080
0.020
-0.030
-0.024
0.043
0.087
0.067
0.051
-0.064
-0.045
0.039
0.063
-0.029
-0.046
0.191
-0.026
-0.037
0.093
-0.010
0.036
0.041
-0.037
0.012
-0.057
-0.042
0.139
0.142
0.015
-0.023
-0.023
0.062
0.086
-0.042
-0.005
-0.004
0.004
0.068
0.010
0.029
-0.074
0.084
0.089
0.008
-0.001
0.052
0.053
0.036
0.036
-0.079
0.011
0.006
0.042
0.044
0.092
-0.019
-0.013
-0.096
0.021
0.085
-0.013
0.019
0.031
0.076
-0.053
0.049
0.018
-0.016
-0.035
0.049
0.067
-0.019
-0.033
-0.032
-0.094
0.059
0.137
0.011
-0.008
0.075
0.005
0.069
-0.010
0.064
0.082
-0.047
-0.009
0.017
0.047
-0.053
0.105
0.067
-0.024
0.004
0.020
0.065
0.067
0.102
-0.063
-0.010
0.021
-0.105
0.068
0.006
0.050
0.150
0.031
-0.113
0.012
0.003
-0.036
-0.043
0.139
0.044
0.009
-0.071
-0.032
0.024
0.060
0.050
-0.037
0.112
0.014
-0.035
-0.012
0.070
0.025
0.095
-0.013
-0.032
0.023
-0.035
0.027
0.105
-0.053
0.028
0.147
-0.039
0.013
0.077
-0.028
-0.011
0.081
0.031
0.031
-0.003
0.004
0.013
-0.010
-0.019
0.122
0.038
0.066
-0.125
0.113
0.048
0.071
-0.023
-0.060
0.095
0.053
-0.006
0.022
-0.015
-0.009
0.019
-0.050
-0.020
0.105
0.086
-0.030
0.042
-0.010
0.023
0.007
0.043
-0.022
0.040
-0.105
-0.008
0.044
0.028
0.078
-0.017
-0.019
-0.022
0.048
-0.086
0.050
-0.056
0.080
0.036
0.034
0.027
-0.003
0.084
-0.028
-0.020
-0.029
0.029
0.105
0.056
0.003
-0.001
-0.024
0.101
-0.024
0.031
0.037
-0.022
-0.006
-0.002
-0.009
-0.024
0.000
-0.027
0.046
0.084
-0.051
0.056
0.076
-0.009
0.002
0.109
0.058
-0.023
0.008
-0.064
-0.055
0.013
0.079
0.091
-0.022
-0.090
0.037
0.086
0.068
0.001
-0.059
-0.006
0.087
-0.119
0.000
-0.051
0.048
0.069
-0.028
0.012
0.086
-0.111
0.020
-0.076
-0.015
0.160
-0.006
-0.008
0.077
0.005
0.026
-0.011
0.025
0.158
0.033
-0.027
0.024
0.021
0.071
0.014
0.008
0.006
-0.021
0.081
0.030
-0.113
-0.012
0.039
0.029
-0.017
0.037
-0.002
0.002
0.055
0.022
-0.037
0.007
0.053
0.030
0.002
-0.021
-0.022
0.026
-0.045
0.039
0.015
0.005
-0.033
0.032
0.041
0.010
-0.049
0.016
0.034
0.086
-0.050
0.160
0.099
0.045
0.033
-0.072
-0.006
-0.011
0.076
0.112
0.006
0.027
0.041
-0.088
-0.017
0.034
0.068
0.007
0.039
-0.025
0.009
0.033
0.035
0.021
-0.063
0.064
0.087
0.006
-0.031
0.005
-0.015
0.005
0.111
0.061
0.063
0.100
0.002
-0.042
0.050
-0.007
-0.009
0.020
0.120
0.026
0.042
-0.039
0.072
-0.086
-0.080
0.033
0.054
0.056
0.010
-0.114
0.030
0.049
0.066
0.039
0.049
0.049
0.024
0.009
0.089
-0.010
0.033
0.034
0.016
-0.009
0.029
-0.003
0.009
-0.055
0.010
0.065
-0.013
0.077
0.062
0.052
-0.022
-0.064
-0.018
0.052
0.009
0.084
0.010
0.035
-0.007
-0.026
0.102
0.058
-0.077
-0.018
-0.068
0.084
-0.017
0.099
0.116
0.003
-0.011
-0.024
-0.057
-0.004
-0.003
0.002
0.018
-0.044
-0.011
0.069
-0.014
0.029
0.151
-0.019
-0.073
-0.006
-0.026
0.057
0.047
-0.022
0.073
-0.021
0.149
-0.074
0.079
-0.006
0.029
0.073
0.047
0.013
-0.020
0.034
-0.058
0.125
-0.049
0.053
-0.022
0.040
-0.013
-0.018
0.043
-0.010
-0.007
0.062
0.005
-0.039
0.037
0.068
0.056
0.025
0.015
0.030
0.007
-0.041
0.083
0.011
0.026
-0.004
0.079
0.077
-0.031
-0.027
-0.008
0.082
-0.087
0.063
-0.000
0.036
0.063
0.004
0.104
0.020
0.040
0.002
0.029
-0.032
0.107
-0.067
-0.025
0.081
0.011
0.092
-0.004
0.000
-0.009
0.019
0.044
0.062
-0.036
0.031
0.012
0.103
0.038
-0.078
-0.027
0.056
0.075
-0.025
0.000
0.055
0.052
0.023
0.003
-0.021
0.028
0.019
0.018
0.013
0.029
0.051
0.035
0.049
-0.011
0.150
-0.027
0.083
0.004
0.114
-0.036
0.047
0.066
-0.000
0.018
-0.004
-0.002
0.045
-0.023
0.006
0.053
-0.050
-0.067
-0.011
0.120
0.079
-0.057
0.021
-0.061
0.056
-0.035
-0.046
0.040
0.099
0.012
0.059
-0.032
0.103
-0.035
-0.043
0.089
-0.022
0.020
-0.010
0.051
0.044
0.030
0.047
0.033
-0.058
-0.013
0.075
0.045
0.066
0.012
-0.074
0.003
0.072
0.034
-0.055
0.054
-0.075
0.077
-0.025
0.036
0.162
0.014
-0.059
0.047
-0.032
0.033
-0.019
0.075
0.002
0.022
-0.002
0.038
-0.022
0.078
-0.020
-0.126
0.088
-0.037
-0.043
-0.005
0.044
-0.017
0.016
-0.003
0.028
0.118
0.016
0.026
-0.006
0.048
0.061
-0.057
0.012
0.051
0.012
0.063
0.053
0.006
-0.030
0.071
-0.081
0.063
0.080
-0.002
0.045
0.002
-0.025
0.019
-0.046
0.081
0.038
-0.047
-0.045
0.019
0.135
0.049
-0.088
-0.017
0.024
0.078
-0.016
-0.034
0.028
0.115
0.043
-0.034
0.069
0.059
-0.056
0.066
0.051
0.008
0.001
-0.047
0.086
-0.055
0.110
-0.005
0.004
-0.015
-0.019
0.093
-0.003
-0.044
0.005
-0.026
-0.096
0.079
0.062
0.083
-0.010
-0.010
-0.034
0.072
-0.059
0.075
0.026
0.042
0.055
0.049
-0.010
0.035
-0.022
0.072
0.011
0.109
-0.027
-0.038
0.041
-0.005
-0.015
-0.036
0.017
-0.021
0.124
-0.032
-0.047
0.006
-0.001
0.051
0.061
0.006
0.092
-0.032
-0.057
-0.039
0.013
0.055
0.045
0.039
0.006
0.134
-0.002
0.027
0.012
0.047
-0.017
-0.033
-0.039
0.065
-0.003
0.040
0.105
-0.041
0.018
0.101
0.020
0.011
0.092
-0.020
-0.057
0.063
-0.056
0.038
-0.002
0.036
0.023
0.018
0.048
0.067
-0.054
0.015
0.010
0.068
0.069
-0.119
0.047
0.058
-0.061
0.074
0.063
-0.040
0.098
-0.016
0.005
0.061
0.049
0.074
-0.003
0.089
-0.013
-0.063
-0.011
-0.010
0.072
-0.028
0.026
0.014
-0.104
0.038
0.092
-0.029
-0.032
0.077
0.048
0.052
0.052
0.023
0.003
0.028
0.004
-0.022
0.016
0.068
0.047
-0.026
0.000
0.031
0.028
0.022
-0.007
-0.019
-0.046
-0.005
0.136
0.036
-0.104
0.058
0.031
0.063
-0.007
-0.001
0.038
-0.062
0.100
0.039
-0.042
0.064
0.059
-0.031
0.012
0.022
0.044
0.027
0.006
0.002
0.036
0.059
-0.006
0.115
-0.026
0.087
0.036
-0.096
-0.049
0.033
0.016
0.001
-0.001
0.120
0.090
-0.095
-0.004
-0.076
0.043
0.085
0.038
0.039
0.004
0.003
-0.026
0.005
0.045
0.044
0.126
-0.022
0.120
0.032
0.000
0.020
-0.024
0.026
-0.046
0.069
0.075
0.118
-0.051
0.059
-0.006
0.067
0.003
-0.024
0.036
0.026
0.033
-0.010
0.073
0.056
0.040
0.050
-0.069
-0.020
0.026
0.035
-0.019
0.092
0.075
-0.094
0.003
0.002
-0.011
0.035
0.037
-0.038
-0.011
-0.050
-0.054
0.036
0.085
0.084
0.005
0.009
0.193
-0.044
0.072
-0.130
0.023
0.010
0.134
0.054
-0.044
-0.058
0.045
-0.075
0.078
0.008
0.032
0.020
0.067
-0.058
-0.083
0.081
0.023
-0.009
0.040
0.048
0.008
0.024
0.054
-0.096
-0.061
0.078
0.051
0.031
0.032
0.046
-0.034
-0.031
-0.080
0.084
0.113
-0.002
0.023
-0.004
0.025
0.044
-0.032
0.011
0.076
0.029
-0.063
0.046
0.029
-0.015
0.090
0.002
0.065
-0.050
0.019
0.037
-0.006
0.068
-0.029
0.029
0.038
0.115
-0.017
-0.016
0.050
0.026
0.041
-0.060
0.025
-0.032
0.074
0.001
0.063
0.010
-0.008
-0.014
-0.041
0.074
0.124
0.068
0.041
-0.063
-0.046
0.075
0.027
0.057
0.016
-0.039
0.009
0.013
0.025
0.032
0.068
0.004
0.004
0.107
-0.046
-0.033
0.060
0.054
0.105
-0.042
-0.063
0.111
-0.004
0.003
-0.010
0.003
-0.053
-0.014
-0.027
0.062
-0.028
0.026
0.064
0.046
-0.012
0.033
-0.083
0.005
-0.055
0.048
0.072
0.063
0.031
-0.106
0.102
-0.102
-0.050
0.032
0.060
0.094
0.006
0.018
-0.080
-0.002
-0.019
0.089
0.024
-0.061
0.009
0.045
-0.005
0.057
-0.037
-0.009
0.085
0.034
-0.023
-0.022
-0.030
0.030
0.032
0.042
-0.061
-0.082
-0.021
0.117
-0.065
0.168
0.001
-0.026
-0.006
0.015
0.096
0.065
0.014
0.048
-0.078
0.091
0.038
0.020
-0.002
0.072
-0.029
0.071
-0.037
0.067
0.008
-0.015
0.094
0.003
0.115
-0.034
-0.008
-0.056
-0.034
0.005
-0.004
0.042
0.113
-0.021
-0.036
0.001
-0.045
0.022
0.081
0.025
0.041
0.059
0.031
0.105
-0.019
0.058
0.085
-0.052
-0.031
0.058
-0.035
-0.045
0.021
0.074
-0.010
-0.001
0.014
-0.008
0.088
0.054
0.125
0.027
0.021
-0.018
-0.035
0.016
0.119
-0.002
-0.030
-0.069
-0.042
0.112
0.057
0.017
0.052
-0.083
-0.004
0.097
0.069
0.022
0.007
-0.022
-0.010
-0.040
0.049
0.007
0.036
0.060
0.110
0.009
0.010
-0.014
0.046
-0.044
-0.014
0.051
-0.010
0.012
-0.031
0.036
0.091
0.038
-0.134
-0.010
0.037
0.021
0.148
-0.097
0.000
0.127
0.118
-0.060
0.067
-0.027
-0.044
0.041
0.038
0.047
0.066
-0.013
-0.010
0.010
0.050
-0.047
0.042
0.062
-0.002
-0.019
-0.023
0.062
0.016
0.040
0.020
-0.018
-0.036
0.053
0.058
0.017
0.068
-0.116
-0.013
-0.028
0.148
0.115
-0.024
-0.111
0.038
0.068
0.055
-0.027
0.025
-0.055
0.058
0.067
-0.112
-0.046
0.076
0.022
-0.031
-0.012
-0.001
0.035
-0.033
0.004
0.043
0.033
0.051
-0.089
0.036
-0.032
0.065
0.061
-0.081
0.075
-0.057
0.040
0.086
-0.006
-0.003
-0.080
0.023
-0.093
0.028
0.026
-0.003
0.025
-0.022
-0.006
0.002
0.029
0.019
0.044
0.111
-0.051
-0.023
0.107
0.026
-0.028
0.033
0.102
0.028
0.041
0.042
-0.088
-0.003
0.014
0.014
0.077
-0.033
0.112
-0.035
0.021
-0.050
0.083
0.041
0.000
-0.029
0.048
0.081
0.012
0.020
0.020
-0.002
0.004
0.060
-0.012
0.040
0.016
-0.048
-0.075
0.054
0.071
0.028
-0.029
-0.042
0.093
0.113
-0.049
0.082
0.064
0.013
-0.056
0.023
0.019
0.005
0.049
0.048
0.123
0.040
0.000
0.069
-0.035
0.006
0.068
0.089
-0.109
-0.072
0.089
0.000
0.006
0.048
0.005
0.023
0.023
0.157
-0.041
-0.016
-0.001
0.001
0.031
0.052
0.015
0.006
0.096
-0.071
0.010
0.080
0.010
0.015
-0.034
0.000
-0.091
0.006
0.045
0.153
-0.008
0.012
-0.035
0.000
0.066
0.007
-0.044
-0.014
0.021
-0.021
0.056
0.103
0.002
0.006
-0.021
0.066
-0.008
0.068
-0.090
0.023
-0.050
0.126
0.006
0.003
0.009
-0.031
0.024
-0.031
0.102
0.142
0.029
0.043
-0.045
0.013
-0.040
0.106
0.081
0.034
0.054
0.064
-0.037
0.002
-0.087
0.077
0.004
0.007
-0.025
-0.024
0.030
0.040
0.024
-0.082
0.049
0.186
0.017
0.066
0.000
-0.015
0.052
0.060
0.024
0.006
0.050
0.009
0.020
-0.026
0.001
0.060
-0.088
-0.028
-0.064
0.125
0.026
-0.005
0.069
0.007
0.026
-0.021
-0.000
0.123
-0.063
0.113
-0.019
-0.026
0.004
0.118
0.004
0.097
-0.087
0.009
0.037
0.038
0.018
-0.004
-0.004
0.045
0.086
0.080
-0.159
0.038
0.089
0.014
-0.000
-0.041
-0.015
-0.023
0.007
-0.008
0.085
-0.001
-0.064
0.093
0.063
-0.003
0.093
0.068
-0.093
-0.063
0.035
0.056
0.077
0.049
-0.033
0.080
0.022
-0.005
-0.003
0.011
0.057
0.068
0.030
-0.102
0.019
0.015
-0.035
0.033
0.021
0.086
0.048
0.051
-0.115
0.050
0.006
-0.022
0.041
0.016
0.047
0.039
0.042
-0.061
0.054
0.026
-0.089
0.041
0.028
0.091
-0.046
-0.036
0.126
0.080
0.105
-0.031
0.084
0.010
0.038
-0.024
-0.018
0.013
-0.010
0.089
0.037
-0.006
0.025
-0.077
0.070
0.048
0.163
-0.006
0.053
-0.057
0.047
0.063
-0.109
0.117
0.046
-0.048
0.072
0.048
-0.052
-0.017
0.046
-0.037
-0.014
0.029
0.074
0.073
0.090
0.017
-0.076
0.006
0.061
0.052
0.025
-0.019
0.104
0.030
0.023
-0.046
-0.032
-0.040
0.034
-0.012
0.023
0.013
-0.019
0.015
0.124
0.048
0.005
-0.030
0.037
0.122
-0.032
0.012
-0.104
0.085
0.109
-0.063
0.023
0.061
0.098
0.056
-0.081
0.008
0.153
-0.031
0.006
-0.001
0.072
0.068
-0.077
-0.012
0.022
0.111
0.006
-0.062
-0.033
0.046
0.095
0.066
-0.130
0.022
0.046
0.027
0.047
0.021
-0.040
0.013
0.023
0.138
-0.071
-0.011
0.039
-0.049
0.058
0.057
0.004
0.034
-0.020
-0.004
-0.069
0.001
0.044
0.161
-0.042
-0.032
-0.031
-0.009
0.073
0.090
0.020
0.114
0.039
-0.046
0.013
0.030
0.097
0.080
-0.045
0.083
0.068
-0.045
0.072
-0.050
-0.080
-0.051
0.021
0.050
0.067
-0.054
0.037
-0.019
-0.069
0.010
0.117
0.025
0.016
-0.050
0.023
0.057
0.098
-0.099
0.035
0.056
0.033
-0.025
-0.034
0.017
0.145
0.028
0.023
0.047
-0.005
0.042
-0.072
-0.003
0.035
0.093
-0.019
0.002
-0.066
-0.038
0.092
0.043
0.038
-0.022
0.086
0.061
0.055
0.020
-0.016
-0.000
0.034
-0.015
-0.069
0.051
-0.072
0.013
0.025
0.103
-0.013
-0.006
0.101
-0.051
0.022
0.054
0.011
-0.021
-0.044
0.062
0.046
-0.025
0.088
0.020
0.011
-0.089
0.111
-0.065
0.025
-0.033
0.034
0.047
0.057
0.006
-0.023
0.018
0.043
-0.044
0.112
-0.050
0.081
0.081
0.112
-0.037
0.025
0.049
-0.076
-0.057
0.060
0.047
-0.034
0.046
0.014
0.059
0.010
-0.009
-0.042
-0.039
0.041
0.079
0.024
-0.016
-0.022
0.039
-0.010
-0.011
0.044
0.006
-0.038
0.040
0.032
0.080
0.027
-0.103
0.045
0.020
-0.053
-0.035
0.023
0.077
0.076
-0.011
-0.023
-0.056
0.000
0.114
-0.043
0.101
0.045
0.005
0.060
0.055
0.026
-0.040
0.027
-0.038
0.073
0.074
0.044
-0.013
-0.115
0.120
0.042
0.069
-0.074
-0.064
0.044
-0.033
0.036
0.059
-0.147
0.047
-0.016
0.086
0.103
0.027
-0.061
0.012
0.068
0.032
-0.037
0.007
0.055
-0.026
0.083
-0.026
-0.096
0.030
-0.028
0.071
0.000
0.109
-0.098
-0.109
0.020
0.031
0.101
0.018
0.033
0.046
-0.036
0.029
-0.025
-0.002
0.119
-0.029
0.014
-0.016
0.012
0.004
0.113
0.132
-0.039
-0.051
0.011
0.093
-0.002
0.031
0.003
0.047
-0.002
0.068
0.014
0.105
0.004
-0.013
-0.124
0.040
0.042
0.069
0.064
-0.014
0.005
-0.015
-0.029
0.006
0.091
0.075
-0.030
-0.024
-0.013
0.066
-0.026
0.022
0.112
0.011
0.027
-0.079
-0.052
0.046
-0.053
0.095
0.117
-0.039
0.026
0.004
0.005
0.039
0.045
0.092
-0.005
0.056
0.083
-0.063
-0.016
0.116
-0.077
0.064
-0.005
0.068
0.080
0.010
-0.011
0.001
0.003
0.079
-0.008
0.012
-0.067
0.094
0.082
0.005
0.004
0.038
0.025
-0.029
0.104
-0.057
-0.034
0.071
0.084
0.068
0.006
0.011
-0.098
0.004
0.162
-0.052
0.055
-0.009
-0.003
-0.014
-0.012
0.033
0.006
-0.015
0.011
-0.041
0.024
0.031
-0.026
0.031
0.055
0.021
-0.034
-0.050
-0.041
0.111
0.043
0.020
-0.073
-0.010
0.063
-0.047
0.004
0.023
0.027
0.031
0.073
0.005
-0.016
-0.044
0.115
-0.090
0.010
0.039
0.041
0.037
-0.011
0.008
-0.014
0.046
0.052
0.032
0.048
-0.032
0.102
-0.002
0.014
-0.009
-0.103
0.048
-0.035
-0.011
0.052
-0.000
-0.077
0.025
0.127
0.069
-0.002
-0.097
0.036
0.070
-0.012
-0.008
0.017
0.029
-0.009
-0.008
0.005
0.004
0.014
-0.073
0.045
0.038
0.082
-0.072
0.026
-0.082
0.018
0.135
0.054
-0.003
0.039
0.011
-0.042
-0.037
-0.018
0.026
0.138
0.021
-0.055
0.033
-0.002
0.062
0.067
0.052
-0.037
-0.022
-0.016
0.044
0.096
-0.028
0.007
0.060
-0.017
0.053
-0.039
-0.018
0.065
0.010
0.019
0.075
-0.067
-0.008
0.055
0.007
-0.030
0.028
-0.009
0.009
0.056
0.008
0.042
0.012
0.030
0.019
-0.053
0.147
0.030
-0.078
0.005
0.069
0.004
-0.045
0.088
-0.063
0.027
0.025
0.008
0.036
-0.005
-0.027
0.018
0.095
-0.016
-0.082
0.046
-0.038
0.009
0.056
0.023
-0.012
0.052
0.082
-0.058
0.050
0.061
0.092
-0.039
0.002
0.005
0.021
-0.036
0.110
-0.010
0.041
0.039
0.019
0.031
0.000
0.126
-0.004
-0.049
0.021
0.031
0.164
0.000
-0.024
-0.049
0.005
0.099
-0.019
0.047
-0.018
-0.010
0.086
0.062
-0.042
0.099
0.033
-0.025
0.084
0.052
-0.006
0.000
0.018
0.057
0.019
0.075
-0.001
-0.079
-0.024
0.001
0.157
0.154
-0.010
0.046
0.024
-0.062
-0.084
-0.000
0.083
0.005
0.037
0.141
0.002
0.031
0.026
-0.014
0.032
-0.046
0.081
0.007
0.084
0.012
0.037
-0.068
0.023
-0.005
0.048
0.012
0.001
0.063
0.072
0.024
-0.040
0.060
0.010
0.032
0.026
-0.033
0.057
0.049
0.010
0.026
0.048
0.061
0.069
-0.080
-0.061
0.072
0.051
-0.022
-0.042
0.004
0.079
0.116
0.007
-0.038
-0.057
0.011
0.096
0.030
-0.015
-0.054
-0.010
0.138
-0.066
0.080
-0.048
0.016
-0.028
-0.047
0.022
0.040
0.046
0.027
-0.036
0.072
-0.001
0.009
-0.006
0.037
0.067
0.052
-0.011
-0.058
0.031
0.047
0.010
0.068
0.082
-0.032
-0.040
-0.032
0.077
0.037
-0.060
-0.030
-0.006
0.071
0.095
-0.050
-0.023
-0.047
0.135
-0.028
-0.026
0.105
-0.003
-0.004
-0.006
-0.052
0.138
0.084
-0.025
0.011
-0.040
-0.041
0.074
0.053
-0.001
-0.043
0.014
-0.012
0.020
-0.004
0.101
0.045
0.038
-0.030
0.015
0.009
0.028
-0.015
0.043
-0.047
0.066
0.030
-0.036
-0.046
-0.003
0.007
0.087
0.052
-0.031
-0.026
0.079
0.054
0.029
-0.077
0.067
-0.000
0.024
0.001
0.038
0.054
0.009
0.026
-0.026
0.036
0.093
-0.088
-0.018
0.101
-0.007
-0.059
-0.015
0.005
0.074
-0.003
0.039
0.039
0.043
0.022
-0.006
-0.029
0.019
0.038
0.006
0.098
-0.049
0.077
0.043
-0.031
0.134
-0.112
0.060
0.039
0.157
-0.082
0.045
0.028
0.012
-0.040
0.003
-0.036
-0.113
0.106
-0.019
0.042
0.077
0.047
-0.016
0.014
0.024
0.030
0.065
-0.021
0.043
0.084
-0.003
-0.002
-0.056
0.137
-0.008
0.025
-0.010
-0.005
0.034
-0.060
-0.021
-0.022
0.132
0.012
0.030
-0.066
-0.010
0.010
0.048
0.073
-0.013
0.044
0.042
-0.014
-0.013
-0.040
0.038
-0.000
0.080
-0.120
-0.043
0.071
0.007
0.045
0.007
0.023
0.058
0.071
0.071
-0.068
-0.010
-0.000
0.109
-0.040
-0.045
-0.005
0.039
0.007
0.135
-0.064
-0.002
-0.055
0.013
0.055
0.022
0.043
0.037
-0.028
-0.055
0.007
0.165
0.060
-0.039
0.099
-0.021
-0.013
-0.008
0.084
0.004
0.033
0.114
-0.026
-0.055
0.015
-0.007
0.102
0.024
0.055
0.031
0.049
-0.028
0.043
0.005
0.050
0.003
0.035
0.008
0.057
0.128
-0.032
0.049
-0.011
-0.021
-0.001
0.011
0.104
-0.073
-0.040
0.070
0.043
0.083
-0.067
0.031
0.007
-0.040
0.050
0.062
-0.002
0.029
0.034
0.033
0.025
0.069
0.015
0.011
0.012
-0.073
0.055
0.039
0.000
0.035
0.079
-0.019
-0.039
-0.041
-0.020
0.045
-0.103
0.058
0.096
0.067
0.035
0.020
0.030
-0.009
-0.020
0.108
-0.035
0.067
-0.069
0.031
0.011
-0.008
-0.023
0.026
-0.011
-0.051
-0.038
-0.063
0.036
0.002
0.023
-0.057
0.031
0.119
0.043
-0.068
0.009
-0.019
0.017
0.001
-0.029
-0.014
0.048
0.029
0.014
0.018
-0.021
0.050
0.027
0.022
-0.015
-0.040
0.090
-0.019
-0.006
-0.073
0.039
0.109
-0.072
-0.022
0.030
0.093
-0.037
0.029
0.019
0.005
0.059
0.039
0.077
0.089
0.017
-0.006
0.077
0.035
0.007
0.031
-0.079
0.066
0.027
-0.004
-0.012
0.043
0.057
0.073
-0.080
0.110
-0.038
-0.038
0.013
0.002
0.080
-0.089
0.042
-0.087
0.145
-0.047
0.062
0.049
0.050
0.016
0.073
-0.066
0.075
0.085
-0.026
0.085
0.006
-0.025
0.052
0.053
0.045
0.028
-0.028
-0.059
-0.032
0.025
0.024
0.039
-0.011
0.058
-0.042
-0.037
-0.022
-0.007
0.030
0.077
0.104
0.003
0.005
-0.108
0.081
-0.020
-0.029
0.002
0.098
0.088
-0.028
0.127
0.002
-0.085
0.093
0.007
0.024
0.015
-0.070
-0.020
-0.030
0.126
0.070
-0.046
-0.014
0.076
0.014
-0.007
-0.066
-0.002
0.071
0.048
-0.101
0.028
0.081
0.070
-0.010
0.009
0.032
-0.027
0.038
0.042
0.033
-0.026
-0.005
0.085
-0.009
0.032
-0.013
0.027
0.014
-0.020
-0.020
0.091
0.048
0.021
0.005
0.105
0.074
-0.024
0.079
0.029
0.023
0.099
0.009
-0.085
-0.058
0.040
0.042
0.051
-0.025
0.036
0.038
0.036
0.025
0.040
0.021
0.073
0.075
0.050
0.047
0.025
0.027
0.012
0.045
0.205
-0.056
0.000
-0.023
0.008
-0.044
0.064
0.056
0.095
0.039
0.019
-0.042
-0.013
-0.017
0.037
0.002
0.030
0.119
0.030
-0.092
0.003
0.056
0.104
-0.027
0.052
0.062
-0.035
0.008
0.012
0.116
0.064
-0.017
-0.019
0.016
0.026
-0.002
0.104
-0.020
0.113
0.033
-0.023
-0.089
-0.015
-0.083
0.120
0.077
0.081
-0.035
0.035
0.026
0.039
0.019
-0.071
-0.017
0.016
0.100
0.059
0.046
-0.041
0.029
-0.042
0.051
0.053
-0.061
0.026
0.095
-0.039
-0.092
0.081
0.073
-0.033
0.054
-0.008
0.000
-0.070
0.083
-0.035
0.067
0.005
0.058
-0.043
0.048
0.058
-0.033
0.012
-0.009
0.042
0.042
-0.033
0.022
0.054
-0.018
-0.002
-0.029
-0.025
0.061
0.021
0.020
0.039
0.000
-0.028
0.064
-0.018
0.061
0.058
-0.012
0.076
-0.007
-0.003
0.041
-0.022
0.014
0.043
0.076
-0.033
-0.046
-0.038
0.091
-0.006
-0.060
0.024
0.068
-0.116
0.019
-0.036
0.078
0.046
0.020
-0.013
0.123
0.081
0.004
0.059
-0.026
0.022
0.027
-0.035
0.042
0.106
0.088
0.066
-0.005
-0.080
0.047
0.069
0.012
-0.045
0.004
0.014
0.019
0.017
-0.007
-0.012
-0.060
0.031
0.029
0.059
-0.009
-0.004
0.043
-0.004
-0.026
-0.062
0.100
0.064
0.024
0.062
0.071
0.051
-0.076
-0.007
-0.001
0.045
-0.033
0.062
0.033
0.034
-0.040
0.041
-0.097
0.015
0.086
0.041
-0.007
0.051
0.077
0.124
-0.091
-0.040
0.100
0.031
0.041
0.030
-0.023
0.073
-0.001
0.066
0.015
-0.058
-0.057
0.062
0.112
-0.037
-0.012
-0.021
0.058
0.041
-0.026
0.036
0.028
-0.014
0.064
0.022
-0.030
0.023
-0.020
0.045
-0.003
-0.012
-0.086
-0.000
-0.019
0.166
-0.040
-0.009
0.017
0.007
0.113
0.001
0.004
0.014
0.076
-0.002
-0.042
0.016
0.086
0.036
-0.018
0.024
0.011
0.008
0.041
0.044
0.010
-0.010
0.036
-0.031
0.052
0.104
0.051
-0.063
-0.099
-0.002
0.083
0.081
-0.016
-0.010
-0.043
0.010
0.123
0.107
0.049
-0.068
-0.033
0.069
0.163
-0.027
-0.082
0.034
0.073
0.038
-0.022
-0.008
-0.043
0.019
0.072
0.041
-0.018
-0.033
0.066
-0.031
0.021
0.112
-0.104
0.033
0.008
-0.038
0.072
-0.029
0.042
0.040
0.081
-0.001
0.076
-0.027
0.068
-0.088
-0.026
0.033
0.113
-0.018
0.004
-0.067
0.127
0.077
0.021
0.017
0.141
0.027
-0.072
0.010
0.044
-0.017
-0.022
0.195
-0.045
0.048
0.031
0.020
0.002
0.084
-0.127
-0.018
0.055
0.005
0.032
-0.007
-0.001
0.044
0.045
-0.001
-0.029
0.052
0.056
0.054
0.034
0.061
-0.132
0.028
-0.019
0.030
0.089
0.019
0.040
0.109
-0.008
0.001
-0.056
-0.025
-0.039
-0.047
0.043
0.131
0.034
-0.039
0.125
-0.055
0.005
0.066
0.027
-0.028
0.046
-0.039
-0.051
0.053
-0.008
0.108
0.040
-0.021
0.043
0.114
-0.101
-0.005
0.055
0.064
-0.090
0.018
-0.016
0.036
0.081
0.105
-0.044
0.029
0.076
0.043
-0.037
0.022
-0.019
0.029
-0.015
0.024
0.132
0.071
-0.072
0.008
-0.093
0.041
0.051
-0.010
0.029
0.004
-0.018
0.003
-0.033
0.053
-0.089
0.013
0.073
0.023
0.068
0.037
0.001
-0.043
-0.034
-0.051
0.119
0.090
0.067
0.101
-0.094
0.024
-0.046
0.071
-0.019
-0.051
0.037
0.071
0.036
0.030
0.027
-0.022
0.018
-0.005
-0.059
0.156
0.090
0.041
-0.066
-0.042
-0.010
0.076
0.071
-0.001
-0.010
-0.048
0.060
0.017
0.011
-0.029
0.050
0.039
-0.039
0.058
0.049
0.038
-0.025
0.075
0.069
-0.047
-0.010
-0.078
0.050
0.020
0.002
0.043
0.027
0.093
0.020
0.051
-0.049
0.018
0.015
0.025
0.004
0.104
0.003
0.042
0.009
0.074
-0.069
-0.007
0.028
-0.055
0.039
0.037
0.004
0.056
0.106
-0.002
-0.006
0.029
-0.026
0.043
0.002
0.086
0.037
-0.100
0.077
-0.047
0.036
0.007
0.049
0.032
0.059
-0.015
-0.014
-0.034
0.018
0.118
-0.050
-0.051
-0.029
0.108
0.033
-0.092
0.066
0.067
0.025
-0.022
-0.040
0.039
-0.041
0.011
0.012
0.036
0.085
-0.011
0.039
0.066
0.001
-0.014
-0.012
0.106
0.025
0.008
-0.074
0.054
-0.037
0.027
0.071
-0.086
0.064
0.112
-0.053
-0.095
0.121
0.012
0.028
0.044
0.006
0.006
0.045
0.097
-0.005
-0.018
0.046
0.086
-0.042
0.032
0.047
0.012
-0.028
0.026
-0.022
-0.040
0.035
-0.003
0.049
0.028
0.003
0.034
0.019
0.007
0.018
-0.002
0.072
0.012
0.010
0.073
0.011
0.027
0.096
0.001
0.026
0.083
0.048
-0.018
-0.067
-0.009
0.015
0.081
0.024
0.078
0.010
-0.020
-0.093
0.038
0.121
-0.072
-0.060
0.068
0.012
0.022
0.052
0.033
0.010
-0.002
-0.054
0.180
0.085
-0.002
-0.015
-0.007
0.028
0.089
-0.030
0.040
-0.002
-0.087
0.036
-0.029
0.023
0.076
-0.035
-0.050
0.088
-0.060
-0.029
-0.017
0.049
0.065
0.042
0.051
0.083
0.013
-0.025
-0.042
0.015
-0.000
0.033
0.016
-0.006
-0.006
-0.023
0.061
0.022
-0.005
-0.032
-0.022
-0.067
0.066
0.009
0.073
0.012
-0.043
0.055
-0.025
-0.000
0.008
0.108
0.012
0.027
-0.047
0.021
-0.042
0.087
0.129
0.048
0.013
-0.022
0.035
0.000
0.004
0.017
0.010
0.127
-0.013
0.021
-0.033
0.104
-0.012
0.101
-0.010
0.075
0.060
0.031
0.056
-0.036
-0.093
0.041
-0.024
-0.052
0.024
0.064
0.073
0.064
-0.015
-0.009
-0.054
0.012
-0.037
0.056
0.033
-0.068
0.046
0.039
0.058
0.015
-0.004
0.035
0.022
-0.019
-0.034
0.014
-0.025
0.087
0.065
0.063
0.049
-0.031
-0.013
0.080
0.041
0.083
0.066
-0.087
0.023
0.031
-0.072
0.081
0.048
-0.019
0.050
-0.016
-0.071
0.002
0.018
0.044
-0.055
0.036
-0.095
0.143
-0.078
-0.014
0.028
0.025
0.057
0.027
0.000
0.036
0.008
0.004
-0.087
0.044
-0.055
0.132
0.007
0.028
0.045
0.010
0.001
-0.014
-0.038
-0.012
0.052
-0.037
0.008
-0.013
0.004
0.057
-0.023
-0.072
0.004
0.043
0.057
0.003
-0.029
0.058
0.093
0.013
-0.020
-0.015
-0.026
-0.052
-0.006
0.133
0.053
-0.030
-0.055
0.016
-0.026
0.018
0.092
0.012
0.035
-0.031
0.013
-0.001
0.034
0.167
-0.065
0.099
-0.008
0.015
0.112
-0.043
-0.044
0.012
0.035
0.031
0.009
0.073
-0.006
0.053
0.043
0.023
0.047
-0.009
0.010
0.004
-0.030
-0.046
0.105
-0.089
0.004
0.006
0.023
0.056
0.079
0.021
-0.139
0.042
0.125
0.051
0.058
-0.034
-0.000
0.044
0.034
0.030
0.028
0.063
0.019
0.093
-0.013
0.007
0.005
-0.018
0.062
-0.001
0.100
-0.058
0.058
-0.027
0.054
0.079
-0.033
-0.063
0.137
0.003
-0.071
-0.039
0.067
-0.027
0.119
-0.005
0.126
0.019
-0.118
0.077
0.032
0.060
0.060
-0.026
0.042
0.020
0.039
0.034
-0.099
0.013
0.057
0.038
0.016
-0.027
-0.035
0.047
0.006
0.077
0.065
-0.038
0.055
0.029
-0.027
0.047
-0.081
0.031
0.136
0.057
-0.008
-0.061
0.061
-0.100
0.038
0.053
0.060
0.027
-0.033
-0.054
0.097
-0.026
-0.034
-0.029
0.013
-0.018
0.036
0.123
-0.009
0.004
-0.064
-0.016
0.098
0.105
0.135
0.007
-0.050
0.056
0.045
-0.038
-0.009
0.110
-0.104
0.058
0.089
-0.036
-0.025
0.000
0.040
-0.028
0.011
0.069
-0.004
-0.014
0.129
0.029
-0.019
-0.013
0.020
-0.038
0.061
-0.099
0.153
0.046
-0.043
-0.005
0.040
0.069
0.090
-0.038
0.151
0.053
-0.018
0.009
-0.057
-0.005
0.037
0.056
0.028
-0.085
-0.009
-0.015
0.021
0.088
-0.005
0.001
0.031
0.020
0.043
0.015
0.060
-0.032
0.014
-0.023
0.033
0.014
0.157
-0.018
-0.021
0.086
-0.047
-0.028
0.042
0.048
0.043
-0.003
-0.087
0.033
0.082
-0.000
0.009
0.072
0.042
0.015
0.046
-0.043
0.074
-0.011
0.041
0.004
0.012
-0.043
0.088
-0.006
0.127
0.017
-0.040
-0.008
-0.017
0.052
-0.030
0.075
-0.006
-0.008
0.055
0.034
0.022
-0.006
0.117
-0.041
-0.082
0.045
0.031
0.050
-0.012
0.001
0.015
0.019
0.016
-0.013
0.007
0.117
-0.037
-0.053
0.055
0.155
0.015
0.090
-0.015
-0.043
-0.028
-0.069
0.059
0.088
0.025
0.109
0.012
0.002
0.003
-0.016
-0.103
0.018
0.044
0.043
0.078
0.041
-0.048
-0.054
0.056
0.030
0.016
0.030
0.109
0.097
0.059
-0.084
-0.020
0.035
0.055
-0.092
0.045
0.070
0.150
-0.052
0.002
-0.029
0.008
-0.009
-0.034
0.055
-0.003
-0.042
0.068
0.055
-0.006
0.021
-0.015
0.095
-0.023
-0.063
0.073
0.070
0.050
-0.088
-0.078
0.085
0.046
0.059
0.047
-0.051
-0.064
0.036
-0.014
0.061
0.029
0.020
0.089
0.040
-0.101
0.041
0.136
0.033
0.027
0.045
0.037
-0.062
-0.053
0.026
0.061
-0.009
0.054
0.011
0.023
0.029
-0.024
-0.094
-0.003
0.047
0.038
0.028
-0.005
0.058
-0.018
0.048
0.056
0.021
0.004
0.035
0.051
0.005
0.047
-0.013
0.036
0.053
0.029
-0.079
-0.034
-0.005
0.059
-0.000
0.048
0.009
0.055
0.038
-0.042
0.043
0.070
0.016
-0.003
0.032
0.013
0.047
-0.033
0.051
-0.028
0.079
0.034
-0.035
-0.009
0.071
-0.022
0.012
0.013
-0.031
0.055
-0.029
0.047
0.062
-0.059
0.044
0.028
0.065
0.062
0.010
-0.039
0.053
-0.077
-0.013
0.113
-0.063
0.026
-0.031
0.031
0.023
0.130
0.052
-0.005
0.084
-0.112
0.058
0.083
0.009
-0.033
-0.047
0.111
-0.046
-0.037
-0.086
0.035
0.115
0.099
0.038
-0.086
-0.064
0.030
0.024
0.115
0.051
-0.013
0.037
-0.003
0.036
0.042
0.010
-0.042
0.075
0.057
0.021
-0.012
0.004
0.078
0.030
-0.066
0.027
-0.014
-0.014
0.017
0.001
0.109
0.084
0.024
0.017
0.022
0.052
-0.019
0.133
0.006
0.026
-0.040
-0.050
0.193
-0.044
-0.044
0.059
-0.020
-0.024
0.016
0.081
-0.027
-0.025
0.015
0.048
0.017
0.067
0.039
-0.047
0.015
0.032
-0.030
0.053
0.045
0.046
0.044
-0.048
0.031
0.011
0.051
0.028
0.061
-0.023
0.004
0.003
0.081
-0.042
-0.008
0.113
0.030
-0.065
0.040
0.068
-0.017
-0.074
0.058
0.087
0.063
-0.024
0.107
0.006
-0.111
0.121
0.029
-0.027
0.047
0.069
0.052
-0.020
0.065
0.001
-0.036
-0.029
0.081
0.063
0.045
-0.013
0.032
0.044
0.000
-0.024
-0.057
0.011
0.060
0.037
-0.088
0.034
-0.048
0.039
0.082
-0.023
0.052
0.087
0.008
-0.003
0.047
0.118
-0.003
0.007
0.018
0.004
0.030
0.076
0.001
0.020
0.051
0.015
0.052
0.002
0.002
0.030
0.028
0.024
0.004
0.028
0.030
0.014
0.043
0.006
0.033
0.026
0.025
0.040
0.046
-0.044
0.032
0.073
0.059
0.008
-0.037
-0.065
0.163
-0.040
-0.067
-0.079
-0.003
0.088
0.023
-0.030
0.134
0.002
-0.006
-0.066
0.049
0.023
0.016
0.025
-0.014
-0.077
0.025
0.116
0.095
-0.078
0.111
0.043
-0.011
-0.028
-0.010
0.026
0.044
0.039
-0.109
0.098
0.060
0.061
0.036
-0.052
0.026
-0.076
0.052
-0.007
0.056
0.075
-0.025
-0.016
0.010
-0.014
0.111
0.026
0.061
-0.058
-0.037
0.108
0.009
0.037
-0.049
0.165
-0.026
-0.054
-0.021
0.078
0.060
0.045
-0.010
-0.027
-0.030
0.127
0.161
-0.042
-0.025
0.019
0.079
-0.026
0.058
0.002
0.076
-0.047
-0.142
-0.003
0.011
0.113
0.037
-0.005
0.075
0.009
0.016
-0.004
-0.022
0.088
0.026
0.054
-0.075
0.177
0.099
-0.082
0.022
0.020
0.010
0.030
0.010
0.012
0.142
0.051
0.004
-0.018
0.112
-0.050
-0.040
0.006
0.050
-0.023
0.011
0.076
-0.016
-0.042
0.034
-0.001
-0.021
0.017
-0.054
0.077
0.156
0.018
0.031
0.092
0.001
0.009
-0.113
-0.002
-0.006
0.026
0.073
0.004
0.003
-0.051
0.022
-0.003
0.092
0.015
-0.019
-0.043
0.016
0.080
0.033
0.121
0.007
0.037
0.026
-0.077
-0.021
0.133
0.007
-0.086
0.032
0.047
0.044
0.019
-0.104
0.103
0.006
0.073
0.041
-0.010
0.009
-0.047
-0.088
0.077
0.010
0.120
-0.002
-0.000
0.027
0.084
-0.013
0.037
-0.068
0.081
-0.019
0.063
0.017
0.046
-0.032
0.028
0.002
0.057
0.013
0.084
0.066
-0.043
-0.011
0.002
0.014
0.131
-0.003
0.035
0.063
-0.102
-0.009
0.103
-0.017
0.042
0.072
0.011
0.055
0.014
0.051
-0.072
0.028
0.077
-0.013
0.076
-0.096
0.017
0.024
0.080
-0.048
-0.048
0.074
-0.026
0.015
-0.010
0.042
0.023
0.051
0.105
-0.012
0.071
-0.036
0.062
-0.045
0.033
0.072
-0.026
0.012
-0.018
0.038
0.047
0.023
0.003
-0.012
0.119
-0.022
-0.007
-0.064
0.051
0.047
0.022
0.025
0.038
0.061
0.035
-0.081
0.014
0.030
0.018
-0.089
0.076
-0.016
0.053
-0.045
0.005
-0.091
0.129
0.134
0.030
-0.011
0.004
0.009
-0.017
0.064
-0.014
-0.095
-0.012
-0.001
0.076
-0.018
-0.010
-0.055
0.050
-0.064
0.076
-0.001
0.005
0.038
-0.003
0.033
0.031
-0.002
-0.001
-0.002
0.004
-0.021
0.050
0.106
-0.063
-0.054
0.019
0.021
0.009
0.109
0.045
-0.067
-0.077
0.001
0.108
-0.031
0.131
0.048
-0.077
0.028
0.042
0.080
-0.112
-0.017
0.061
0.032
0.036
0.033
-0.036
0.087
-0.024
-0.008
-0.011
0.198
-0.039
0.017
0.035
0.038
-0.019
-0.031
0.077
-0.008
0.018
0.042
-0.073
-0.022
0.063
-0.026
0.056
-0.013
-0.024
0.108
0.019
0.105
0.010
0.061
-0.040
0.012
0.008
0.084
-0.009
0.005
0.062
0.092
-0.033
-0.070
-0.020
-0.001
0.059
0.010
0.034
-0.019
0.047
0.080
-0.012
-0.040
0.102
0.053
0.025
-0.023
0.153
0.010
0.080
-0.106
0.040
0.048
0.015
0.032
0.004
-0.029
-0.029
0.044
0.069
0.052
0.031
-0.084
-0.010
0.101
-0.030
-0.012
0.037
0.015
0.097
0.079
-0.033
0.005
-0.014
0.019
0.022
0.059
-0.022
0.070
-0.068
-0.022
-0.008
0.150
0.000
-0.033
0.042
-0.023
0.024
-0.070
0.051
0.019
0.029
0.077
0.048
-0.030
-0.093
0.029
-0.014
0.106
0.075
-0.091
0.044
0.031
0.085
-0.008
0.118
-0.082
0.009
0.053
-0.017
0.044
0.030
-0.064
-0.093
0.045
0.081
0.005
0.068
0.125
0.034
-0.123
-0.010
0.076
0.065
0.039
0.038
0.046
-0.039
0.074
-0.128
0.041
0.072
0.051
0.084
-0.081
-0.056
0.022
0.083
0.034
0.041
0.086
-0.085
-0.002
0.068
0.016
0.038
-0.030
-0.056
0.021
0.002
0.073
0.040
0.055
-0.017
0.001
0.037
0.056
0.042
0.045
0.072
0.020
-0.001
-0.042
0.080
0.094
-0.002
-0.023
-0.018
0.091
0.001
-0.024
0.108
0.066
-0.015
-0.041
0.008
0.111
0.077
-0.018
0.058
0.039
0.083
0.010
0.032
0.020
0.053
0.069
-0.040
0.077
-0.067
0.022
0.031
0.042
-0.005
-0.005
0.058
0.137
0.059
-0.019
-0.005
-0.017
0.011
0.053
0.101
0.011
0.036
0.039
-0.015
0.092
0.000
0.004
0.036
0.053
0.196
0.036
-0.045
0.021
0.008
0.026
-0.025
0.029
0.121
0.089
0.022
0.054
-0.035
-0.084
0.004
-0.006
0.016
-0.018
0.148
0.111
-0.020
0.037
0.009
-0.022
0.019
0.110
-0.007
-0.000
0.037
-0.037
0.075
0.060
0.007
-0.039
0.069
-0.005
0.052
0.100
-0.075
0.044
0.039
0.045
-0.081
0.003
0.026
0.085
-0.013
0.044
0.025
-0.054
0.029
0.063
0.026
-0.011
-0.035
0.080
0.010
0.042
0.018
-0.012
0.049
0.039
-0.000
-0.020
-0.019
0.095
0.042
0.004
0.011
0.026
-0.030
-0.008
-0.042
0.148
0.127
-0.029
0.005
0.087
0.087
-0.124
0.003
-0.063
0.112
-0.044
0.027
0.000
0.048
-0.021
-0.020
-0.004
0.050
0.066
-0.030
-0.056
0.067
0.004
0.106
0.019
-0.073
-0.037
0.075
0.018
0.062
-0.009
0.053
0.035
0.072
0.007
-0.069
0.034
-0.017
0.015
0.011
-0.097
0.100
0.071
0.010
-0.003
-0.002
0.013
0.030
-0.037
0.113
0.025
0.038
0.022
0.046
0.023
0.050
-0.004
0.032
-0.006
-0.079
0.011
0.042
-0.071
0.018
0.056
0.034
-0.016
-0.003
0.022
-0.004
-0.038
0.023
0.069
0.078
-0.011
-0.064
0.052
0.064
0.001
0.026
-0.004
0.088
0.043
0.024
0.054
-0.044
0.095
-0.036
0.036
-0.016
0.086
-0.042
0.018
0.037
0.047
-0.059
-0.006
-0.021
0.033
0.096
-0.013
-0.057
-0.013
0.006
0.044
0.056
0.031
-0.034
-0.019
-0.013
0.047
0.060
-0.015
-0.047
0.006
0.007
-0.019
-0.005
0.124
0.046
0.014
0.013
0.027
-0.045
0.010
0.095
-0.004
-0.021
0.027
0.066
0.001
-0.039
0.055
-0.006
0.001
0.017
0.024
0.065
-0.023
0.021
0.017
0.026
0.090
-0.054
0.045
0.014
-0.081
0.032
-0.082
0.095
-0.025
0.021
0.000
0.075
-0.041
-0.062
-0.023
0.007
0.024
-0.022
0.022
0.022
0.006
0.126
-0.048
0.008
0.062
0.140
-0.114
-0.095
0.029
0.162
0.054
-0.017
-0.004
-0.040
-0.008
-0.026
0.041
0.080
-0.008
0.057
0.120
-0.004
-0.061
-0.019
-0.017
-0.002
0.031
0.055
0.116
0.004
0.121
0.059
-0.006
-0.053
0.002
0.052
0.058
0.060
0.037
-0.012
-0.055
0.112
0.081
-0.040
-0.045
0.037
0.048
-0.072
-0.024
0.028
0.008
0.049
-0.013
0.020
0.018
-0.021
0.121
0.106
-0.017
-0.043
0.032
0.036
0.040
0.016
-0.036
-0.039
0.064
0.008
0.128
-0.014
0.033
0.025
-0.016
-0.033
0.047
0.022
0.029
0.021
0.024
-0.010
-0.008
0.061
-0.106
0.074
0.077
0.038
-0.059
-0.054
-0.007
0.051
0.016
-0.014
0.005
0.040
0.040
-0.045
0.083
-0.025
-0.104
-0.014
-0.002
0.088
-0.015
-0.070
0.067
0.089
0.071
-0.029
-0.035
0.058
-0.006
-0.024
0.046
-0.051
0.028
0.105
0.034
-0.014
-0.016
-0.045
0.011
0.031
0.015
0.025
-0.093
0.048
0.093
0.049
-0.022
-0.039
-0.037
0.041
0.022
0.025
0.101
0.069
0.015
-0.046
-0.062
-0.016
0.001
0.136
0.052
0.043
-0.053
0.019
0.048
0.014
-0.060
-0.024
0.089
-0.033
0.072
0.117
-0.046
0.072
-0.045
0.067
0.099
-0.052
0.002
0.065
-0.021
-0.004
-0.019
0.034
0.110
0.014
-0.026
0.038
0.049
0.003
0.052
0.010
-0.035
-0.004
0.055
0.042
0.105
0.078
-0.079
-0.027
0.036
0.064
0.071
-0.007
-0.038
0.125
0.016
-0.017
-0.062
0.014
0.072
-0.043
-0.023
0.097
0.013
-0.048
-0.021
0.048
0.073
0.083
0.054
0.020
-0.047
-0.041
-0.040
0.052
-0.013
0.089
0.073
-0.011
-0.048
0.026
-0.001
0.006
0.043
0.090
-0.007
-0.073
-0.006
0.108
0.044
-0.065
0.002
-0.006
0.112
0.104
0.117
-0.069
-0.022
-0.020
-0.032
0.114
-0.081
0.105
0.043
-0.009
0.041
0.101
-0.034
-0.034
0.059
0.011
0.014
0.057
-0.025
0.012
0.093
0.012
0.031
0.062
-0.038
-0.034
0.011
0.030
0.014
0.023
-0.025
0.029
0.036
-0.002
-0.003
0.004
0.042
0.007
0.067
-0.034
-0.057
0.073
-0.008
0.028
0.034
0.053
0.028
0.131
-0.018
-0.057
-0.022
0.085
0.082
0.073
0.082
-0.053
0.042
0.053
-0.055
-0.038
-0.024
0.029
-0.008
0.002
0.054
0.114
-0.051
0.009
-0.087
-0.029
-0.067
0.148
0.057
0.035
-0.058
-0.067
0.114
0.000
0.059
0.056
-0.035
0.027
-0.029
0.035
0.052
-0.011
0.021
0.077
-0.051
-0.104
0.080
0.046
0.008
-0.022
0.057
0.006
0.000
0.012
0.032
0.080
-0.010
-0.068
-0.093
0.025
0.011
0.054
0.051
0.118
-0.042
-0.053
0.011
0.015
0.087
-0.060
0.115
0.055
-0.074
-0.040
0.120
-0.029
0.059
-0.013
0.035
0.081
0.058
-0.029
0.040
-0.053
-0.044
0.020
0.051
0.098
0.119
-0.091
-0.024
0.055
0.024
-0.044
0.061
0.116
-0.038
-0.060
0.040
-0.011
-0.014
-0.005
0.055
-0.018
0.047
0.010
0.127
-0.061
0.003
0.023
0.001
-0.045
0.009
0.033
0.000
-0.029
0.045
-0.025
-0.017
-0.064
0.083
0.096
-0.029
0.022
0.055
0.073
0.007
0.110
-0.035
0.015
-0.043
0.045
0.083
-0.002
0.058
-0.071
0.004
0.011
0.049
-0.079
0.031
-0.027
0.050
-0.025
0.094
0.040
-0.055
-0.074
0.096
0.020
0.046
-0.004
0.112
0.056
0.100
-0.075
-0.131
0.016
-0.055
0.039
0.147
-0.022
-0.027
-0.045
0.030
0.005
-0.008
-0.059
0.098
-0.070
0.023
0.075
0.033
0.080
0.036
-0.025
0.032
0.001
0.031
0.047
0.091
0.034
-0.006
-0.003
0.075
-0.104
-0.003
0.026
0.028
0.025
0.068
-0.042
0.022
0.049
0.005
-0.037
0.023
-0.015
-0.042
0.104
0.043
0.024
-0.021
-0.004
0.063
0.046
0.045
0.008
0.056
0.017
0.056
0.075
-0.065
0.045
0.081
0.016
0.044
-0.069
-0.002
0.028
-0.029
-0.021
-0.011
0.037
0.005
0.009
-0.010
-0.116
0.033
0.104
-0.045
-0.055
0.084
-0.027
0.027
0.092
0.086
0.051
-0.140
-0.041
-0.003
0.028
0.079
0.050
0.064
-0.077
0.027
0.032
0.036
-0.034
0.014
0.104
0.016
-0.005
-0.034
0.023
0.022
0.008
0.026
-0.043
-0.004
0.007
0.036
0.054
-0.034
0.044
-0.036
0.014
0.018
0.018
0.063
0.100
0.021
-0.044
0.055
-0.007
-0.052
-0.028
-0.025
0.074
-0.002
-0.044
0.014
0.098
0.066
0.028
0.001
0.016
-0.069
-0.005
0.017
0.050
0.022
0.095
-0.055
0.033
-0.019
0.012
-0.037
0.110
-0.015
0.029
0.016
-0.014
-0.066
0.021
0.034
0.074
0.060
-0.001
-0.037
0.066
0.147
-0.045
0.064
-0.004
0.061
0.043
-0.013
-0.039
0.044
0.015
-0.002
-0.031
0.002
0.043
0.094
-0.000
-0.004
-0.032
0.043
0.047
-0.003
-0.022
0.020
0.047
0.016
0.023
0.059
-0.038
0.082
-0.005
-0.061
0.082
0.013
0.014
-0.008
0.025
0.047
-0.009
0.078
0.022
0.006
-0.097
0.006
0.014
0.035
-0.091
0.083
0.022
0.072
0.116
0.117
-0.057
0.119
0.077
0.003
-0.008
-0.044
0.013
-0.079
-0.029
-0.019
0.055
-0.053
0.004
0.070
0.010
0.031
-0.018
-0.070
-0.006
0.044
0.145
-0.027
0.026
-0.031
0.023
-0.020
0.117
0.011
0.033
-0.006
-0.054
0.035
-0.039
0.076
0.096
-0.044
-0.000
-0.046
0.022
-0.006
0.041
0.070
-0.094
-0.026
0.052
-0.010
0.073
0.065
-0.066
0.011
0.011
-0.013
-0.012
0.046
0.112
-0.049
-0.046
0.090
-0.009
0.030
0.080
-0.060
-0.010
0.062
0.069
-0.013
-0.047
-0.001
-0.009
0.031
0.008
-0.028
0.100
-0.068
0.030
-0.011
-0.043
0.069
0.011
-0.024
-0.046
0.013
0.085
0.041
0.040
-0.008
0.038
0.043
-0.013
-0.044
-0.075
0.073
0.149
-0.017
0.009
0.090
-0.082
0.009
0.027
0.034
0.085
-0.057
-0.034
0.030
-0.023
0.006
0.056
0.065
0.012
-0.027
-0.071
0.155
-0.041
-0.049
-0.031
0.082
0.029
0.031
0.092
0.058
0.034
-0.019
0.005
-0.018
0.039
0.053
0.094
0.050
-0.088
0.031
0.032
-0.003
0.003
0.064
-0.005
0.022
0.065
0.028
-0.051
-0.035
0.035
-0.021
-0.050
0.102
0.035
-0.018
-0.021
0.083
0.011
0.040
0.039
-0.063
0.090
0.041
0.133
0.021
0.016
-0.066
-0.102
-0.031
0.034
0.031
0.085
0.077
0.063
-0.019
-0.013
0.034
0.103
-0.054
0.015
0.048
0.000
-0.020
0.012
0.027
0.091
0.057
0.064
-0.020
-0.008
-0.049
-0.032
-0.022
0.035
0.050
-0.009
0.003
0.012
0.072
0.003
0.053
0.048
0.048
0.018
-0.052
-0.087
0.092
0.076
0.046
0.055
0.027
0.059
0.039
-0.028
0.042
0.035
-0.005
-0.035
0.097
0.015
0.019
-0.018
-0.036
0.079
0.013
-0.043
0.067
-0.012
0.123
-0.055
-0.015
-0.024
-0.012
0.124
0.066
-0.028
0.083
-0.044
-0.027
-0.011
-0.010
0.031
0.106
0.105
-0.049
0.045
-0.040
0.049
-0.058
0.079
-0.015
0.049
0.056
0.029
0.064
0.001
0.050
-0.030
-0.023
0.095
-0.026
0.170
0.055
-0.040
0.009
-0.052
0.040
-0.008
-0.061
0.000
0.128
0.032
0.014
0.060
0.002
0.068
0.028
0.049
-0.032
-0.015
0.011
0.042
0.118
0.057
0.019
0.019
0.086
-0.017
0.019
0.017
0.016
0.054
-0.007
-0.030
0.000
0.002
0.014
-0.038
0.021
0.062
0.092
-0.046
-0.063
-0.018
0.007
0.049
-0.009
0.076
0.081
0.035
0.001
0.026
0.044
0.043
0.010
-0.009
0.047
-0.004
-0.018
-0.006
0.108
0.006
-0.044
0.068
0.042
-0.051
-0.053
0.055
-0.016
0.057
0.015
0.101
0.017
-0.043
0.011
-0.031
0.144
0.062
-0.046
0.051
-0.008
0.085
0.017
-0.025
0.020
-0.025
0.055
-0.056
-0.021
-0.032
0.014
0.080
0.059
-0.018
-0.074
0.081
-0.006
0.055
-0.099
-0.021
-0.027
0.079
0.092
-0.005
-0.033
0.020
0.006
0.010
0.087
0.126
0.044
0.014
-0.088
0.053
0.013
-0.044
0.021
0.023
-0.021
-0.075
0.128
0.052
0.040
0.048
-0.043
0.034
-0.038
0.102
0.026
-0.015
0.079
0.047
-0.037
-0.022
0.085
0.024
0.002
0.073
0.032
-0.031
0.019
-0.021
0.049
0.036
0.034
-0.058
0.068
-0.004
-0.050
0.041
0.106
0.004
0.017
0.010
-0.010
-0.006
0.102
-0.035
-0.005
0.045
0.028
0.058
0.071
-0.044
0.101
-0.070
0.053
0.009
0.055
0.081
0.023
0.015
-0.024
-0.032
0.030
0.041
-0.046
-0.038
0.055
0.000
-0.019
0.016
0.006
0.120
0.006
-0.017
0.040
0.054
0.055
0.017
-0.009
0.100
0.024
-0.014
0.009
0.011
0.010
0.004
0.011
0.047
0.048
-0.058
-0.003
-0.021
-0.050
0.081
0.052
0.130
0.095
-0.069
0.004
-0.057
0.037
-0.029
0.031
0.095
0.085
0.028
-0.075
-0.006
0.079
0.008
0.007
-0.007
0.025
0.020
-0.047
-0.024
0.177
-0.057
-0.003
-0.001
-0.020
0.087
0.005
0.022
0.012
0.085
-0.016
-0.072
-0.027
0.007
0.090
0.008
0.024
0.073
-0.045
0.035
0.023
-0.075
0.114
0.010
-0.002
0.073
-0.033
0.020
0.075
0.030
0.034
0.010
0.173
-0.025
0.010
-0.014
-0.003
0.062
0.117
0.014
-0.027
-0.104
-0.081
0.073
0.036
0.095
0.039
-0.013
-0.039
-0.029
0.034
0.006
0.049
-0.012
0.009
-0.048
-0.006
0.050
0.082
-0.009
-0.055
0.032
-0.013
0.011
0.129
0.003
-0.075
0.014
0.073
0.090
0.045
0.041
0.106
-0.003
0.065
0.000
0.050
0.040
-0.018
0.054
-0.010
-0.032
0.006
0.018
-0.015
0.057
-0.015
-0.056
-0.023
0.120
0.094
0.042
-0.049
-0.080
0.009
-0.055
0.107
0.056
0.030
-0.014
-0.035
-0.032
0.101
0.101
0.043
0.025
0.032
-0.035
-0.009
0.013
0.052
0.164
-0.004
-0.010
-0.026
-0.032
0.078
-0.011
0.100
-0.004
-0.025
0.098
0.029
-0.082
0.044
0.101
-0.013
-0.050
-0.033
0.046
-0.016
0.025
-0.016
0.046
0.011
0.098
0.031
0.029
0.022
0.004
0.029
-0.023
0.054
0.023
-0.001
0.024
0.070
-0.014
-0.034
-0.034
0.114
0.111
0.049
-0.028
-0.078
0.026
0.098
0.059
0.061
-0.020
-0.061
0.050
0.073
-0.046
0.009
0.047
-0.002
0.055
-0.038
-0.024
0.070
0.101
-0.045
0.054
0.071
-0.070
-0.011
0.029
-0.035
0.067
0.016
0.040
0.124
-0.024
-0.074
0.024
0.079
-0.018
0.037
-0.044
0.026
0.068
0.112
0.010
-0.079
-0.056
0.065
-0.056
0.091
-0.010
-0.069
0.017
0.058
-0.042
0.013
0.028
-0.029
0.009
0.113
-0.035
-0.152
0.011
0.100
0.030
0.021
0.015
-0.011
0.045
0.049
0.008
0.089
-0.036
-0.062
0.034
0.025
0.035
0.052
0.044
-0.049
0.048
0.000
0.035
0.064
-0.012
-0.056
0.005
0.084
-0.054
0.009
0.018
-0.018
0.050
-0.004
-0.073
-0.029
0.017
0.108
0.051
0.066
0.030
0.102
0.008
0.004
-0.039
0.086
0.030
0.011
-0.034
0.074
0.029
0.032
0.066
-0.023
0.007
0.063
0.063
0.001
0.020
0.038
0.019
0.010
0.067
-0.036
0.080
-0.005
-0.004
0.028
0.029
-0.017
0.020
0.020
0.116
0.038
0.020
-0.058
0.084
0.036
-0.043
0.066
0.032
-0.011
0.025
0.093
0.003
0.015
0.050
-0.001
0.052
0.029
-0.032
0.028
0.123
0.141
0.003
-0.094
0.014
0.095
-0.008
0.021
0.076
-0.039
0.072
-0.022
-0.001
0.025
0.032
0.077
-0.014
0.048
0.037
0.009
-0.085
0.046
-0.019
-0.061
0.020
0.083
0.114
-0.005
-0.088
-0.060
0.015
0.032
-0.010
0.135
0.022
0.029
-0.006
0.041
0.030
0.061
-0.021
0.048
-0.019
-0.030
-0.032
0.101
0.016
-0.019
0.021
0.112
-0.002
0.030
-0.004
0.080
0.039
-0.042
0.053
0.027
0.012
0.011
0.102
0.050
0.023
-0.049
0.062
0.128
0.083
-0.004
-0.068
-0.021
0.037
0.007
0.055
0.024
0.070
-0.049
0.010
0.009
0.047
0.070
0.055
-0.034
-0.023
0.033
-0.008
0.057
0.049
0.059
-0.034
0.005
0.052
0.039
0.038
0.084
0.067
0.046
0.021
-0.079
-0.021
-0.042
0.143
0.095
0.088
-0.076
-0.073
-0.028
0.069
0.028
0.117
0.060
0.054
-0.062
0.009
0.010
-0.035
0.094
0.049
-0.019
0.021
0.028
-0.004
-0.032
-0.057
0.056
0.067
0.045
0.006
-0.063
-0.018
-0.022
-0.078
-0.033
0.053
0.075
0.080
-0.049
0.078
0.032
-0.076
0.077
0.063
-0.041
0.044
0.060
0.006
0.048
-0.003
-0.006
0.003
0.000
0.036
0.035
0.031
-0.010
0.010
-0.018
-0.031
0.044
0.084
-0.053
-0.012
0.049
-0.011
-0.046
0.113
-0.055
0.046
-0.006
-0.050
0.009
0.015
-0.043
0.014
-0.064
-0.014
0.012
0.091
0.096
0.009
0.021
0.052
-0.033
0.040
0.113
-0.060
-0.007
0.101
-0.005
-0.054
0.022
0.008
0.003
-0.090
0.070
-0.039
0.061
0.014
0.003
0.036
-0.089
-0.005
0.014
0.098
0.090
-0.125
-0.015
0.076
-0.013
0.041
0.049
0.046
-0.012
-0.023
0.033
-0.028
0.004
0.011
-0.021
0.059
0.049
0.074
-0.119
-0.009
0.075
0.052
-0.021
0.066
-0.024
-0.066
0.020
0.042
0.037
0.031
0.159
0.068
-0.013
-0.075
0.029
0.040
0.023
0.020
-0.052
-0.016
0.003
0.093
0.061
0.036
0.026
0.015
-0.009
-0.045
0.092
-0.009
-0.020
-0.044
0.073
-0.007
0.062
-0.075
0.003
0.085
0.006
0.023
-0.012
0.102
0.159
-0.044
-0.025
0.019
0.045
-0.026
0.045
0.013
0.047
0.109
0.069
-0.025
-0.014
-0.016
0.019
0.037
-0.001
-0.004
0.057
0.054
-0.015
0.070
-0.003
0.065
0.014
0.052
0.048
0.075
-0.047
-0.014
-0.014
-0.005
-0.001
0.070
-0.044
0.060
-0.036
0.057
0.063
-0.087
0.011
0.026
-0.065
-0.010
0.043
0.152
0.007
0.002
-0.024
0.004
0.030
0.014
0.045
0.003
0.013
0.026
0.015
-0.048
-0.044
-0.048
0.129
0.025
0.018
-0.037
-0.051
-0.072
0.049
0.099
0.059
-0.032
-0.019
-0.021
0.008
0.101
-0.015
0.037
0.015
-0.045
-0.028
0.000
0.060
0.029
0.014
0.033
0.057
-0.008
-0.003
-0.009
-0.003
0.071
0.056
0.003
0.056
-0.014
-0.004
0.002
0.012
-0.043
0.059
-0.030
0.070
-0.058
0.059
0.023
0.050
-0.024
0.045
-0.138
-0.004
0.057
0.064
-0.008
-0.137
0.133
0.045
0.040
0.007
0.021
0.083
-0.039
0.006
0.033
0.073
-0.056
0.046
-0.015
-0.018
0.076
0.073
-0.000
0.071
0.040
-0.029
-0.047
0.007
0.012
0.053
-0.033
-0.003
0.069
-0.031
-0.032
0.002
0.073
-0.045
0.060
0.111
-0.047
0.014
0.058
0.027
-0.006
0.040
-0.034
0.031
0.035
-0.012
-0.035
0.011
0.101
-0.036
-0.004
0.045
-0.044
0.024
0.003
-0.053
0.038
0.012
0.115
-0.038
-0.029
0.037
0.061
0.054
0.006
0.044
-0.013
-0.068
0.077
0.035
0.009
0.002
0.070
0.060
0.000
-0.095
0.057
0.034
0.006
-0.014
-0.015
-0.016
0.012
0.022
0.049
0.066
0.057
0.051
-0.016
0.049
0.017
0.042
0.011
-0.105
0.110
-0.063
0.016
-0.032
0.043
0.099
0.021
0.020
0.068
-0.001
0.000
0.042
0.108
-0.026
0.099
0.014
-0.010
0.012
0.074
0.075
-0.037
-0.053
-0.024
-0.059
0.001
0.010
0.062
-0.044
0.085
0.048
-0.014
-0.042
0.012
0.053
-0.003
0.085
0.008
0.085
-0.024
-0.088
0.027
0.074
0.042
0.044
0.047
0.008
0.011
0.050
0.024
0.019
0.029
0.012
0.016
0.003
0.035
0.045
-0.044
0.001
0.029
0.057
0.036
-0.007
0.052
-0.024
-0.068
0.037
0.007
-0.032
0.062
0.096
-0.000
0.017
0.080
-0.052
-0.087
-0.013
0.068
0.103
0.019
-0.028
0.019
-0.008
0.026
0.070
-0.013
-0.038
0.096
-0.026
0.019
-0.110
0.008
-0.006
0.081
0.055
0.022
-0.015
0.009
0.050
0.055
-0.020
-0.020
-0.056
0.031
-0.000
-0.035
0.094
0.082
0.018
-0.021
-0.055
0.090
0.031
0.095
-0.053
-0.021
0.033
0.128
0.042
-0.089
0.022
-0.032
0.010
0.094
-0.011
0.024
-0.017
-0.018
0.103
-0.000
-0.029
-0.029
0.023
0.039
0.051
0.106
-0.089
-0.038
0.057
-0.094
-0.051
0.027
0.142
-0.028
0.020
-0.055
-0.069
0.031
0.067
-0.032
-0.004
0.065
0.089
0.061
-0.085
0.043
-0.007
-0.011
0.040
-0.006
0.059
-0.023
0.063
-0.104
0.022
0.045
0.039
-0.002
0.058
0.001
-0.044
-0.032
0.092
0.108
-0.072
0.065
-0.012
-0.079
0.068
0.005
0.025
0.106
-0.020
0.163
0.057
-0.056
-0.054
0.044
-0.027
0.091
0.011
-0.023
0.022
-0.026
-0.028
0.082
0.059
0.018
-0.108
0.031
0.051
-0.002
0.017
-0.049
0.047
0.061
0.001
0.108
-0.092
0.047
0.044
0.073
0.013
-0.084
-0.002
-0.012
0.065
0.016
0.095
0.042
0.036
-0.022
0.058
-0.040
-0.008
0.023
0.010
0.040
0.076
0.121
-0.086
-0.034
0.102
0.040
0.044
0.018
-0.024
-0.011
0.032
0.090
0.005
0.018
-0.021
-0.014
-0.025
0.047
0.020
0.053
0.009
0.057
-0.037
0.008
-0.032
0.093
-0.021
0.025
0.005
-0.022
0.052
0.079
-0.019
0.039
0.008
-0.011
0.051
0.025
-0.013
-0.022
0.055
0.149
-0.019
-0.019
-0.019
-0.079
0.036
0.116
-0.033
0.058
0.043
-0.028
0.114
-0.030
0.030
-0.062
0.084
-0.007
0.068
0.036
-0.002
0.116
-0.056
0.011
0.092
0.003
0.038
0.023
0.061
-0.039
-0.034
0.044
0.079
0.039
-0.071
0.011
0.075
0.069
0.022
-0.047
0.089
-0.029
-0.041
-0.029
0.009
0.047
0.017
0.106
0.108
0.007
-0.011
-0.121
-0.014
-0.001
0.088
0.043
-0.015
-0.095
-0.015
0.094
0.017
-0.021
0.066
0.013
0.145
-0.010
-0.018
-0.034
0.104
-0.033
-0.050
0.091
0.012
0.004
0.137
0.031
0.007
-0.048
-0.003
0.038
0.136
-0.010
-0.095
0.084
0.001
-0.061
-0.049
-0.022
0.121
0.056
0.071
-0.047
0.068
0.070
0.007
-0.080
0.040
0.066
0.026
-0.071
-0.033
-0.058
0.002
0.026
0.034
0.073
0.053
0.064
-0.077
0.064
-0.016
0.030
-0.005
0.037
-0.031
0.021
-0.017
-0.022
0.027
0.099
0.100
-0.027
-0.028
-0.072
0.103
-0.031
0.109
-0.036
0.011
0.020
0.087
0.064
-0.074
0.039
0.022
0.007
0.020
-0.017
0.072
0.036
0.031
0.018
-0.005
0.002
0.058
0.115
0.033
-0.083
0.017
0.124
0.017
-0.058
0.053
-0.073
-0.037
-0.006
-0.023
0.130
-0.015
-0.004
-0.042
-0.103
0.081
0.114
0.089
-0.010
0.028
-0.013
0.076
-0.000
0.006
-0.016
-0.058
0.004
0.047
0.094
0.086
0.058
0.044
-0.008
-0.048
-0.035
0.063
-0.042
-0.080
0.047
0.079
-0.104
0.059
0.038
0.022
-0.026
-0.060
0.021
-0.007
-0.002
0.094
0.043
0.099
0.051
-0.014
0.027
-0.068
0.027
0.035
0.014
0.100
0.038
-0.023
0.008
0.060
0.082
-0.056
0.037
0.051
-0.031
-0.036
0.053
-0.072
0.006
-0.011
0.041
0.065
0.057
0.062
-0.062
0.046
-0.108
0.069
0.067
0.104
-0.019
0.015
0.020
0.027
-0.060
0.066
0.070
0.103
0.078
0.018
-0.027
0.018
-0.081
0.003
-0.002
0.044
0.115
0.011
0.045
-0.099
0.027
0.033
-0.044
0.040
0.080
0.017
0.038
-0.007
0.040
0.011
0.074
0.025
0.033
0.052
-0.014
-0.052
0.064
0.023
-0.010
0.122
0.153
-0.080
-0.043
0.043
0.067
0.076
0.042
-0.035
0.039
0.055
0.007
-0.064
0.022
-0.005
-0.018
0.129
0.058
0.058
0.043
0.043
0.022
-0.099
0.062
0.005
0.017
-0.033
0.029
0.048
0.020
0.066
-0.057
-0.039
-0.026
-0.057
0.075
0.069
0.055
-0.045
0.013
0.044
-0.022
0.022
0.036
-0.028
0.060
0.000
0.027
0.034
0.073
0.030
-0.066
0.086
0.029
0.027
-0.052
0.118
0.038
-0.025
0.008
0.009
0.118
-0.010
0.014
-0.004
0.061
0.034
-0.046
-0.010
0.005
-0.042
0.092
-0.032
0.055
-0.061
-0.056
0.064
0.066
0.112
-0.036
0.005
0.031
0.035
-0.065
0.041
0.032
0.041
-0.027
0.028
-0.027
-0.053
0.077
0.034
0.070
-0.046
0.057
0.081
0.031
0.036
0.011
0.083
0.010
0.023
0.040
0.009
0.036
0.002
0.113
-0.134
0.028
0.101
0.101
0.023
0.006
0.042
0.031
-0.039
-0.025
-0.035
0.070
0.027
0.015
0.007
0.049
-0.085
-0.003
0.070
0.049
0.077
0.007
-0.026
0.014
0.071
0.084
0.013
0.054
-0.066
-0.010
0.055
-0.057
0.079
0.061
0.079
-0.007
0.009
-0.044
0.034
-0.130
0.097
0.069
-0.003
0.073
0.058
-0.092
-0.035
0.033
-0.014
-0.010
0.098
-0.016
0.022
0.076
-0.020
-0.056
0.030
0.028
0.052
0.011
0.026
-0.049
0.005
0.067
-0.074
0.134
0.038
-0.128
0.028
0.022
0.119
-0.013
-0.009
-0.016
0.081
0.115
-0.003
0.067
-0.025
0.020
-0.021
0.067
-0.064
0.067
0.018
0.040
0.075
0.047
-0.030
-0.051
-0.083
0.132
0.034
-0.044
0.028
0.050
0.029
-0.011
-0.036
-0.036
0.096
0.089
0.003
0.117
-0.096
-0.009
0.048
-0.021
0.022
0.044
0.137
0.005
-0.052
0.014
-0.002
0.070
0.083
-0.015
0.030
0.008
0.017
0.045
0.042
0.045
0.047
0.093
-0.038
-0.050
0.023
0.017
0.002
0.031
-0.037
0.044
0.045
0.068
0.030
-0.086
0.039
0.024
0.047
-0.011
-0.049
0.022
-0.033
0.102
-0.005
-0.027
0.093
0.039
-0.028
-0.066
0.061
0.017
-0.093
0.102
0.009
-0.005
-0.030
0.034
0.040
0.011
0.041
-0.031
-0.020
0.035
0.087
0.025
0.039
-0.030
-0.024
-0.053
0.081
-0.017
0.092
-0.042
-0.048
-0.086
-0.021
0.009
0.053
-0.022
0.019
-0.050
-0.041
-0.032
0.189
0.058
-0.074
0.034
-0.030
-0.041
0.034
-0.010
0.007
0.038
0.020
0.063
0.000
-0.031
-0.085
0.066
0.072
-0.012
0.098
-0.073
-0.042
0.070
0.037
0.043
-0.003
0.016
-0.012
0.043
0.028
-0.043
0.051
0.047
0.070
0.013
0.033
0.064
0.005
0.047
-0.066
0.093
0.001
-0.008
0.037
-0.046
-0.016
-0.047
0.081
0.031
-0.009
0.006
0.006
0.088
-0.050
0.077
0.049
0.028
0.002
-0.000
-0.074
0.036
0.100
-0.038
0.051
0.038
-0.052
-0.052
0.108
0.023
-0.036
0.081
0.092
0.030
-0.088
0.014
0.062
0.032
0.072
0.012
0.048
0.052
0.047
0.094
0.013
-0.047
0.077
-0.003
0.034
0.069
-0.053
0.017
0.023
0.008
-0.022
0.004
0.042
-0.049
0.024
0.039
0.048
0.010
0.044
-0.031
-0.017
0.054
-0.008
0.027
0.026
-0.121
0.074
0.091
0.048
-0.008
-0.026
0.108
0.134
0.042
-0.015
-0.128
-0.011
0.082
0.044
0.034
-0.028
0.031
0.004
0.021
0.082
-0.024
0.003
-0.001
0.028
0.037
-0.036
-0.007
0.024
-0.012
0.068
0.044
-0.018
0.006
-0.048
0.046
-0.026
0.004
0.005
0.064
0.043
0.087
-0.075
-0.026
0.048
-0.001
0.009
-0.001
0.040
0.098
0.002
0.065
-0.029
0.034
0.107
0.048
0.021
-0.045
-0.017
-0.021
0.002
0.066
0.011
-0.024
0.083
-0.061
-0.040
0.061
0.087
-0.080
0.065
0.038
0.116
-0.001
0.034
-0.017
0.013
-0.027
0.046
0.045
0.009
-0.074
-0.009
0.073
0.031
0.080
-0.011
-0.042
0.114
0.027
-0.082
0.006
-0.038
0.003
0.042
-0.005
-0.100
0.032
0.067
0.074
0.024
0.112
0.002
-0.051
0.007
0.001
0.011
0.075
0.052
0.018
-0.022
-0.027
0.025
0.099
0.055
0.026
0.004
-0.033
-0.002
-0.036
-0.013
0.042
0.065
-0.030
-0.048
0.146
0.005
-0.103
0.073
-0.041
-0.056
0.105
0.145
0.065
-0.081
0.038
0.061
-0.053
0.021
-0.031
0.067
0.013
0.010
0.059
-0.026
-0.002
-0.021
0.010
-0.034
-0.004
-0.029
-0.037
0.015
0.099
0.093
0.010
0.037
-0.054
0.064
-0.038
0.067
0.144
0.002
-0.001
-0.045
0.017
0.081
0.000
-0.029
-0.019
0.022
0.047
0.057
0.028
-0.029
-0.018
0.087
-0.039
0.010
0.100
0.016
0.019
0.040
-0.002
0.068
0.057
-0.004
0.048
0.014
-0.079
0.039
0.088
0.061
0.024
0.045
0.008
0.018
0.052
0.004
0.083
-0.027
0.007
-0.019
0.017
0.062
0.019
0.019
0.019
-0.040
0.063
0.085
0.007
-0.020
0.025
-0.005
-0.038
0.068
0.001
0.014
0.077
0.090
-0.001
-0.008
-0.028
-0.053
-0.008
0.094
0.014
0.106
0.019
0.083
-0.026
0.109
0.027
0.001
0.001
-0.039
0.005
-0.015
0.078
0.083
-0.001
-0.080
-0.030
0.058
0.023
-0.023
-0.054
0.034
-0.039
0.036
0.058
0.070
-0.018
-0.025
0.000
-0.029
0.011
-0.013
-0.042
0.051
-0.034
0.013
-0.016
0.154
-0.036
-0.002
0.051
0.041
-0.021
0.083
-0.012
-0.083
0.081
0.024
0.089
0.004
0.025
0.069
-0.064
-0.030
0.169
0.020
0.044
-0.001
0.035
-0.047
0.022
-0.005
-0.023
0.042
-0.037
0.033
-0.091
-0.033
0.015
0.071
-0.011
-0.009
-0.045
0.064
0.056
0.069
0.062
0.071
-0.006
-0.023
0.000
0.056
-0.054
-0.008
-0.040
0.147
-0.002
0.026
0.037
0.041
-0.031
-0.033
0.097
0.025
0.030
0.007
-0.019
0.046
0.030
0.001
0.078
0.036
-0.034
-0.043
0.031
0.001
0.143
0.037
0.059
-0.045
0.034
-0.072
0.033
0.102
0.033
-0.016
-0.012
0.072
0.037
-0.098
0.019
0.086
0.083
0.062
-0.015
0.049
-0.028
-0.009
-0.017
0.027
0.060
0.007
-0.003
-0.053
0.063
0.009
0.027
-0.011
0.031
0.049
0.029
0.009
-0.013
0.040
0.013
-0.010
-0.005
-0.046
0.078
0.033
0.009
-0.016
0.036
0.042
0.075
0.018
-0.007
0.061
0.087
-0.051
0.060
0.118
0.040
-0.011
-0.033
0.027
0.028
0.037
-0.040
-0.028
0.057
0.068
0.032
0.003
0.032
-0.001
-0.027
-0.073
0.039
0.067
0.037
0.064
0.069
-0.036
0.032
-0.041
0.022
0.133
-0.009
-0.058
0.020
0.057
0.033
0.068
0.009
0.011
0.096
-0.088
-0.021
0.054
-0.018
0.026
0.085
0.012
0.019
0.026
-0.012
0.076
0.000
0.054
-0.019
-0.000
-0.002
0.035
0.010
-0.066
0.020
0.092
-0.006
-0.036
0.043
-0.028
0.072
-0.060
0.081
-0.041
0.041
0.135
-0.012
-0.040
0.039
-0.078
0.022
-0.003
0.036
-0.010
0.019
0.000
0.037
-0.041
0.023
0.044
0.015
0.022
-0.011
-0.036
0.038
0.098
-0.023
0.013
0.001
-0.008
0.054
0.026
0.007
-0.071
0.080
-0.006
0.065
-0.066
0.013
0.014
-0.059
0.046
0.104
0.126
-0.059
0.017
-0.008
0.006
0.075
0.029
0.032
-0.003
-0.015
-0.093
0.146
-0.014
-0.068
0.079
-0.016
0.049
-0.009
0.034
0.010
-0.089
0.061
0.020
0.020
0.022
0.078
-0.066
0.125
-0.050
-0.090
0.027
0.009
0.051
0.127
0.104
-0.032
0.015
-0.030
-0.019
0.031
0.035
0.047
0.107
-0.008
-0.014
-0.008
0.024
0.106
0.016
0.018
-0.036
0.019
0.115
0.023
-0.020
-0.014
0.116
0.134
-0.036
-0.025
0.021
-0.060
0.062
0.017
-0.065
0.109
-0.067
0.060
0.007
0.038
-0.031
0.080
-0.013
-0.094
0.019
0.034
0.014
-0.049
0.016
-0.054
0.099
-0.021
0.064
0.007
0.023
0.001
0.098
0.002
-0.019
0.080
0.065
-0.017
-0.084
-0.001
0.055
0.009
-0.058
0.131
0.032
-0.005
0.005
0.060
0.066
-0.028
0.021
0.125
0.021
0.009
-0.099
0.006
0.049
0.085
-0.032
-0.006
0.027
0.072
-0.094
0.066
-0.021
0.066
-0.088
-0.081
0.067
0.160
0.040
0.002
-0.053
-0.043
0.082
0.049
0.075
-0.059
0.014
0.079
0.020
0.014
-0.070
0.058
0.108
0.034
0.094
-0.105
-0.074
0.056
-0.007
0.041
-0.028
0.015
0.034
0.057
0.049
-0.016
0.010
-0.039
0.029
0.084
0.155
-0.020
0.015
-0.036
-0.017
0.052
0.022
0.020
0.034
0.008
0.062
0.037
0.000
0.011
0.034
0.001
-0.002
-0.010
-0.060
0.149
0.032
0.016
0.001
-0.001
-0.005
-0.003
-0.009
0.016
0.032
-0.005
0.095
0.002
0.008
0.003
0.092
-0.062
0.110
-0.024
-0.052
0.037
-0.006
0.019
0.008
-0.016
-0.038
-0.006
-0.037
0.056
0.091
-0.001
-0.055
0.031
-0.013
0.081
0.070
0.033
-0.057
0.061
0.011
-0.033
0.012
0.042
-0.032
0.079
0.014
0.089
0.054
-0.034
-0.017
-0.097
0.041
0.092
-0.007
0.026
-0.061
0.045
-0.020
-0.022
0.073
-0.080
0.080
0.019
0.055
0.082
0.002
0.026
0.019
-0.038
0.014
0.077
-0.002
-0.083
0.019
0.079
-0.050
0.092
0.082
-0.058
-0.023
-0.064
0.046
0.081
0.040
-0.030
-0.014
0.031
-0.043
0.039
0.086
-0.033
0.064
-0.010
0.010
0.083
-0.004
0.061
-0.040
-0.032
0.069
0.009
-0.014
-0.054
0.017
-0.046
0.065
0.027
0.059
-0.025
0.007
0.089
-0.027
-0.054
0.028
0.006
0.095
0.019
-0.014
0.003
0.034
0.063
0.027
-0.034
-0.065
0.079
0.017
-0.010
-0.039
-0.053
-0.031
0.049
0.058
0.034
0.024
-0.018
0.029
-0.004
-0.024
-0.015
0.088
0.024
0.028
0.050
0.000
0.043
-0.044
-0.034
0.014
0.073
0.007
0.087
-0.031
-0.005
-0.087
-0.010
0.047
0.074
0.004
0.096
0.009
0.062
0.003
-0.065
-0.053
0.088
0.046
-0.033
0.001
0.093
0.090
0.010
-0.015
-0.010
0.079
-0.013
0.015
-0.054
0.013
0.030
-0.006
0.018
-0.010
0.171
0.024
-0.060
0.024
0.137
0.045
-0.080
0.015
-0.007
0.142
-0.098
0.053
0.067
-0.047
0.076
-0.074
0.085
0.095
-0.022
0.015
0.013
0.154
-0.016
0.078
0.069
0.002
0.046
0.012
-0.033
0.076
-0.103
0.080
0.016
0.020
0.079
-0.001
0.006
0.029
-0.015
-0.035
0.095
0.115
-0.042
-0.033
0.045
0.031
-0.018
0.025
0.041
-0.049
0.099
0.022
0.076
0.019
-0.030
0.054
0.098
0.018
-0.040
0.046
-0.032
0.106
0.010
-0.017
-0.167
0.024
0.118
0.017
-0.015
-0.053
-0.017
0.025
0.113
0.035
0.080
-0.020
-0.034
0.062
-0.023
-0.104
-0.014
0.075
0.015
-0.005
0.097
0.022
0.048
0.030
0.003
-0.086
0.038
0.048
0.005
0.057
0.051
0.040
-0.008
-0.043
-0.030
0.003
0.039
0.039
0.011
0.026
-0.042
0.092
0.078
0.019
-0.075
-0.009
-0.009
0.028
-0.028
0.068
0.089
-0.040
-0.028
0.073
0.042
0.026
-0.067
0.015
-0.056
-0.019
0.031
0.013
0.047
0.067
0.017
-0.086
0.004
0.014
0.002
0.068
0.003
-0.006
-0.020
-0.009
0.081
0.091
0.043
0.019
0.015
0.075
0.010
0.032
0.017
-0.000
-0.022
0.019
0.067
-0.079
-0.039
-0.019
0.084
0.093
-0.054
0.015
-0.042
-0.074
0.049
0.072
0.070
0.014
0.014
0.026
0.033
0.040
0.044
0.037
-0.027
0.046
0.005
0.038
-0.044
0.030
0.040
-0.030
0.105
-0.070
-0.023
-0.080
0.021
0.080
0.037
-0.053
0.030
0.069
0.050
-0.114
-0.001
0.045
0.048
0.082
0.054
-0.005
-0.173
0.090
0.032
0.070
0.068
0.032
-0.052
0.031
-0.006
0.044
0.003
-0.012
-0.006
-0.024
0.001
0.098
0.023
-0.011
-0.024
0.094
0.024
-0.073
0.005
-0.048
0.045
0.117
-0.095
0.065
0.062
-0.025
0.056
-0.031
0.097
0.042
-0.005
-0.072
0.015
0.071
-0.059
-0.083
0.071
0.034
-0.028
0.009
0.044
0.068
-0.003
0.063
-0.024
-0.006
-0.006
0.041
-0.016
0.067
0.042
-0.048
-0.033
-0.016
0.015
-0.005
0.003
0.049
-0.033
0.048
0.015
-0.050
-0.010
-0.007
0.015
0.008
-0.019
-0.001
-0.028
0.062
0.017
-0.044
0.088
0.104
0.064
-0.073
-0.040
-0.015
0.018
0.110
0.029
-0.049
-0.037
-0.085
0.036
0.108
-0.000
-0.102
0.129
0.072
-0.118
-0.063
-0.005
0.076
0.094
0.034
0.031
0.014
0.001
0.015
-0.015
0.027
0.111
-0.068
0.012
0.040
-0.011
-0.004
0.068
0.004
0.055
-0.049
0.014
-0.020
0.048
0.044
0.063
-0.048
-0.003
-0.013
0.034
0.110
0.021
-0.069
-0.026
-0.037
-0.003
-0.017
0.143
0.057
-0.011
-0.006
0.033
0.032
0.004
-0.061
0.058
-0.041
0.058
0.023
0.099
0.038
0.006
0.001
0.045
0.170
0.006
-0.005
-0.112
-0.091
0.024
0.067
0.053
0.049
-0.027
-0.058
0.006
-0.038
0.047
0.078
-0.005
0.012
0.052
-0.026
0.020
0.002
0.111
-0.019
0.023
0.032
0.015
0.007
-0.148
0.030
0.101
0.002
0.034
0.104
-0.028
0.045
-0.082
-0.057
-0.027
0.004
0.112
-0.012
-0.002
-0.001
0.026
0.050
-0.047
-0.007
0.022
-0.024
0.053
0.119
-0.066
-0.063
-0.016
0.135
-0.041
0.076
0.056
-0.023
-0.067
0.001
0.032
0.010
0.110
-0.115
-0.033
0.114
0.146
-0.068
0.012
0.066
-0.085
0.005
0.031
0.021
-0.016
0.138
0.021
0.023
0.003
-0.091
0.013
0.002
0.009
0.033
-0.076
0.050
0.085
0.034
-0.043
0.007
0.038
-0.019
0.015
0.024
0.038
-0.023
0.109
0.137
-0.001
0.057
0.037
-0.075
-0.032
0.093
0.050
-0.013
-0.002
0.043
0.023
-0.003
0.080
0.036
0.014
-0.038
0.013
-0.062
0.067
0.007
0.006
0.051
-0.048
0.044
-0.001
-0.035
0.053
0.055
0.041
-0.047
-0.051
0.049
0.053
-0.007
0.106
-0.011
-0.043
0.060
0.079
0.011
0.017
0.031
0.014
-0.008
0.048
-0.003
0.050
0.127
0.014
-0.060
0.003
0.034
0.009
0.062
-0.019
0.042
0.062
0.026
-0.030
-0.007
0.033
0.000
0.012
-0.017
-0.017
-0.017
0.049
0.010
0.110
0.004
0.031
-0.022
0.008
0.043
0.022
0.098
0.025
-0.077
0.066
-0.006
-0.017
0.045
-0.039
0.002
0.062
-0.009
-0.004
0.084
0.069
-0.014
0.055
0.023
0.052
0.081
-0.013
0.002
-0.031
-0.031
0.047
0.068
-0.016
-0.031
0.007
0.035
-0.021
-0.085
0.078
0.031
0.039
-0.125
0.099
-0.060
0.011
0.057
0.105
0.068
-0.141
-0.002
0.024
0.099
0.001
0.060
0.017
-0.004
0.036
0.053
-0.033
0.107
-0.001
-0.068
0.068
0.041
-0.012
0.039
0.003
-0.053
0.003
0.024
0.133
-0.015
-0.034
-0.038
-0.021
0.073
-0.032
0.002
0.102
-0.023
-0.009
0.033
0.016
0.025
0.076
-0.075
0.044
-0.004
-0.027
-0.004
0.173
0.054
-0.062
-0.010
0.066
-0.054
0.025
0.050
0.019
0.049
0.026
0.002
-0.042
0.018
-0.058
0.102
0.026
0.039
-0.035
-0.013
0.124
0.030
0.011
0.013
-0.020
0.029
0.086
0.033
0.022
0.004
0.045
0.026
-0.078
0.081
-0.021
0.057
0.153
-0.085
-0.053
-0.002
0.059
0.024
0.002
0.013
0.124
-0.014
0.106
0.053
0.007
0.040
0.017
-0.127
-0.005
0.049
0.092
0.088
-0.024
0.040
-0.066
0.045
-0.093
0.034
0.030
0.076
-0.066
0.026
0.037
0.071
-0.040
-0.034
-0.005
-0.002
0.038
-0.065
0.221
-0.031
0.050
-0.040
0.023
0.028
0.049
0.045
-0.020
0.038
0.041
-0.004
0.033
0.007
0.077
0.043
-0.044
0.059
-0.029
-0.029
0.007
-0.010
-0.026
0.040
0.052
0.071
-0.029
-0.041
0.056
-0.060
0.082
-0.005
0.102
-0.015
0.029
0.052
-0.047
-0.028
-0.026
-0.026
0.043
-0.051
0.123
-0.026
-0.064
0.096
0.024
-0.033
0.057
0.021
0.003
0.045
-0.022
0.091
-0.081
-0.113
0.063
0.075
0.044
-0.113
-0.015
0.025
0.036
-0.013
0.100
0.017
0.039
-0.058
0.029
0.099
-0.007
-0.023
0.021
0.122
-0.018
-0.043
-0.058
0.021
0.049
0.042
0.049
-0.039
0.019
0.060
-0.097
0.012
-0.014
0.103
0.095
0.036
-0.035
0.050
-0.013
0.084
-0.024
0.023
-0.016
-0.056
-0.021
0.016
-0.031
-0.001
0.115
0.017
-0.064
0.023
0.062
0.027
-0.036
0.095
0.009
0.044
0.081
-0.010
0.047
0.028
-0.027
0.038
0.150
-0.092
-0.030
0.023
0.046
0.072
0.027
-0.060
0.049
-0.064
0.094
0.080
0.020
0.007
-0.062
-0.025
-0.072
0.032
0.072
0.050
-0.057
0.047
-0.034
0.035
0.041
0.053
0.038
0.047
-0.012
-0.017
0.055
-0.001
0.047
-0.015
0.057
-0.031
0.013
0.119
-0.003
-0.028
0.018
-0.028
0.032
-0.017
-0.060
0.017
0.088
0.020
0.088
-0.046
0.021
0.023
0.057
-0.010
-0.012
0.052
0.024
-0.007
0.073
-0.093
-0.074
0.034
0.029
-0.000
0.047
-0.026
-0.033
-0.014
0.101
-0.023
-0.032
0.038
0.040
-0.010
-0.028
-0.090
0.073
-0.002
0.111
-0.075
0.018
0.029
-0.029
-0.014
-0.010
0.003
0.034
0.046
0.022
-0.040
0.085
0.074
0.001
0.112
-0.005
-0.092
0.088
0.062
0.014
0.005
0.016
-0.022
-0.034
0.032
0.014
-0.009
0.090
0.007
0.012
-0.020
0.055
-0.030
0.069
0.111
-0.016
-0.008
0.055
0.079
0.022
-0.029
-0.005
0.120
-0.019
0.075
-0.049
0.138
0.078
-0.125
0.021
-0.134
0.009
0.076
0.072
0.037
0.019
-0.011
0.016
0.006
-0.054
0.022
0.158
0.013
0.053
-0.026
0.033
-0.015
0.019
0.038
0.045
0.056
0.054
0.020
0.005
-0.008
0.134
-0.008
0.028
0.014
0.108
0.013
-0.027
-0.034
0.063
-0.035
-0.008
0.089
-0.050
0.044
-0.034
-0.003
-0.014
-0.030
0.158
-0.010
-0.026
0.005
0.022
0.048
0.050
0.032
-0.012
0.017
0.023
-0.017
0.026
0.044
0.007
0.013
0.038
0.111
-0.053
0.005
-0.114
0.055
0.023
0.035
0.033
-0.049
-0.023
0.091
0.046
0.017
0.052
-0.005
-0.036
-0.042
0.001
-0.060
-0.030
0.046
0.123
-0.018
0.073
0.059
-0.013
0.039
-0.014
0.046
0.030
0.010
-0.043
0.136
-0.036
0.036
-0.007
0.110
0.061
-0.084
0.012
0.034
0.021
0.042
-0.016
-0.015
0.067
-0.043
0.078
0.001
-0.007
-0.046
0.047
-0.005
0.114
0.008
0.039
-0.003
0.067
0.089
-0.087
0.021
0.029
-0.048
0.025
0.096
0.060
0.018
-0.063
0.029
0.143
0.116
-0.073
-0.047
0.013
0.055
0.050
-0.051
-0.003
0.087
0.005
-0.029
0.043
-0.045
0.010
0.074
0.006
-0.021
0.023
0.103
0.008
-0.003
0.079
0.033
-0.043
-0.057
-0.000
-0.007
-0.026
-0.009
0.046
0.070
-0.067
-0.017
-0.031
0.008
0.054
-0.039
-0.055
0.057
0.014
-0.004
0.102
0.120
0.043
-0.052
-0.005
0.012
0.003
0.056
-0.010
-0.023
0.034
0.107
0.067
0.024
-0.054
-0.036
-0.030
-0.018
0.028
0.079
-0.049
-0.007
0.046
0.001
0.036
0.017
-0.058
0.032
0.106
-0.135
-0.013
0.183
-0.020
0.046
-0.009
-0.093
0.100
0.097
0.012
-0.073
-0.016
0.087
0.038
-0.099
0.032
0.095
0.034
0.026
-0.036
-0.044
0.019
0.079
0.026
0.057
0.044
-0.003
0.008
0.049
0.059
-0.012
-0.031
0.076
0.037
-0.034
0.130
0.042
-0.020
-0.062
0.042
0.061
0.068
-0.027
-0.032
0.073
0.108
-0.005
-0.044
-0.097
0.170
0.095
-0.025
-0.017
0.062
0.053
-0.019
-0.096
0.064
0.090
-0.013
-0.004
-0.085
0.036
0.073
0.019
-0.024
0.062
-0.057
0.056
0.030
0.046
0.045
0.045
-0.036
0.005
-0.021
0.046
0.117
0.068
0.023
-0.016
0.030
-0.103
0.062
0.003
0.063
0.118
0.070
-0.072
-0.054
0.026
-0.026
-0.055
0.066
0.016
0.089
0.001
-0.076
0.072
-0.023
0.022
0.032
0.023
-0.035
0.020
-0.014
0.040
-0.009
0.056
-0.031
0.102
-0.077
0.000
0.044
-0.027
0.056
0.039
0.075
0.024
0.008
-0.041
0.123
0.037
0.032
-0.012
-0.013
0.027
-0.032
0.035
0.125
0.083
0.057
-0.029
-0.059
0.010
0.044
0.071
-0.074
0.013
-0.026
0.007
0.029
0.049
-0.019
0.029
0.016
-0.041
0.063
0.175
0.015
-0.048
-0.009
-0.038
-0.057
0.070
0.060
0.121
0.055
0.004
-0.021
0.075
0.046
-0.098
-0.030
0.079
0.019
-0.036
-0.031
-0.015
-0.018
0.110
-0.023
0.073
-0.005
0.047
0.031
0.010
-0.006
0.002
0.066
-0.037
0.112
0.013
0.083
-0.002
0.064
-0.065
-0.074
-0.001
0.042
0.045
0.001
0.012
0.073
-0.067
0.093
-0.040
0.053
0.003
-0.084
0.075
0.092
0.087
0.004
-0.082
0.087
0.022
0.074
-0.049
0.011
-0.080
0.048
-0.046
-0.004
0.079
-0.027
0.104
-0.004
0.064
-0.054
-0.061
0.037
0.083
0.013
-0.097
0.164
0.016
-0.045
-0.052
-0.003
0.053
0.045
0.017
-0.078
-0.053
-0.041
0.058
0.058
0.133
0.029
0.046
0.021
-0.034
0.015
0.084
0.069
0.077
-0.049
-0.087
-0.022
0.045
0.024
0.081
-0.006
-0.050
-0.015
0.031
0.049
-0.040
-0.024
0.036
0.017
0.060
-0.053
0.071
0.058
-0.028
-0.008
0.006
0.016
0.040
0.028
-0.004
0.093
-0.126
0.116
0.009
-0.012
0.054
0.055
-0.036
-0.046
0.031
0.034
0.005
-0.044
0.018
0.079
-0.126
-0.021
0.070
0.056
0.020
0.026
-0.002
0.004
0.052
0.010
0.002
0.011
0.055
-0.053
-0.047
0.052
-0.028
0.007
0.083
0.032
-0.040
-0.026
0.000
0.072
0.104
-0.041
0.054
-0.057
-0.043
0.059
0.152
0.070
-0.097
0.034
0.011
0.082
-0.028
-0.010
-0.001
0.060
0.109
0.054
-0.052
0.120
-0.062
-0.036
-0.052
0.087
0.051
0.052
-0.083
0.107
-0.035
-0.019
0.027
0.057
0.021
0.032
0.077
-0.109
0.094
-0.028
-0.050
0.001
0.080
-0.018
-0.022
0.060
0.030
0.015
0.042
0.003
-0.104
0.053
0.019
-0.030
-0.026
0.083
-0.069
0.058
0.103
-0.054
0.096
0.013
0.007
0.015
0.002
0.025
0.001
0.040
0.066
0.005
-0.028
-0.040
0.077
-0.029
0.037
-0.011
0.070
0.024
-0.021
0.018
0.009
-0.050
-0.040
-0.007
0.026
-0.014
0.114
-0.050
0.050
0.081
-0.008
0.081
-0.065
-0.043
-0.010
0.024
0.027
0.112
0.036
-0.011
-0.074
-0.003
0.053
0.097
0.017
-0.042
-0.004
-0.043
-0.037
-0.038
0.019
0.136
-0.014
-0.019
0.097
-0.121
0.044
0.103
0.035
0.081
0.069
-0.045
-0.027
0.105
0.022
0.015
0.072
0.025
0.073
-0.003
0.022
-0.002
0.014
0.004
0.034
-0.003
-0.056
0.076
0.029
0.013
0.078
0.041
0.011
0.073
-0.067
0.044
0.125
0.073
0.056
0.033
-0.068
-0.006
0.040
0.014
-0.013
0.040
0.029
-0.049
-0.047
0.063
0.049
0.107
0.041
-0.064
-0.041
-0.011
0.060
0.123
0.000
0.012
-0.048
0.006
0.026
0.042
0.040
0.030
0.002
0.011
-0.045
0.088
0.014
-0.104
0.032
0.037
-0.019
-0.000
0.015
0.022
0.057
0.072
-0.038
-0.037
-0.018
0.066
0.026
-0.027
0.043
0.031
-0.044
0.099
-0.045
-0.064
0.104
0.026
-0.034
0.010
0.044
0.112
-0.029
-0.063
0.052
0.173
0.039
-0.071
0.027
0.065
0.008
-0.030
0.070
0.021
0.014
0.033
-0.044
0.015
-0.052
0.071
0.078
0.005
0.006
-0.019
0.030
0.066
-0.101
-0.039
0.120
0.044
0.062
0.040
0.036
0.038
-0.039
0.040
0.069
0.006
-0.114
0.086
-0.026
0.111
-0.085
-0.044
0.064
0.094
0.049
-0.011
0.046
0.044
0.064
0.105
0.039
0.070
0.006
0.003
0.112
0.013
-0.006
-0.006
0.034
0.093
0.008
-0.018
-0.097
0.034
-0.026
0.073
0.036
-0.007
-0.026
0.016
0.123
0.047
-0.000
0.040
-0.062
-0.045
0.092
0.001
0.075
-0.042
-0.048
-0.010
0.107
-0.020
-0.073
-0.052
0.119
0.186
-0.022
-0.048
-0.004
-0.034
-0.081
0.057
0.050
-0.043
0.073
0.029
0.058
0.018
0.025
0.022
-0.046
0.029
0.018
-0.017
0.099
0.056
0.058
-0.045
-0.016
0.051
0.058
-0.041
0.087
0.101
-0.074
-0.002
-0.024
-0.017
0.103
0.012
0.010
0.052
0.030
-0.024
0.025
0.010
-0.063
0.020
0.049
0.043
0.085
0.019
-0.001
0.007
-0.017
-0.033
-0.029
0.022
0.120
0.059
-0.026
0.042
-0.005
-0.028
0.084
0.052
0.004
0.048
0.069
-0.001
0.015
0.027
0.065
-0.026
0.008
0.047
0.090
-0.007
0.052
-0.011
-0.028
-0.040
0.131
0.001
-0.011
0.011
0.010
0.060
-0.034
0.031
0.040
0.013
0.001
0.112
0.002
-0.040
0.039
0.079
0.044
-0.032
0.013
0.090
-0.034
-0.039
0.074
0.001
-0.039
0.085
0.068
0.008
-0.039
-0.020
0.085
-0.045
0.049
-0.064
-0.014
0.092
0.085
0.084
-0.021
-0.027
-0.039
-0.064
0.047
0.065
0.002
0.063
-0.042
0.045
0.011
0.028
0.021
0.103
-0.042
0.002
-0.041
0.034
0.042
-0.003
0.092
0.012
-0.027
-0.039
-0.034
0.045
0.022
0.009
-0.011
0.137
0.027
0.009
0.004
-0.066
0.096
0.020
0.005
-0.001
0.023
0.015
0.037
0.017
0.018
-0.023
0.052
-0.020
-0.002
-0.007
0.088
-0.052
-0.012
0.059
-0.043
-0.060
0.033
0.139
0.101
-0.067
-0.074
-0.044
0.099
-0.000
0.085
0.007
-0.004
-0.050
0.056
0.044
0.077
-0.091
-0.049
-0.012
0.002
0.060
-0.001
0.063
0.033
-0.061
0.010
-0.060
0.095
0.009
0.017
-0.057
-0.052
0.146
0.064
-0.004
0.011
0.021
0.030
-0.011
-0.039
-0.030
-0.014
0.050
0.113
0.098
-0.035
-0.002
-0.052
0.007
0.099
0.018
-0.028
-0.011
0.083
-0.016
0.055
0.055
-0.059
0.051
0.001
0.133
-0.019
-0.041
0.029
-0.036
0.043
-0.017
0.053
-0.027
0.045
0.003
0.040
0.087
-0.046
0.069
0.037
0.027
0.041
-0.018
0.008
0.074
0.086
0.070
-0.016
-0.024
0.000
0.052
0.047
-0.037
-0.030
0.032
-0.015
-0.016
0.047
-0.015
-0.009
0.024
0.091
0.002
0.010
0.037
0.011
-0.064
0.094
0.029
0.154
0.029
-0.001
-0.115
0.123
-0.039
0.028
0.046
0.038
0.086
-0.072
0.028
-0.040
0.004
-0.021
0.013
0.082
0.106
-0.019
-0.137
0.147
-0.084
0.070
-0.009
0.059
0.077
-0.031
0.068
-0.013
-0.013
-0.049
-0.012
-0.038
-0.022
0.017
0.084
0.058
0.006
0.016
-0.039
0.012
0.036
0.053
-0.055
-0.026
0.067
0.012
0.018
0.081
0.002
-0.032
-0.012
-0.048
0.023
-0.030
0.009
-0.063
0.047
0.030
-0.010
0.026
0.011
-0.019
0.056
0.009
-0.037
0.072
-0.009
0.045
0.061
-0.034
0.046
0.119
0.021
-0.015
0.043
-0.029
0.007
0.102
0.050
0.012
0.033
-0.009
-0.114
0.001
0.032
0.084
0.101
-0.002
-0.075
0.019
0.079
0.041
0.014
-0.002
0.024
0.021
-0.008
0.059
-0.001
-0.042
0.047
0.079
0.121
-0.078
-0.097
-0.083
0.100
0.030
-0.037
0.059
0.050
0.045
0.031
0.042
-0.000
0.078
-0.041
-0.116
0.070
0.078
0.018
0.005
0.019
0.071
-0.078
-0.003
-0.026
0.102
0.218
-0.023
0.001
0.003
0.023
-0.030
-0.003
0.068
-0.015
0.100
0.030
-0.044
-0.024
0.030
0.082
-0.022
-0.071
0.056
0.039
0.036
-0.014
0.073
0.002
-0.047
-0.098
-0.027
0.104
0.052
0.053
-0.021
0.050
-0.054
0.073
-0.006
0.001
0.047
-0.031
0.080
0.077
-0.003
-0.080
0.070
0.011
-0.022
-0.087
0.017
0.081
0.060
0.009
-0.145
0.033
-0.010
0.065
0.121
0.040
0.027
-0.088
0.048
0.062
0.038
0.034
0.034
0.049
-0.076
0.004
0.082
0.065
0.074
-0.078
-0.022
0.054
0.135
-0.082
-0.037
0.085
0.030
-0.015
-0.025
0.011
0.059
0.046
-0.031
0.005
0.014
0.069
-0.007
-0.022
0.051
0.019
0.051
-0.024
0.100
0.137
-0.070
0.035
-0.022
0.044
0.003
0.007
0.014
0.050
0.026
0.054
0.077
-0.029
0.014
0.098
0.040
-0.057
0.017
0.031
0.062
0.025
0.018
0.049
-0.010
0.058
0.063
0.109
-0.081
0.013
-0.062
0.041
0.060
-0.027
0.082
0.033
0.059
0.071
-0.041
-0.002
0.046
0.042
0.052
-0.077
0.051
0.019
0.018
0.101
-0.032
0.095
0.034
-0.019
-0.012
-0.021
0.097
-0.013
0.016
0.039
0.010
0.043
-0.046
0.089
-0.005
0.014
0.044
-0.028
0.011
0.031
0.113
0.032
0.020
-0.076
0.064
0.049
-0.053
-0.072
0.031
0.013
0.068
-0.114
0.093
0.049
-0.015
-0.020
0.125
-0.045
-0.040
0.122
-0.046
-0.022
0.006
0.043
0.114
0.095
-0.013
-0.015
0.034
0.043
-0.055
0.027
-0.044
0.038
0.081
-0.001
-0.014
0.013
-0.082
-0.012
0.051
0.074
0.038
0.031
-0.058
0.051
0.013
0.013
-0.039
-0.026
-0.039
0.053
0.026
-0.066
0.038
0.089
0.046
0.014
-0.011
-0.020
-0.011
0.057
-0.003
0.030
-0.022
0.050
0.100
-0.055
-0.007
-0.025
0.007
0.082
0.030
-0.042
0.038
-0.067
-0.008
0.098
-0.070
0.045
0.017
0.073
-0.045
0.019
0.092
-0.012
0.064
0.053
-0.001
0.061
-0.002
-0.063
0.077
0.088
-0.021
-0.006
0.037
-0.034
0.023
0.119
-0.012
0.077
0.029
-0.009
-0.058
-0.046
0.040
0.029
0.031
0.087
0.099
0.011
-0.099
-0.021
-0.057
0.093
0.100
0.063
0.068
-0.042
0.006
-0.056
-0.014
0.014
0.033
0.074
0.113
0.065
0.052
-0.046
0.084
0.060
0.038
-0.100
0.083
0.104
-0.026
0.062
0.025
-0.021
-0.005
-0.018
-0.003
0.095
0.019
-0.013
0.115
-0.026
0.012
0.005
0.077
-0.102
-0.026
0.015
0.073
0.095
-0.014
0.073
-0.083
0.055
0.037
0.013
0.065
0.014
0.041
0.119
-0.025
0.058
-0.009
0.002
-0.028
0.009
0.088
-0.030
-0.043
-0.000
-0.015
0.012
0.072
-0.050
0.102
-0.014
-0.046
0.102
-0.064
0.020
-0.047
0.140
0.065
0.035
0.080
-0.019
-0.031
-0.049
0.055
0.008
-0.095
-0.007
-0.020
0.020
0.062
0.107
-0.022
0.038
-0.092
-0.023
0.019
0.033
0.052
0.039
0.063
-0.052
-0.067
0.062
-0.013
0.076
-0.005
-0.068
0.010
0.052
0.094
-0.028
0.069
0.019
-0.065
-0.061
-0.038
0.039
0.055
0.035
0.111
0.056
-0.008
-0.022
0.019
-0.017
0.039
-0.104
0.058
0.068
0.035
-0.065
0.014
0.027
0.046
-0.042
-0.026
0.005
0.067
0.061
-0.019
-0.077
0.085
0.136
0.062
-0.019
0.038
-0.051
-0.001
-0.020
0.061
-0.016
0.055
0.066
0.022
0.040
0.003
-0.014
-0.023
-0.015
0.071
0.021
0.054
0.064
-0.005
-0.071
0.023
0.006
0.039
-0.021
0.081
0.098
-0.008
-0.087
0.099
-0.039
0.090
-0.049
0.014
0.057
0.034
0.035
0.006
-0.012
0.069
-0.021
0.023
0.061
0.095
0.006
0.004
0.053
0.077
0.043
-0.046
-0.105
0.058
0.023
0.067
0.105
-0.006
0.031
0.001
0.054
0.045
-0.005
-0.099
0.082
0.025
0.083
-0.028
-0.040
0.092
-0.012
0.136
-0.018
-0.006
0.030
0.066
-0.028
-0.052
0.036
0.105
0.061
-0.023
-0.036
-0.062
0.029
-0.041
0.083
0.103
0.017
-0.071
-0.071
0.054
0.119
0.019
0.022
-0.009
0.004
0.006
-0.029
0.013
-0.056
0.053
0.116
-0.024
0.052
-0.035
-0.150
0.093
0.044
0.071
0.025
-0.047
0.013
0.091
0.093
-0.038
0.046
-0.047
-0.025
-0.080
0.089
0.145
-0.054
0.012
-0.060
0.101
-0.025
0.035
-0.035
0.057
0.063
-0.028
0.152
0.075
-0.108
-0.036
0.020
-0.061
-0.007
0.072
-0.004
-0.036
0.000
0.080
-0.010
0.062
0.051
-0.033
0.120
0.031
0.033
-0.030
0.018
-0.037
0.090
-0.050
0.044
0.123
-0.040
-0.045
0.031
-0.026
0.011
0.067
0.073
-0.007
-0.038
0.014
0.036
0.039
0.042
0.071
-0.032
0.039
-0.016
-0.031
-0.027
0.070
0.090
0.019
0.010
0.021
-0.008
0.034
0.131
-0.051
0.023
-0.023
0.038
0.050
-0.022
-0.020
0.059
0.037
0.037
0.017
0.034
0.030
-0.044
0.016
0.022
0.068
0.016
-0.009
-0.056
-0.026
-0.002
-0.009
0.007
-0.000
0.009
0.010
0.009
0.001
0.051
0.008
-0.037
0.036
0.097
-0.011
-0.010
-0.012
0.014
-0.012
0.037
0.014
-0.063
-0.037
0.038
-0.003
0.023
0.026
-0.053
0.025
0.000
0.039
0.106
0.036
0.031
-0.009
0.033
0.040
0.015
0.022
0.063
0.037
0.029
-0.010
0.019
-0.048
0.051
-0.011
-0.017
-0.035
0.024
-0.004
0.029
0.027
0.043
-0.001
-0.064
0.032
0.153
-0.043
0.030
0.016
-0.020
0.106
0.005
-0.061
0.005
0.073
0.035
0.016
-0.062
0.023
0.059
-0.002
0.049
0.010
-0.020
0.023
0.073
-0.012
0.010
0.051
0.032
0.142
0.031
-0.046
0.007
0.089
0.042
0.003
-0.029
0.020
0.101
0.003
0.017
0.065
-0.022
0.079
0.028
-0.044
-0.068
0.057
-0.006
-0.013
0.028
0.037
0.012
-0.036
0.035
0.016
0.063
-0.007
-0.011
0.070
-0.084
-0.043
0.122
0.068
-0.005
0.045
-0.021
0.015
0.065
-0.012
0.003
0.062
0.014
0.057
-0.116
0.041
0.061
-0.033
0.047
-0.029
0.065
0.031
0.009
0.009
0.067
-0.117
-0.073
0.006
0.011
0.045
-0.052
-0.035
0.096
-0.002
-0.051
0.037
0.015
-0.066
0.071
-0.056
0.050
0.091
-0.026
-0.006
0.087
0.100
-0.074
0.048
0.057
-0.060
-0.037
0.083
0.033
-0.021
-0.040
-0.006
0.090
-0.065
0.094
0.009
0.022
-0.022
-0.102
0.067
-0.055
0.038
0.105
0.012
-0.084
-0.022
-0.044
0.054
-0.010
0.042
0.048
-0.011
-0.010
-0.020
0.028
0.028
0.047
0.061
-0.094
0.033
0.004
-0.015
-0.042
0.043
0.067
-0.010
0.061
-0.039
0.017
0.036
0.017
0.030
0.024
0.051
0.069
0.044
0.021
0.062
-0.091
0.026
0.029
-0.013
0.039
-0.000
-0.001
-0.007
0.019
0.069
-0.009
-0.057
-0.075
-0.052
0.050
0.039
0.030
0.042
0.084
-0.028
-0.121
0.021
0.031
0.017
0.045
0.170
-0.047
-0.028
0.047
-0.030
0.089
-0.068
-0.028
0.007
-0.018
0.089
-0.071
-0.038
-0.069
0.089
0.120
-0.015
-0.024
-0.041
0.115
0.078
-0.060
0.013
-0.021
-0.025
-0.034
0.038
0.095
0.054
-0.028
-0.019
-0.069
0.066
0.074
-0.004
0.015
0.035
0.063
0.021
0.074
-0.049
-0.072
-0.029
0.037
0.086
-0.086
0.038
0.112
-0.003
-0.031
0.120
-0.013
-0.023
-0.020
0.020
0.038
0.074
0.086
-0.019
-0.110
0.023
0.090
0.103
0.085
-0.044
-0.083
0.091
-0.001
0.105
0.093
-0.033
0.006
0.104
-0.032
-0.001
0.056
-0.040
-0.005
0.096
-0.054
0.071
0.004
0.009
0.095
0.004
0.030
0.017
-0.007
0.041
0.031
0.012
0.060
0.066
-0.000
-0.125
0.166
0.003
0.067
-0.119
0.014
0.138
-0.025
0.054
-0.002
0.017
-0.041
0.076
0.068
0.039
-0.053
-0.053
0.015
0.065
0.030
0.049
0.027
-0.005
0.006
0.029
-0.040
-0.017
0.067
0.082
-0.037
-0.069
-0.052
0.002
0.012
0.028
0.009
-0.060
0.034
-0.046
0.163
-0.021
0.039
0.034
0.028
-0.051
-0.006
0.057
0.065
0.021
0.053
0.043
0.033
-0.084
-0.058
0.144
-0.016
-0.004
0.007
-0.009
0.058
0.002
-0.074
0.081
0.005
0.030
-0.009
-0.137
-0.001
-0.042
0.062
0.080
0.041
0.051
0.053
0.032
0.015
0.020
0.069
-0.090
-0.022
0.046
0.058
-0.004
0.022
0.030
0.120
-0.056
-0.026
0.033
0.081
-0.018
-0.016
0.058
-0.030
0.057
0.013
0.035
0.124
0.030
-0.051
0.041
-0.025
-0.046
0.032
-0.000
0.098
0.002
0.086
0.020
-0.045
-0.078
0.074
0.088
-0.070
0.064
0.048
-0.107
0.022
0.154
-0.059
-0.029
0.114
-0.015
-0.004
-0.008
0.075
0.073
0.033
-0.079
0.004
0.050
-0.010
0.047
0.020
-0.016
-0.043
0.033
0.076
-0.048
-0.038
-0.048
-0.045
0.031
-0.024
-0.010
0.012
0.074
0.081
-0.087
0.053
-0.065
0.033
-0.010
0.123
0.093
0.070
-0.071
-0.029
-0.007
0.043
0.062
0.070
-0.014
0.008
-0.017
-0.014
0.048
0.076
0.058
0.028
-0.035
0.053
0.058
0.038
0.020
0.012
-0.032
0.078
0.009
0.065
0.027
0.015
0.049
-0.011
-0.023
-0.034
-0.009
0.040
0.117
-0.013
0.042
-0.048
0.041
-0.001
0.047
0.050
0.043
0.046
-0.066
-0.010
0.052
-0.010
0.012
-0.019
0.024
0.021
0.098
0.059
0.035
-0.048
0.041
0.030
-0.002
0.026
0.050
-0.001
0.042
0.043
-0.051
0.099
0.001
0.069
-0.049
-0.068
-0.030
0.067
0.056
0.060
0.037
0.004
0.027
0.100
-0.008
0.035
0.036
-0.017
-0.031
0.033
-0.067
0.100
-0.005
-0.009
-0.014
0.031
0.051
-0.008
0.030
0.007
-0.069
0.057
-0.023
0.010
-0.025
0.048
0.039
-0.116
-0.031
0.022
0.041
0.056
-0.037
0.018
0.019
-0.007
-0.041
-0.042
-0.007
0.001
0.022
0.046
0.053
0.020
0.045
0.036
-0.005
0.007
0.050
-0.033
-0.002
0.016
0.030
-0.023
0.091
0.023
0.055
-0.003
0.053
-0.051
0.059
-0.023
0.015
0.035
0.028
0.050
0.009
0.046
-0.053
-0.018
0.076
0.029
0.022
0.046
-0.034
0.014
-0.045
-0.077
-0.057
0.128
0.092
0.136
-0.050
-0.024
-0.080
0.044
0.089
0.024
-0.009
-0.116
0.074
0.009
0.046
-0.032
0.049
0.144
0.061
-0.126
-0.054
0.084
0.059
-0.015
0.015
-0.055
-0.004
0.114
-0.010
0.006
0.054
-0.015
0.043
0.049
-0.021
0.011
0.124
0.056
-0.056
0.040
0.011
0.038
0.051
0.129
-0.016
-0.031
-0.075
0.097
0.012
0.016
0.099
-0.033
-0.032
0.029
0.052
-0.001
-0.006
0.057
-0.088
0.039
-0.030
0.043
0.026
0.001
0.029
-0.020
0.010
0.093
-0.014
0.049
0.095
-0.007
-0.105
0.045
0.048
0.041
0.111
0.081
-0.027
0.048
0.060
-0.004
-0.009
-0.071
0.120
0.052
0.009
0.058
0.028
-0.075
-0.031
0.027
0.055
-0.081
-0.023
-0.038
-0.016
0.081
0.083
0.033
-0.034
-0.017
0.012
0.087
0.067
-0.066
0.069
0.065
0.049
0.077
0.003
0.022
-0.069
-0.028
-0.009
0.028
0.095
0.008
-0.066
0.012
-0.019
0.009
0.037
0.131
-0.001
-0.021
-0.017
0.042
0.011
0.096
0.037
-0.037
-0.008
-0.018
-0.010
0.000
0.003
0.081
0.078
-0.094
0.031
-0.067
-0.009
-0.015
0.130
0.082
0.014
-0.058
0.049
0.003
0.027
0.024
0.142
-0.019
-0.023
-0.038
-0.016
0.055
0.065
0.034
0.035
-0.041
0.043
-0.044
0.031
0.003
0.052
0.115
0.001
0.030
-0.041
0.021
-0.060
0.082
0.060
-0.011
0.024
0.006
0.011
0.129
0.016
-0.067
0.066
-0.019
0.084
0.019
0.061
-0.024
-0.040
0.068
-0.019
0.060
-0.000
0.029
0.030
0.069
0.006
0.036
0.025
0.064
-0.059
0.026
0.028
0.029
0.031
-0.039
0.094
0.033
-0.032
-0.012
-0.013
0.017
-0.001
0.002
0.115
-0.003
-0.053
0.058
-0.017
0.003
0.070
-0.091
0.069
-0.015
0.013
0.073
0.034
-0.124
-0.027
0.147
0.009
0.036
-0.048
-0.042
0.050
0.044
0.056
0.019
0.029
-0.043
0.110
-0.052
0.046
0.043
-0.035
0.080
0.010
-0.010
0.065
-0.049
0.011
0.022
0.054
-0.060
0.045
0.119
0.108
0.076
-0.015
-0.078
0.100
0.021
-0.006
0.033
-0.029
-0.012
0.035
0.050
-0.069
-0.128
-0.009
0.050
0.034
0.006
0.105
-0.040
0.007
0.077
-0.032
0.037
0.044
0.059
-0.011
0.036
-0.011
0.044
0.001
0.003
0.031
0.049
0.058
-0.011
0.038
-0.006
0.065
0.091
0.067
0.002
0.013
0.023
0.019
-0.057
0.094
0.134
-0.018
0.012
-0.014
0.009
-0.040
-0.009
-0.009
0.069
0.055
0.042
0.083
-0.008
0.013
0.017
-0.035
0.098
-0.005
0.003
0.028
-0.044
-0.021
0.032
0.035
-0.050
0.075
0.049
0.026
-0.005
0.102
0.009
-0.004
0.125
-0.043
-0.021
0.038
0.022
0.026
-0.045
0.096
0.031
-0.059
-0.020
-0.019
0.038
0.073
0.016
-0.025
-0.063
0.035
0.008
0.116
0.064
-0.020
0.052
0.043
-0.047
0.048
0.022
0.033
-0.019
0.010
0.040
0.052
0.076
0.021
-0.096
0.015
0.015
0.061
-0.033
-0.007
0.006
0.010
0.076
-0.008
-0.014
0.084
-0.054
0.006
-0.071
0.016
0.045
0.038
0.002
0.009
-0.044
0.074
0.085
-0.039
0.030
0.067
0.082
-0.053
0.076
-0.063
-0.076
0.072
0.079
-0.039
-0.010
0.005
0.038
-0.052
0.037
0.041
0.015
0.050
-0.092
-0.048
0.052
0.119
0.018
-0.040
0.029
-0.090
0.052
-0.020
-0.062
0.065
-0.025
0.005
0.078
0.018
-0.032
0.044
0.020
0.003
0.072
-0.001
0.045
0.012
-0.011
0.039
-0.000
0.046
0.045
0.069
0.049
0.015
0.056
0.042
-0.020
-0.046
0.047
-0.019
0.100
0.024
-0.021
0.032
-0.086
0.045
0.028
0.068
0.078
0.016
-0.051
-0.070
0.003
0.116
-0.011
-0.038
-0.083
-0.008
-0.015
0.097
0.026
-0.011
-0.017
0.025
0.059
-0.054
0.052
0.061
0.065
-0.133
-0.005
0.053
0.065
0.038
-0.039
0.064
0.007
0.140
-0.069
0.019
0.036
0.056
-0.006
-0.068
0.007
0.074
0.025
0.029
0.082
0.053
0.015
0.001
-0.108
0.048
-0.089
0.068
0.150
0.006
-0.022
-0.027
-0.003
-0.024
0.006
0.043
0.021
0.031
-0.023
0.025
0.038
-0.028
-0.062
0.019
-0.038
-0.017
-0.053
0.084
0.067
0.019
-0.013
-0.006
0.105
0.011
0.003
0.042
-0.011
0.000
0.059
-0.018
0.033
-0.032
0.018
-0.026
0.095
-0.003
-0.038
0.030
0.033
0.035
0.015
0.040
-0.056
0.018
0.119
0.064
0.045
-0.040
-0.019
-0.057
0.087
0.063
-0.004
0.051
0.032
0.110
0.033
0.015
-0.017
0.002
-0.129
0.131
0.037
-0.048
0.090
0.140
0.004
0.031
-0.052
-0.076
0.015
-0.060
-0.031
0.049
0.029
-0.027
-0.006
-0.025
-0.058
0.016
-0.046
0.020
0.115
0.049
-0.070
0.079
-0.070
0.054
0.073
0.040
0.008
0.081
0.028
0.024
0.054
0.043
-0.079
0.018
0.034
0.058
0.017
0.002
0.014
0.031
-0.014
-0.073
0.016
0.053
0.005
0.059
0.020
-0.003
-0.005
0.112
-0.019
-0.086
0.025
0.122
-0.062
-0.102
0.058
0.047
0.001
-0.067
0.003
-0.017
0.050
0.096
0.022
-0.050
0.049
0.013
0.050
0.083
-0.067
0.010
-0.021
0.008
0.095
0.061
-0.026
-0.048
0.100
0.063
-0.028
-0.057
0.005
0.074
0.031
0.008
0.009
0.051
0.009
-0.045
-0.010
0.014
0.036
0.065
0.060
0.028
-0.017
-0.029
0.055
0.081
-0.051
0.066
0.045
-0.010
-0.050
0.146
0.062
0.007
-0.073
0.017
-0.010
0.024
-0.037
0.037
0.009
0.064
-0.015
-0.086
0.019
0.088
-0.109
0.003
0.040
0.094
0.058
0.057
-0.008
0.004
-0.037
0.049
0.094
0.015
-0.002
0.069
0.000
-0.042
-0.005
0.080
-0.074
0.001
0.054
-0.015
-0.002
0.121
0.010
0.031
-0.026
0.005
-0.116
0.046
0.080
0.071
-0.080
0.051
0.025
0.082
0.077
-0.065
0.009
0.054
-0.145
0.122
0.081
-0.001
0.050
0.043
0.040
-0.039
-0.082
0.049
0.029
-0.035
-0.041
0.113
0.021
-0.069
0.058
-0.021
0.058
0.006
0.083
-0.120
0.038
0.050
0.004
0.068
-0.034
0.013
0.031
0.112
0.004
0.045
0.066
0.127
0.038
-0.048
0.010
-0.064
0.050
0.012
-0.061
-0.037
0.054
-0.071
0.051
0.039
-0.028
-0.012
-0.016
0.083
0.024
0.051
0.043
-0.004
0.048
0.057
0.049
0.052
-0.043
0.038
0.010
0.023
-0.055
-0.030
0.001
0.042
0.015
0.112
0.012
0.021
-0.027
-0.056
0.028
0.016
0.081
0.054
0.057
-0.048
-0.068
0.078
0.069
-0.066
-0.001
-0.018
0.035
0.049
0.094
0.015
0.020
-0.063
0.054
-0.003
0.126
0.071
-0.035
-0.022
0.004
0.035
0.150
-0.029
-0.013
-0.049
0.052
0.043
-0.034
-0.028
-0.049
-0.015
0.074
0.047
0.024
0.037
0.004
-0.038
0.080
0.167
0.026
-0.022
0.030
0.112
-0.029
-0.058
0.031
0.095
0.060
0.012
-0.069
0.062
0.021
-0.039
0.016
-0.042
-0.016
0.043
-0.009
0.029
0.073
-0.036
0.037
0.031
0.035
0.056
0.009
0.060
0.017
-0.002
0.052
0.039
0.020
-0.025
0.038
0.011
0.029
-0.013
0.030
0.021
0.066
0.116
-0.010
0.010
-0.009
0.046
0.097
-0.030
0.013
0.012
0.006
0.040
-0.055
0.114
0.035
-0.030
-0.005
-0.034
-0.013
0.053
-0.026
0.055
0.069
-0.057
0.036
0.053
0.030
-0.012
0.085
-0.003
-0.035
-0.041
0.014
0.128
0.003
0.029
0.002
-0.009
-0.033
0.018
0.092
0.085
0.002
0.007
0.061
-0.038
0.104
0.041
-0.008
-0.047
0.074
0.045
-0.026
0.045
0.102
-0.037
0.059
0.000
0.003
0.030
-0.072
-0.010
0.090
0.086
-0.013
0.019
0.043
0.001
0.043
0.055
0.047
0.001
-0.036
0.020
-0.003
-0.018
-0.043
0.025
0.058
0.056
0.079
-0.050
-0.067
0.082
0.014
0.099
0.029
0.091
-0.066
-0.077
-0.006
0.033
0.025
0.087
-0.056
0.045
0.020
0.020
-0.035
-0.011
0.069
0.085
-0.070
0.041
-0.031
-0.025
0.050
0.009
-0.035
0.090
-0.013
0.016
0.159
0.028
-0.105
-0.005
0.058
-0.028
-0.033
-0.017
0.145
-0.039
0.029
0.062
-0.035
0.068
-0.018
0.026
-0.038
0.029
0.108
-0.001
0.041
0.045
-0.072
-0.012
0.015
0.027
0.089
-0.070
-0.058
-0.068
0.013
0.089
0.077
-0.091
-0.019
0.108
-0.006
-0.024
0.004
0.013
0.031
0.054
-0.021
0.011
0.111
0.022
0.019
0.030
-0.068
0.072
-0.018
0.078
0.021
0.048
0.056
-0.037
-0.075
0.064
-0.026
0.033
0.059
0.156
-0.039
0.011
0.040
0.044
-0.016
0.039
0.018
-0.039
0.084
0.056
0.054
0.004
0.050
-0.103
0.013
0.125
0.083
0.008
-0.098
0.045
-0.045
0.058
0.109
-0.068
0.012
0.048
0.072
-0.039
-0.048
0.107
0.030
-0.007
-0.033
0.066
-0.018
0.013
0.032
-0.017
0.111
0.033
0.045
0.048
0.022
0.029
-0.013
-0.068
-0.038
0.069
0.015
0.015
0.017
0.052
-0.002
-0.021
-0.026
0.030
0.097
-0.057
0.068
-0.007
0.051
-0.049
0.058
0.067
-0.007
0.028
-0.019
-0.040
0.007
0.101
-0.055
-0.019
0.084
-0.038
-0.001
0.069
0.096
-0.090
-0.006
0.051
-0.027
0.044
0.052
-0.042
0.004
-0.061
0.091
0.014
0.104
0.030
-0.028
-0.019
-0.019
-0.044
0.031
0.049
-0.030
-0.041
0.053
0.018
0.061
-0.008
-0.039
0.069
0.029
0.056
0.053
-0.043
0.006
0.010
0.091
0.015
-0.004
0.047
-0.053
0.055
-0.039
0.065
0.060
0.065
-0.103
0.041
-0.025
0.071
0.044
-0.010
-0.045
-0.050
0.043
0.070
0.078
-0.001
-0.023
-0.096
0.003
0.060
-0.003
0.012
0.002
0.051
0.029
0.040
0.012
0.037
-0.013
0.057
0.046
0.023
-0.047
0.028
-0.017
0.019
-0.044
0.005
-0.013
0.010
0.096
-0.054
0.122
0.028
0.008
0.019
-0.029
0.021
-0.055
-0.001
0.124
-0.026
-0.002
0.028
0.019
-0.037
0.035
-0.004
0.086
-0.052
0.041
-0.072
-0.001
-0.025
0.110
0.047
-0.087
-0.014
-0.078
0.029
0.080
0.033
0.073
-0.035
0.027
0.080
-0.056
0.064
0.067
-0.010
-0.030
0.008
0.050
0.086
0.014
0.030
-0.012
0.045
0.082
0.007
-0.033
0.015
-0.034
0.037
0.005
0.012
0.116
0.028
0.060
-0.015
0.012
-0.015
-0.004
0.014
0.013
0.130
0.060
-0.025
-0.075
0.012
0.034
0.052
0.002
0.017
0.064
0.020
0.042
0.066
0.094
-0.034
0.037
-0.000
-0.036
0.001
0.006
0.129
0.063
0.013
0.046
0.019
0.039
0.038
0.056
-0.031
-0.004
0.064
0.099
-0.020
-0.002
0.088
0.041
-0.076
0.061
0.095
-0.163
0.110
-0.017
0.090
0.033
-0.008
0.004
0.090
-0.011
0.031
-0.011
0.056
0.028
-0.022
-0.005
-0.061
0.075
0.018
0.001
0.094
0.059
0.008
-0.045
0.003
-0.053
-0.049
0.139
0.024
0.053
-0.010
0.018
0.082
-0.058
-0.032
0.005
0.016
0.090
0.048
-0.001
-0.001
-0.003
0.064
0.026
0.068
-0.065
-0.007
0.035
-0.017
-0.012
0.112
0.044
-0.037
0.018
0.048
0.041
0.032
0.013
-0.053
-0.049
0.040
0.094
0.086
-0.042
-0.054
-0.068
0.027
0.025
0.047
0.043
-0.107
0.028
0.138
-0.046
0.054
0.002
0.058
0.068
-0.059
-0.018
0.051
0.017
0.031
0.082
0.152
-0.070
0.012
0.024
0.017
-0.018
0.072
-0.016
0.084
0.070
0.006
-0.067
0.113
0.017
-0.024
0.001
0.031
0.009
0.097
-0.056
0.033
0.047
0.003
-0.068
0.053
0.010
0.030
0.041
0.005
-0.021
0.048
0.109
-0.041
-0.007
-0.006
0.096
0.039
-0.088
-0.051
0.121
0.052
-0.082
0.094
0.125
-0.105
0.045
0.028
0.092
0.073
-0.059
-0.014
0.012
0.016
0.098
0.081
-0.035
-0.035
-0.004
0.012
0.048
0.008
-0.034
0.045
0.074
0.007
0.010
-0.007
0.071
0.035
-0.020
-0.003
0.005
0.030
0.043
0.031
0.012
-0.013
-0.024
-0.017
0.096
0.093
-0.018
-0.162
0.050
0.117
-0.050
0.052
0.002
-0.048
0.016
0.006
0.085
0.072
-0.027
-0.042
0.108
0.053
-0.010
-0.058
0.108
-0.085
0.088
0.021
0.167
0.020
-0.078
0.063
0.028
0.086
0.049
-0.130
0.093
0.074
0.024
-0.037
0.152
-0.044
-0.042
0.110
0.006
-0.006
-0.016
0.012
-0.078
0.002
0.025
0.014
0.054
0.166
0.013
-0.085
0.062
0.057
-0.043
0.040
0.076
0.092
0.016
-0.042
-0.002
-0.058
-0.011
0.046
0.047
0.055
0.043
0.019
-0.041
0.056
-0.013
0.008
0.114
-0.007
0.004
-0.054
0.043
0.114
0.032
-0.001
-0.031
0.106
0.099
-0.053
-0.060
0.053
0.061
-0.028
-0.062
0.049
-0.026
-0.016
0.023
0.057
0.087
-0.083
0.039
-0.030
-0.039
0.070
-0.027
0.061
0.067
0.088
0.000
-0.003
0.090
-0.048
0.024
0.074
-0.039
0.015
-0.003
0.027
0.040
0.116
-0.117
0.071
-0.008
-0.001
0.003
-0.007
0.047
-0.035
-0.069
0.049
0.119
-0.005
-0.122
0.040
0.110
-0.063
0.026
0.046
0.078
-0.023
0.041
-0.056
0.096
0.062
0.057
-0.052
-0.058
0.073
0.032
0.013
-0.074
0.064
0.054
0.037
0.071
-0.067
0.099
-0.060
0.014
-0.036
0.079
-0.008
0.011
-0.052
-0.002
-0.029
0.006
-0.021
0.014
-0.033
-0.054
0.076
0.009
0.052
-0.024
0.015
0.032
0.021
0.097
0.052
0.001
-0.073
-0.016
0.120
0.018
-0.010
0.130
-0.043
-0.095
0.041
0.051
-0.022
0.013
0.093
-0.025
0.046
-0.049
-0.048
0.047
-0.045
-0.046
0.068
0.030
-0.057
0.069
0.007
0.018
0.078
-0.004
0.036
0.006
0.059
-0.007
-0.049
0.024
-0.046
0.052
0.078
-0.016
-0.062
0.036
-0.013
-0.018
0.024
0.015
-0.008
0.019
0.042
0.093
-0.049
0.060
0.101
0.083
-0.014
0.006
0.028
0.093
-0.094
0.078
0.080
0.080
0.001
-0.014
0.027
0.003
-0.036
-0.051
0.090
0.107
0.013
0.004
-0.015
0.060
-0.136
0.044
0.050
0.058
-0.016
0.034
0.054
-0.020
0.012
0.001
0.083
0.043
0.011
-0.024
-0.012
0.037
0.049
0.052
0.065
-0.004
-0.002
-0.021
0.033
0.108
-0.023
0.001
0.040
0.033
0.050
0.073
-0.023
-0.046
-0.048
0.007
0.086
0.025
-0.066
0.036
0.013
-0.042
0.024
-0.020
0.032
-0.034
0.076
0.008
-0.070
0.038
0.116
0.032
0.020
-0.060
0.081
0.067
0.000
-0.035
0.148
0.057
0.010
0.049
0.026
0.024
-0.066
0.043
0.010
0.032
-0.022
0.073
0.079
-0.052
0.057
-0.050
0.057
-0.022
-0.010
0.034
0.044
0.027
-0.033
0.014
0.056
0.091
0.033
0.020
0.081
-0.007
-0.054
-0.081
0.043
-0.078
0.032
-0.006
0.043
0.004
0.049
0.052
-0.002
-0.034
0.033
-0.040
0.004
0.111
0.046
0.012
0.053
-0.057
-0.028
0.069
0.080
0.007
0.069
0.021
0.034
0.005
0.061
0.047
0.068
-0.068
-0.001
0.023
0.107
-0.070
-0.003
0.068
-0.089
0.079
0.003
0.124
-0.019
-0.137
0.084
-0.004
-0.010
-0.011
0.007
0.073
-0.088
-0.061
0.099
0.006
-0.064
0.011
0.131
0.033
0.040
-0.050
0.021
0.051
-0.063
-0.003
0.064
0.017
0.051
0.003
0.016
0.099
-0.096
-0.010
0.036
0.105
-0.034
0.036
0.092
-0.039
0.054
0.079
-0.058
-0.028
-0.095
0.059
0.071
0.034
0.035
0.059
0.043
0.031
-0.033
0.039
-0.014
0.013
-0.014
0.022
0.059
0.079
-0.025
-0.029
0.151
-0.033
0.101
0.027
0.088
-0.023
0.050
-0.054
-0.005
0.056
-0.044
-0.056
0.203
-0.006
-0.072
0.005
0.048
0.082
0.061
-0.022
-0.026
-0.006
0.041
-0.032
0.100
0.046
0.016
0.063
0.022
-0.010
0.034
0.019
-0.028
-0.020
0.012
0.010
0.079
0.039
0.018
-0.078
-0.102
0.051
0.103
0.123
0.045
-0.060
0.024
-0.010
0.022
0.086
-0.080
0.039
0.040
0.067
0.049
0.012
-0.042
0.068
0.101
-0.075
0.029
-0.021
0.084
-0.000
0.029
-0.104
-0.046
0.104
0.022
0.149
-0.005
0.011
-0.014
0.014
0.028
0.053
0.009
-0.018
0.112
-0.065
0.049
0.062
0.001
0.102
-0.123
-0.033
0.078
-0.037
0.055
0.015
0.059
0.101
-0.036
-0.112
0.077
0.024
-0.012
0.033
0.089
0.067
-0.013
0.002
0.055
0.030
-0.051
0.036
-0.002
-0.045
0.071
0.083
-0.067
0.075
0.010
0.037
-0.056
0.009
0.048
0.029
0.039
-0.014
-0.019
0.057
-0.086
0.097
0.136
0.043
-0.029
0.048
0.011
0.066
-0.043
0.072
-0.021
-0.070
0.069
0.017
0.059
-0.015
-0.025
0.047
-0.030
-0.002
0.072
0.005
0.084
0.100
-0.055
0.001
0.086
-0.019
0.004
0.048
0.040
-0.135
0.007
0.008
-0.004
0.015
0.056
-0.051
0.029
0.043
0.006
0.023
-0.125
0.104
0.101
0.007
-0.008
0.020
-0.045
0.046
0.098
-0.071
0.045
-0.007
0.002
0.019
0.021
-0.003
0.025
0.051
-0.024
-0.014
-0.118
0.043
0.147
-0.024
0.050
0.031
0.036
0.060
-0.014
0.054
-0.045
0.005
-0.078
0.096
0.031
0.131
0.025
0.073
0.015
-0.036
-0.055
-0.003
0.025
0.032
0.055
0.010
0.050
0.019
-0.008
0.045
-0.017
-0.015
0.041
0.060
0.012
-0.014
0.081
-0.029
0.007
-0.016
0.030
0.005
-0.052
0.058
0.017
0.031
-0.026
0.078
0.058
0.011
0.047
-0.043
0.020
0.060
0.016
0.001
-0.009
0.085
0.070
-0.012
0.003
-0.001
-0.020
-0.022
0.194
0.042
-0.004
0.059
0.067
0.005
-0.067
0.010
0.096
-0.023
0.021
0.031
0.113
0.033
0.043
-0.003
0.011
0.017
0.039
0.136
0.021
-0.089
0.052
0.045
0.033
-0.067
0.073
0.001
0.122
-0.033
-0.068
0.053
-0.040
0.009
0.011
0.066
0.051
0.061
0.000
-0.005
-0.025
0.006
0.095
-0.038
-0.078
0.051
0.030
-0.020
0.082
-0.034
0.060
0.059
0.047
0.020
-0.006
0.078
-0.114
0.013
0.013
0.064
0.037
-0.020
0.022
0.049
0.115
0.050
-0.039
-0.033
-0.035
0.055
-0.022
-0.029
-0.018
-0.024
-0.005
-0.007
0.151
0.027
-0.031
0.061
-0.030
-0.051
0.002
0.090
-0.001
0.000
-0.016
-0.072
-0.021
0.116
0.013
0.025
-0.068
0.056
0.014
0.028
0.021
0.003
0.084
0.030
-0.106
-0.001
-0.011
0.095
-0.059
0.030
0.015
0.037
-0.021
0.078
0.057
-0.081
-0.097
0.016
0.089
0.074
-0.025
0.132
-0.073
-0.008
0.051
0.016
-0.011
-0.026
0.031
0.041
0.026
-0.034
0.036
-0.005
-0.036
-0.008
0.067
0.111
-0.083
-0.018
0.093
0.165
0.051
0.009
-0.032
-0.019
-0.044
0.017
0.098
0.056
-0.037
0.058
0.003
0.065
0.023
-0.036
0.031
0.029
0.093
0.008
-0.011
-0.032
0.074
0.032
-0.004
0.020
0.006
-0.051
-0.073
0.044
0.207
0.012
-0.040
-0.095
0.013
0.082
0.088
-0.004
0.018
0.010
0.014
0.114
0.069
-0.023
0.035
-0.115
0.110
-0.035
0.010
0.056
0.089
0.044
0.104
-0.063
0.034
0.094
