0.045
0.025
0.061
-0.061
-0.028
-0.039
0.063
0.016
-0.002
-0.066
0.095
-0.043
0.064
0.000
-0.072
0.021
0.074
0.142
-0.082
-0.046
-0.015
0.073
0.122
-0.013
-0.025
-0.060
0.055
0.027
0.031
-0.059
0.083
0.048
-0.014
-0.039
0.047
0.018
-0.083
-0.064
0.065
0.104
-0.057
-0.012
0.088
-0.045
0.047
-0.062
0.170
0.010
0.037
-0.041
-0.048
0.134
0.049
-0.088
0.046
0.053
0.075
0.017
0.020
0.019
0.022
0.052
-0.072
0.037
0.073
-0.010
-0.030
0.015
0.132
0.039
0.012
0.060
0.012
-0.079
-0.060
-0.011
0.054
0.054
0.038
0.085
0.043
-0.069
0.041
0.032
-0.060
0.046
0.096
0.103
-0.017
0.114
-0.007
0.024
-0.025
-0.074
-0.015
0.069
0.076
0.059
0.089
0.005
-0.014
0.099
-0.005
0.005
-0.089
-0.071
0.109
0.056
0.021
-0.011
0.098
0.024
-0.035
0.020
0.127
0.013
-0.026
0.044
0.032
0.091
-0.041
0.036
-0.024
-0.027
0.027
0.149
0.030
-0.018
0.087
-0.076
-0.046
0.020
0.043
0.105
0.067
0.020
-0.013
-0.008
-0.085
0.125
0.041
0.073
0.016
0.021
0.007
0.025
0.051
0.038
-0.046
-0.053
0.037
0.163
0.032
-0.046
0.066
-0.056
-0.053
0.117
-0.047
0.054
0.091
0.095
0.003
-0.044
-0.004
0.041
-0.007
-0.006
0.009
0.024
-0.036
0.035
0.044
0.023
0.024
0.129
-0.047
-0.080
0.051
0.119
-0.013
-0.048
-0.017
0.039
0.118
-0.091
-0.027
0.065
0.024
0.000
0.060
-0.010
0.012
0.014
0.004
-0.040
-0.028
-0.019
0.048
0.081
-0.001
-0.077
0.064
0.023
0.132
-0.005
0.048
-0.069
0.087
0.044
0.013
0.018
-0.015
0.039
-0.007
0.093
0.081
-0.086
-0.002
-0.033
0.011
-0.022
0.011
0.024
-0.012
0.053
0.080
-0.091
-0.020
0.030
0.026
0.094
-0.092
-0.002
0.136
0.063
-0.051
0.046
0.029
-0.071
0.017
0.121
-0.008
0.068
0.046
-0.081
-0.027
0.095
0.041
-0.119
-0.025
0.066
0.115
0.129
-0.043
-0.046
-0.024
0.079
0.037
-0.051
-0.002
0.014
0.057
0.082
-0.098
0.034
0.033
0.029
-0.055
0.024
0.048
0.018
0.017
0.043
0.030
0.033
0.018
0.053
-0.063
-0.060
0.065
-0.004
0.038
0.058
0.018
0.056
-0.008
0.051
0.091
0.026
-0.013
0.014
-0.083
-0.030
-0.006
0.024
0.051
0.149
-0.034
0.024
-0.018
-0.031
-0.040
0.041
-0.010
-0.100
0.070
0.070
0.042
-0.001
-0.022
-0.062
0.027
0.079
0.048
-0.043
0.003
0.025
0.128
-0.012
0.005
0.006
0.043
0.062
0.082
-0.069
0.042
-0.007
0.046
-0.048
0.036
0.025
0.014
0.054
-0.025
-0.021
-0.034
-0.076
0.037
0.093
0.075
-0.053
0.045
0.039
-0.058
-0.001
-0.059
0.136
0.104
0.072
-0.005
0.032
-0.019
-0.065
0.047
0.068
0.024
0.040
-0.067
0.076
-0.015
0.011
0.047
-0.026
0.001
0.005
0.060
0.053
0.031
0.011
-0.003
-0.042
0.087
0.031
0.106
-0.068
-0.004
0.017
0.044
0.046
0.037
-0.039
0.006
-0.044
-0.042
0.051
0.067
0.077
0.052
0.024
-0.012
-0.098
-0.004
-0.004
0.075
0.095
-0.003
0.014
0.052
0.023
-0.054
0.016
0.051
0.109
0.057
-0.063
-0.005
-0.044
0.046
0.061
0.054
-0.030
0.027
0.111
-0.039
-0.133
0.019
0.096
0.012
-0.011
-0.066
0.018
0.010
-0.081
0.104
0.124
0.005
-0.066
0.004
0.079
0.088
-0.031
-0.022
-0.049
0.067
0.050
-0.068
0.116
0.015
0.053
-0.009
0.087
-0.036
-0.027
-0.033
0.002
0.016
0.043
0.019
-0.028
0.050
-0.025
0.026
-0.049
0.039
0.043
-0.014
-0.029
0.030
0.034
0.014
-0.037
0.020
0.038
0.111
-0.022
0.054
-0.034
0.038
0.021
0.041
0.127
-0.051
0.061
-0.015
0.060
-0.049
0.010
0.036
0.027
0.025
-0.020
-0.051
0.024
0.050
-0.063
-0.054
0.070
-0.035
0.033
0.017
-0.008
0.070
0.041
0.000
0.032
-0.009
-0.006
0.074
-0.012
-0.057
0.043
-0.059
0.007
0.096
0.012
-0.010
-0.004
0.038
0.010
0.042
0.005
0.012
-0.013
-0.042
0.063
0.009
0.056
0.003
0.013
0.048
0.056
-0.006
0.025
0.042
0.024
-0.028
0.089
-0.030
-0.021
-0.020
0.012
-0.025
-0.033
-0.040
0.055
0.088
0.055
0.049
-0.014
-0.085
0.034
-0.008
-0.028
-0.074
-0.036
0.167
-0.018
-0.010
0.001
0.081
0.085
-0.079
0.013
0.074
0.061
-0.017
-0.090
0.066
-0.053
0.051
-0.003
-0.037
0.059
-0.007
-0.005
-0.001
0.044
0.124
0.033
-0.084
-0.100
-0.046
0.113
0.051
0.048
0.055
0.005
0.033
-0.003
-0.011
-0.025
0.060
0.084
0.076
-0.052
0.048
0.087
0.051
-0.051
-0.050
0.074
0.061
-0.058
-0.048
0.048
-0.023
0.055
-0.009
0.018
0.057
0.037
0.008
0.017
-0.038
-0.044
-0.002
-0.011
0.024
0.065
-0.006
0.027
0.037
0.024
0.029
0.027
-0.035
0.074
0.059
-0.014
0.021
0.094
0.061
-0.075
0.014
0.002
0.008
0.005
-0.040
-0.017
0.002
0.108
-0.048
0.056
0.012
0.009
-0.012
0.025
-0.020
0.086
0.027
0.004
0.095
0.026
-0.026
0.147
0.039
-0.109
-0.003
0.097
-0.002
0.000
0.015
0.042
0.042
-0.014
-0.013
0.084
0.069
-0.040
0.004
0.014
0.070
0.046
-0.044
-0.052
0.045
0.006
-0.014
0.041
-0.021
0.047
0.031
0.042
0.001
0.040
0.135
0.002
0.022
-0.021
-0.010
0.048
0.024
-0.009
0.022
-0.024
0.108
-0.028
-0.013
0.028
0.070
0.066
-0.064
0.042
0.019
0.003
0.063
-0.020
0.057
0.048
-0.064
0.077
0.080
0.056
0.013
0.073
0.013
0.014
0.019
-0.060
0.030
-0.013
0.037
0.080
0.013
0.078
-0.084
0.083
0.048
-0.031
0.029
-0.009
0.023
0.075
-0.085
0.099
0.115
0.093
0.030
-0.026
0.064
0.011
-0.100
0.056
0.124
-0.012
-0.025
-0.003
-0.001
-0.046
0.004
0.065
0.021
0.064
0.021
-0.067
0.016
0.072
0.030
-0.026
0.011
0.051
-0.045
0.111
-0.102
0.084
-0.023
0.034
0.011
0.046
0.059
0.135
0.024
-0.022
0.087
-0.059
-0.005
0.024
0.043
0.038
0.088
-0.102
0.095
-0.005
0.133
0.021
0.037
0.078
0.042
0.050
-0.186
0.010
0.051
-0.045
-0.019
0.010
-0.023
0.031
-0.009
0.017
0.043
0.092
0.011
0.025
0.107
0.039
0.056
-0.008
-0.126
-0.058
-0.046
0.143
0.026
0.032
0.131
0.031
-0.014
0.009
0.023
-0.070
0.040
0.056
-0.015
0.084
0.021
0.026
0.059
0.003
-0.000
0.068
0.084
0.054
0.033
-0.011
-0.043
0.043
-0.002
-0.150
0.104
0.051
0.034
-0.043
0.022
-0.032
0.038
0.045
-0.085
0.099
-0.008
-0.019
-0.069
0.043
-0.006
0.080
0.133
0.100
-0.016
0.006
-0.048
0.056
-0.021
-0.007
0.005
0.033
0.019
-0.051
0.073
-0.006
-0.020
0.063
-0.040
0.031
-0.045
0.055
-0.029
0.050
-0.001
0.041
0.082
0.004
0.043
-0.019
-0.009
0.009
-0.085
0.144
0.106
0.044
-0.004
-0.063
0.035
0.043
-0.003
0.035
-0.003
0.055
-0.098
0.012
-0.045
0.113
0.071
-0.061
0.032
-0.077
0.022
-0.025
0.135
0.025
0.022
0.006
-0.054
0.012
-0.043
0.098
0.032
0.045
0.093
0.064
-0.054
0.029
0.012
0.022
0.043
0.088
-0.049
0.005
-0.081
0.035
0.069
-0.059
0.013
-0.031
0.096
0.095
0.048
-0.042
0.086
-0.010
0.020
0.064
-0.029
0.072
-0.019
0.037
0.078
0.004
-0.034
0.048
0.023
0.094
-0.001
0.075
-0.061
0.085
-0.045
0.087
0.058
-0.007
0.015
-0.025
0.055
0.037
0.070
-0.017
0.062
-0.015
0.063
-0.037
0.011
0.037
0.076
-0.037
0.016
0.057
0.042
0.058
-0.016
-0.030
0.129
-0.050
-0.098
0.083
0.035
0.026
0.019
0.016
-0.008
0.002
0.147
-0.087
-0.047
-0.063
-0.020
0.050
0.175
0.039
0.113
0.067
-0.032
0.013
-0.014
0.065
0.002
-0.053
0.094
-0.012
0.095
0.061
0.006
0.058
-0.022
0.081
-0.049
0.032
0.024
0.061
0.031
-0.047
0.008
-0.038
0.031
-0.026
-0.109
-0.038
0.056
0.097
0.094
-0.003
-0.059
-0.027
0.056
-0.008
0.043
0.081
0.005
0.048
-0.003
-0.024
0.055
0.028
0.054
0.071
-0.003
0.054
-0.035
0.057
-0.033
0.014
-0.077
0.033
0.019
-0.021
-0.010
0.129
0.051
-0.022
-0.013
0.019
0.110
0.020
0.112
-0.067
-0.073
0.002
0.029
0.006
-0.026
0.076
0.065
-0.056
-0.003
-0.015
-0.029
0.108
0.025
-0.004
0.017
0.011
0.096
-0.066
0.023
0.111
0.013
-0.126
0.029
0.021
0.020
-0.027
0.071
-0.010
-0.060
0.058
0.019
0.005
0.113
0.079
-0.107
0.010
0.028
0.018
0.031
-0.035
0.024
0.016
0.082
0.017
0.042
-0.067
0.045
-0.039
0.043
0.040
0.032
0.046
-0.098
0.039
0.160
0.038
-0.056
-0.013
0.000
0.050
0.050
0.038
0.011
0.030
-0.108
0.011
-0.001
0.017
-0.025
0.038
0.020
-0.024
0.020
0.107
0.146
-0.069
-0.102
-0.011
0.100
0.093
0.060
0.047
0.023
-0.064
-0.007
0.067
0.030
0.026
-0.065
0.090
0.085
0.013
-0.001
-0.002
0.084
-0.051
0.032
0.075
0.015
-0.107
0.066
0.102
0.039
-0.053
0.091
0.041
-0.059
-0.018
0.043
0.035
0.069
-0.021
0.011
0.094
-0.067
-0.010
-0.054
0.125
0.034
0.061
-0.075
0.014
0.047
0.095
0.060
-0.024
-0.034
0.024
0.030
0.036
0.033
-0.008
0.049
-0.002
0.031
0.044
0.069
0.155
-0.010
-0.032
0.010
-0.070
-0.046
0.055
0.087
0.057
0.032
-0.021
-0.018
0.065
0.020
-0.007
-0.017
0.008
0.114
-0.091
0.050
-0.078
-0.046
0.042
0.104
0.025
0.049
-0.030
0.066
0.012
0.008
-0.066
0.028
0.036
-0.020
-0.015
-0.021
0.050
0.053
0.046
0.061
0.072
0.043
0.097
-0.028
-0.010
0.011
0.035
-0.067
0.020
0.086
0.064
0.008
-0.002
-0.056
0.062
-0.001
-0.024
0.077
0.085
-0.033
-0.074
0.078
0.070
-0.060
-0.017
0.015
0.008
0.103
-0.064
-0.013
0.075
0.027
0.040
0.059
-0.099
0.000
0.122
-0.004
-0.021
-0.004
0.015
-0.005
0.087
0.016
0.003
0.030
0.038
0.044
-0.013
-0.048
0.122
-0.002
0.010
0.054
-0.015
0.059
0.014
0.018
0.034
0.027
0.006
0.104
-0.082
0.095
0.065
0.096
-0.008
0.095
-0.054
-0.036
0.038
0.084
-0.060
0.022
-0.008
0.028
0.017
0.038
0.146
0.000
-0.030
0.008
0.106
0.052
-0.032
0.026
-0.046
0.129
-0.088
0.070
0.020
0.033
0.036
0.079
-0.014
0.001
-0.015
0.061
-0.031
-0.078
0.087
0.139
0.019
-0.056
0.072
0.055
0.052
-0.011
0.022
-0.023
0.032
-0.046
0.107
0.037
0.105
0.006
-0.065
0.101
-0.001
0.114
-0.065
0.046
-0.066
0.014
0.091
-0.037
0.026
0.049
0.009
-0.151
-0.030
0.031
0.097
-0.017
0.087
0.020
0.053
-0.007
0.018
0.001
0.076
0.018
-0.124
-0.016
0.037
0.024
0.055
0.050
0.054
-0.014
0.031
-0.004
-0.083
0.059
0.010
0.087
-0.016
0.057
0.015
-0.018
0.018
0.016
0.028
0.006
-0.010
0.006
0.054
0.052
-0.075
-0.005
0.028
-0.038
-0.109
0.003
0.070
0.075
0.021
0.041
-0.031
-0.029
0.067
0.068
0.052
0.034
0.029
0.023
0.063
-0.007
-0.041
0.040
0.045
0.135
0.033
-0.066
-0.011
0.069
0.032
0.058
0.023
0.025
0.031
0.088
-0.004
0.069
-0.046
0.075
-0.116
0.091
0.053
0.045
-0.079
-0.016
0.085
-0.018
0.015
0.013
0.040
0.051
0.014
-0.044
-0.103
0.035
0.101
0.025
-0.026
0.067
0.011
0.051
0.016
-0.035
-0.024
0.012
-0.007
0.074
0.213
-0.048
0.038
0.049
-0.006
0.082
0.005
0.083
0.051
-0.033
0.018
-0.054
0.021
0.030
0.024
-0.031
0.070
0.060
-0.021
-0.069
-0.057
0.019
0.138
0.041
0.034
-0.070
0.067
-0.087
-0.041
0.009
0.054
-0.010
-0.020
0.075
0.008
0.008
-0.019
0.023
0.011
0.088
0.064
-0.056
-0.057
0.066
-0.033
0.015
-0.032
-0.017
0.094
-0.019
0.043
0.022
0.036
0.010
-0.025
-0.004
-0.060
0.014
0.022
-0.035
0.086
0.071
-0.022
0.017
-0.017
-0.034
0.152
0.050
-0.029
-0.072
0.000
0.083
0.048
0.106
-0.025
0.098
0.013
-0.013
-0.103
0.006
0.042
0.069
0.007
-0.036
-0.029
0.033
0.112
-0.105
0.027
0.014
0.027
0.035
-0.020
0.029
0.008
0.091
-0.060
0.084
0.012
0.017
-0.047
0.089
0.030
-0.056
0.081
0.085
-0.051
0.033
0.018
0.094
0.062
-0.066
-0.058
0.030
0.074
0.020
-0.005
-0.026
-0.086
-0.019
-0.016
0.012
-0.018
0.128
0.008
0.186
-0.057
-0.006
-0.061
0.080
0.055
0.047
-0.010
-0.019
0.015
0.091
0.021
0.039
-0.011
-0.012
0.046
-0.029
0.050
-0.031
-0.007
-0.035
-0.013
0.062
0.093
-0.005
0.008
-0.034
0.060
-0.057
0.047
0.101
-0.029
0.011
-0.016
0.089
0.008
0.005
-0.038
-0.054
-0.065
0.034
0.029
-0.001
0.022
0.050
0.076
-0.030
0.050
0.010
0.083
0.043
0.021
-0.013
-0.064
0.059
0.047
-0.023
0.049
-0.008
0.025
0.072
0.079
0.086
-0.052
-0.073
-0.062
0.056
0.076
0.044
-0.029
0.025
0.015
-0.069
0.144
-0.029
-0.020
0.021
-0.030
0.021
0.035
-0.053
0.051
0.069
0.138
0.019
-0.037
0.025
0.110
-0.004
0.094
0.042
-0.035
0.093
0.044
0.109
0.001
-0.114
-0.011
0.064
0.076
-0.063
-0.014
0.020
0.071
-0.008
0.011
0.034
-0.049
0.012
0.110
-0.045
0.049
-0.036
-0.050
0.062
0.098
-0.019
0.032
0.017
-0.015
0.077
-0.019
0.068
0.052
0.120
-0.011
-0.114
-0.006
0.055
0.029
0.005
-0.067
0.024
0.071
0.008
-0.045
0.084
-0.040
0.008
0.028
0.012
-0.034
-0.033
0.054
0.137
0.148
0.036
-0.082
-0.135
0.036
0.104
-0.011
0.060
0.168
-0.049
-0.030
0.063
-0.057
-0.009
0.000
0.048
-0.063
-0.014
0.081
0.059
0.019
-0.044
-0.029
0.027
0.086
0.033
0.064
0.033
0.006
0.031
-0.034
-0.058
0.042
0.029
0.057
0.042
-0.002
-0.055
0.013
0.077
-0.034
-0.009
-0.006
0.089
-0.058
0.035
0.051
0.026
-0.027
0.022
0.024
0.069
0.020
0.023
0.051
0.045
0.022
0.039
-0.013
0.004
0.080
0.022
-0.015
0.009
0.027
0.087
0.020
-0.026
-0.018
0.141
-0.041
-0.081
0.059
0.068
0.014
-0.027
0.011
0.003
0.054
0.063
0.050
0.064
0.030
-0.096
-0.062
0.019
-0.017
-0.015
0.134
0.144
-0.074
-0.088
-0.029
0.017
0.096
0.058
0.057
0.001
-0.018
0.020
-0.007
-0.031
0.019
-0.032
0.080
0.054
-0.020
0.002
-0.009
0.044
0.038
-0.012
-0.033
0.088
0.071
-0.071
0.056
-0.060
0.060
-0.036
0.043
-0.037
-0.030
0.056
0.046
0.017
-0.023
-0.002
-0.004
0.087
0.043
0.008
0.058
0.045
-0.041
-0.001
0.007
-0.040
-0.037
0.105
0.046
0.050
-0.013
-0.102
-0.045
0.052
0.119
0.004
-0.041
0.041
0.049
0.078
-0.032
0.047
-0.053
0.076
0.023
-0.034
-0.013
0.107
0.005
-0.096
-0.013
0.011
-0.015
-0.032
0.068
-0.060
0.040
0.015
0.016
0.042
0.006
0.041
0.036
0.044
0.008
-0.068
0.020
0.015
0.045
-0.020
0.066
0.004
-0.034
0.084
0.040
0.037
0.020
-0.038
0.034
0.015
0.010
0.011
0.061
0.066
0.038
-0.004
0.009
0.029
0.062
0.030
0.012
0.021
0.009
-0.043
-0.044
0.026
0.030
0.084
-0.037
-0.008
-0.016
0.015
-0.003
0.031
0.043
-0.049
0.072
-0.028
-0.018
-0.020
0.061
0.008
0.005
0.032
0.048
0.017
0.060
-0.015
-0.033
0.149
-0.012
-0.039
-0.037
0.092
0.098
0.044
-0.007
-0.012
-0.018
0.058
0.005
0.072
0.044
0.018
0.067
0.094
-0.045
-0.027
-0.001
0.020
0.018
-0.074
0.079
0.071
-0.042
-0.023
0.091
-0.053
0.127
-0.038
-0.088
0.016
-0.087
0.055
0.081
0.054
0.068
0.065
-0.032
-0.059
0.028
0.034
0.054
-0.026
0.090
0.009
-0.016
-0.028
0.078
0.103
0.083
-0.012
0.048
-0.032
-0.066
-0.004
0.026
0.030
-0.065
0.073
0.035
0.048
-0.071
-0.014
0.116
-0.032
0.067
-0.011
0.017
-0.044
0.082
0.027
0.010
-0.029
-0.018
0.076
-0.035
0.074
-0.072
-0.021
0.049
-0.017
0.068
0.102
0.017
-0.080
-0.017
0.089
0.033
0.039
-0.052
-0.048
0.018
0.039
0.056
-0.033
0.062
0.077
0.002
-0.001
0.088
0.029
-0.077
-0.000
0.031
0.027
-0.029
0.051
0.033
-0.056
0.072
0.043
0.022
-0.048
0.055
-0.016
-0.048
0.011
-0.003
0.087
-0.007
0.028
-0.024
0.005
0.018
0.017
0.057
0.030
0.011
-0.004
-0.007
0.063
-0.011
-0.040
0.086
0.056
-0.050
-0.051
0.069
0.022
0.039
0.064
-0.001
-0.014
-0.023
0.043
0.001
0.057
0.026
0.024
-0.070
0.044
0.007
0.049
0.075
-0.047
0.002
0.078
-0.050
-0.016
0.014
0.012
0.044
-0.034
0.039
0.065
-0.029
-0.010
0.000
0.103
0.046
0.067
-0.043
-0.009
0.037
0.000
0.042
-0.000
-0.016
0.049
0.059
0.012
0.092
0.134
-0.041
-0.116
-0.005
-0.018
0.073
-0.000
0.093
0.002
-0.140
-0.018
0.110
0.045
0.064
0.017
-0.013
0.068
0.045
-0.022
0.016
0.043
0.024
-0.012
-0.082
0.036
0.022
0.016
-0.014
0.083
0.039
0.043
0.047
0.081
0.020
-0.022
0.044
-0.043
0.027
0.031
-0.000
0.041
0.041
0.025
0.021
0.019
0.068
-0.005
0.001
0.038
0.010
0.006
-0.005
0.047
0.132
0.070
-0.044
-0.026
0.029
0.068
0.015
-0.019
-0.040
-0.076
0.047
0.111
0.135
-0.054
-0.040
0.079
-0.065
0.071
0.050
0.034
-0.028
0.072
0.099
-0.021
-0.038
-0.079
0.037
0.014
0.047
0.055
-0.036
0.024
0.035
-0.026
0.005
0.080
-0.047
0.095
0.059
-0.052
-0.005
0.044
0.004
0.031
0.009
0.081
-0.062
-0.039
0.133
0.017
0.064
-0.002
0.011
0.020
0.109
0.064
0.041
-0.010
0.026
-0.026
-0.003
-0.059
0.027
0.045
-0.020
0.076
-0.009
0.002
-0.051
0.118
-0.008
0.006
0.051
0.055
-0.011
-0.037
-0.060
0.105
0.119
-0.013
0.063
0.081
-0.055
-0.006
-0.059
0.065
0.043
-0.015
-0.015
0.001
0.005
0.012
0.035
0.064
-0.003
0.116
0.081
0.010
-0.011
-0.084
0.083
0.031
-0.054
0.089
0.020
0.016
0.104
-0.076
-0.026
0.041
0.016
-0.052
0.151
-0.073
0.069
0.082
0.096
0.061
-0.068
0.062
-0.127
0.056
0.099
-0.030
0.088
-0.002
-0.040
0.056
0.139
0.077
0.008
-0.005
0.002
0.026
0.022
-0.036
-0.056
-0.055
0.098
-0.004
0.055
0.002
0.084
0.023
-0.020
0.023
-0.034
0.068
-0.002
-0.026
0.079
0.056
0.006
0.037
0.067
0.001
-0.004
0.035
0.012
0.025
0.070
0.017
0.040
-0.095
-0.006
0.110
-0.041
0.021
0.005
0.051
0.034
0.010
-0.003
0.046
0.071
-0.027
-0.040
0.040
-0.022
0.077
0.046
0.133
0.026
-0.065
-0.029
-0.011
0.073
-0.089
0.024
0.043
0.024
0.025
0.042
0.019
0.034
-0.008
-0.026
-0.009
0.025
-0.003
0.053
0.076
-0.018
0.051
-0.036
-0.050
-0.023
0.022
-0.009
-0.011
0.162
0.008
-0.057
0.029
0.040
-0.048
0.040
0.071
-0.045
0.038
0.100
0.014
-0.117
0.005
0.041
-0.009
0.021
0.065
-0.068
0.102
-0.023
0.022
-0.028
0.052
-0.028
0.025
0.035
0.069
0.073
0.153
-0.073
-0.048
0.071
-0.032
0.005
0.056
0.030
-0.004
-0.026
0.003
0.018
0.007
0.048
-0.084
0.023
0.128
0.044
0.009
0.027
0.069
0.133
0.056
0.043
-0.038
-0.034
0.019
0.036
0.021
0.007
-0.101
0.005
0.034
0.092
0.025
-0.042
0.129
-0.018
-0.016
-0.039
0.069
0.035
0.046
-0.057
0.025
0.116
0.047
-0.015
0.109
0.024
0.006
0.072
-0.046
-0.041
-0.051
0.033
0.123
0.001
0.046
0.010
-0.049
-0.031
-0.041
0.130
0.026
0.035
-0.010
0.019
0.079
0.112
-0.006
0.062
0.005
-0.061
-0.026
-0.010
-0.043
0.108
0.060
0.009
-0.023
0.027
-0.045
-0.004
0.005
-0.008
0.005
0.039
0.018
0.019
0.058
-0.011
0.002
0.119
-0.012
0.005
0.027
0.040
-0.009
-0.020
0.041
-0.071
0.126
-0.066
0.037
-0.032
0.177
0.005
-0.152
0.075
-0.095
0.028
0.105
0.062
-0.017
-0.041
-0.002
0.025
0.032
0.050
-0.017
0.113
0.047
-0.014
-0.031
-0.034
0.035
-0.042
0.097
0.049
-0.052
0.023
0.081
0.086
-0.022
0.008
0.039
0.041
0.014
-0.062
0.104
0.059
0.057
0.039
0.035
-0.049
0.007
0.079
0.016
-0.058
0.063
-0.056
0.016
-0.025
-0.002
0.026
0.024
0.061
-0.011
-0.025
-0.003
0.034
-0.101
0.129
0.071
-0.005
-0.001
-0.004
0.226
0.031
-0.088
0.017
0.064
0.057
0.060
-0.063
0.045
0.027
-0.032
0.095
-0.055
-0.014
0.012
-0.003
0.016
0.081
0.072
-0.006
-0.047
-0.087
0.039
-0.003
0.002
0.044
0.130
0.077
-0.002
-0.041
0.076
0.036
0.001
0.095
0.098
-0.025
0.035
0.055
-0.007
0.045
-0.011
-0.162
0.089
0.067
0.052
0.094
-0.027
-0.124
0.044
0.049
0.139
0.096
0.009
0.030
-0.057
-0.008
-0.038
0.148
0.048
-0.006
-0.019
0.016
0.053
0.051
0.020
0.128
-0.047
0.044
-0.036
0.091
0.088
0.065
0.037
-0.042
0.033
-0.020
-0.019
0.064
0.089
0.086
0.021
0.036
-0.027
0.029
0.046
0.002
0.039
0.023
0.065
-0.011
-0.019
0.025
-0.046
-0.117
0.064
0.189
0.041
-0.033
-0.018
-0.030
-0.061
0.062
0.006
0.076
-0.010
0.129
-0.134
-0.012
0.149
-0.031
0.124
0.035
0.033
-0.022
-0.008
0.030
0.066
0.048
0.078
-0.031
-0.010
0.095
0.061
0.021
-0.002
0.022
-0.115
0.049
0.072
-0.016
-0.083
-0.003
0.029
0.013
0.077
0.021
-0.059
-0.018
0.132
0.052
-0.012
0.007
-0.038
0.030
0.042
0.010
-0.019
0.041
0.010
0.045
0.019
-0.049
0.067
0.048
-0.019
0.045
0.029
-0.045
-0.034
0.076
-0.008
0.021
-0.047
0.118
0.051
0.074
0.076
0.045
-0.042
-0.017
0.082
0.010
0.045
0.054
-0.066
0.070
-0.008
0.005
-0.014
0.065
-0.044
0.060
-0.023
0.027
0.097
0.115
0.016
0.066
-0.038
-0.013
0.048
0.033
-0.058
-0.025
0.010
0.010
0.113
-0.033
-0.081
0.026
-0.027
0.022
-0.031
0.035
0.064
0.034
0.005
0.041
0.061
0.029
-0.004
-0.042
0.042
-0.113
0.007
0.111
-0.054
0.029
0.019
0.089
0.053
0.063
0.064
-0.075
0.014
0.017
-0.015
-0.123
0.036
0.058
0.003
0.018
-0.009
0.009
0.027
0.026
0.095
-0.003
-0.022
0.019
0.023
-0.064
0.025
0.043
-0.032
0.067
0.045
0.069
0.021
0.018
0.020
-0.074
0.029
-0.056
0.064
0.029
0.019
0.019
-0.022
-0.008
0.041
0.061
-0.040
0.038
0.055
0.022
0.062
0.005
-0.051
0.027
0.103
0.073
-0.023
-0.034
0.055
0.043
-0.030
0.048
0.015
-0.038
0.163
0.016
-0.102
-0.013
0.019
0.047
0.035
0.004
-0.033
0.181
-0.047
-0.047
0.001
-0.046
-0.012
0.105
0.084
-0.010
-0.012
-0.070
0.148
-0.075
0.061
0.117
0.000
-0.095
-0.040
0.028
0.121
0.062
-0.039
0.008
0.092
-0.013
0.020
0.104
0.070
0.139
-0.064
0.036
-0.026
0.056
0.039
-0.030
0.060
0.045
-0.052
0.007
0.099
0.051
0.016
-0.040
-0.001
-0.005
0.087
-0.026
0.109
0.015
0.015
0.006
0.020
0.048
-0.015
-0.039
-0.030
0.106
-0.014
0.039
0.030
0.063
0.015
0.042
-0.052
-0.017
0.051
0.046
0.018
-0.042
0.066
0.002
0.009
0.037
-0.003
0.053
-0.060
0.135
0.088
0.039
0.094
-0.053
0.021
0.096
-0.028
0.097
-0.075
0.008
0.109
0.005
-0.039
0.015
0.067
0.012
-0.002
0.032
-0.035
-0.053
-0.025
0.119
-0.017
0.028
0.013
0.003
0.026
-0.016
-0.046
0.077
0.063
0.028
-0.012
0.007
-0.051
-0.033
-0.037
-0.034
0.018
0.025
0.143
0.099
-0.053
-0.031
0.017
-0.034
0.006
0.141
0.009
-0.036
-0.086
0.047
0.124
-0.008
-0.044
0.062
0.033
-0.015
0.005
0.024
0.010
0.007
0.017
0.141
-0.056
0.020
-0.069
-0.057
0.039
-0.031
0.098
0.031
0.010
0.055
0.078
0.016
-0.067
0.081
0.000
-0.017
0.013
0.039
0.116
0.049
-0.083
0.019
0.056
0.001
0.010
-0.015
-0.024
0.035
-0.023
0.084
0.060
0.051
0.006
0.073
-0.009
-0.034
-0.010
-0.018
0.073
0.053
-0.017
-0.028
-0.035
0.020
0.073
0.083
-0.032
-0.067
0.172
-0.022
-0.057
0.038
-0.047
0.023
0.114
0.002
0.015
-0.035
0.029
-0.021
0.071
0.069
0.054
-0.003
0.021
0.105
0.041
-0.004
-0.072
-0.035
-0.004
0.127
0.036
0.129
-0.078
0.033
-0.020
0.009
0.001
-0.080
0.011
0.110
0.025
0.008
0.118
-0.007
-0.035
0.005
-0.034
-0.017
0.027
0.104
-0.127
0.120
0.079
-0.048
0.039
-0.001
-0.068
0.021
0.046
-0.027
0.000
0.028
0.070
0.051
0.013
-0.006
0.057
0.011
-0.013
0.053
0.034
0.093
-0.010
-0.021
0.058
0.113
0.058
-0.051
0.081
-0.054
0.094
0.076
0.015
0.025
-0.111
0.033
0.105
-0.037
0.111
0.006
-0.055
-0.020
0.019
0.075
0.109
0.026
-0.122
-0.058
0.050
0.114
-0.055
0.108
0.031
-0.055
0.153
-0.012
0.001
0.037
-0.042
-0.031
0.055
0.056
0.021
0.045
-0.068
0.040
-0.079
0.000
0.034
0.022
0.118
-0.058
-0.014
-0.016
0.017
0.102
0.051
0.016
0.100
-0.004
-0.023
0.112
0.021
-0.024
0.036
0.081
0.077
-0.005
-0.028
0.018
0.003
-0.052
0.012
-0.077
-0.015
0.031
0.067
0.062
0.079
-0.022
0.020
0.010
0.014
0.005
-0.025
-0.030
-0.003
0.074
0.085
0.073
-0.004
0.030
0.041
-0.056
-0.045
0.019
0.047
0.019
0.073
0.077
0.000
-0.043
-0.075
0.068
0.117
0.075
0.076
0.048
-0.071
-0.043
0.104
0.025
0.042
-0.014
0.129
0.108
-0.089
0.053
-0.040
-0.038
0.001
-0.022
-0.037
0.125
0.014
0.018
0.052
0.053
-0.070
0.047
-0.021
-0.006
-0.070
0.066
0.085
0.024
-0.002
0.002
0.023
0.130
0.029
0.053
-0.060
-0.039
-0.012
0.098
0.093
0.001
0.005
0.013
-0.044
0.075
0.027
-0.050
0.008
-0.046
0.100
0.035
0.042
-0.114
0.024
0.113
0.023
0.077
-0.035
-0.045
-0.000
0.046
0.039
0.066
0.056
-0.042
0.015
0.042
-0.030
-0.048
-0.068
0.129
-0.085
-0.036
0.052
0.091
0.022
-0.008
-0.028
0.032
0.035
-0.037
0.018
0.106
-0.093
0.072
-0.050
0.023
0.050
0.007
-0.047
0.032
0.006
0.010
0.035
0.085
-0.049
0.034
0.009
-0.039
0.048
0.126
0.027
-0.026
-0.051
0.076
0.056
0.089
0.047
-0.011
-0.056
0.009
-0.043
0.005
0.088
0.080
-0.022
0.007
0.019
-0.004
-0.025
0.001
0.049
0.007
-0.022
0.017
0.096
-0.062
0.022
0.020
0.157
0.087
-0.017
-0.011
-0.009
-0.087
0.002
0.060
0.094
0.049
-0.016
0.010
0.030
-0.039
0.061
0.008
0.017
0.104
-0.034
-0.076
0.050
0.010
0.015
0.155
-0.003
0.051
-0.016
0.035
-0.041
0.038
0.094
0.052
-0.037
0.019
0.016
0.118
0.005
-0.012
0.054
0.010
-0.029
-0.049
0.020
0.016
0.047
-0.004
0.057
0.012
0.088
-0.036
0.081
-0.019
0.016
0.060
-0.007
0.012
0.035
0.041
0.001
0.121
0.024
0.108
-0.033
0.067
-0.078
-0.070
0.161
0.075
-0.068
0.055
-0.019
0.015
-0.004
0.036
0.067
-0.046
-0.034
0.051
0.002
0.102
-0.011
0.065
-0.045
-0.088
0.046
0.067
0.103
-0.001
-0.042
0.047
0.043
0.105
-0.068
0.063
0.067
0.006
0.071
0.026
0.069
-0.041
-0.017
0.033
0.026
-0.040
-0.000
0.082
0.086
0.014
0.008
-0.010
0.054
0.023
0.016
0.068
0.030
-0.014
-0.085
0.018
0.136
0.104
-0.021
0.056
-0.007
-0.037
0.066
-0.013
-0.055
0.096
-0.035
0.051
0.055
-0.048
0.032
-0.029
0.062
0.037
0.053
0.004
0.022
0.008
-0.043
0.086
0.077
0.008
0.070
0.008
0.064
0.008
0.001
0.061
0.100
0.037
-0.091
-0.006
0.101
-0.001
0.070
0.034
0.071
0.019
0.078
-0.079
0.020
-0.064
0.040
0.061
0.124
0.052
0.052
0.097
-0.109
-0.088
0.031
0.093
-0.093
-0.012
0.105
0.076
0.051
0.067
0.001
-0.043
0.045
0.038
0.037
-0.055
-0.028
0.050
0.094
0.147
-0.018
0.043
-0.047
-0.087
0.074
0.039
-0.007
0.023
0.036
0.007
0.071
-0.032
0.022
-0.096
0.104
-0.048
-0.059
0.019
0.094
0.069
0.088
-0.039
0.011
0.034
-0.056
0.048
0.043
-0.007
0.090
0.025
0.095
-0.093
-0.061
-0.031
0.053
0.054
-0.011
0.093
-0.021
-0.088
-0.038
0.008
0.120
-0.028
0.002
-0.028
-0.017
0.026
-0.008
0.060
0.060
-0.067
0.002
0.013
0.099
0.076
0.000
0.015
0.053
0.171
-0.065
-0.081
0.000
0.039
0.040
0.040
-0.050
-0.032
-0.006
0.103
0.003
-0.012
0.039
-0.057
0.005
0.005
0.091
0.047
-0.044
-0.082
0.085
0.068
0.013
0.010
0.026
-0.019
0.024
0.033
-0.009
-0.027
-0.021
0.059
0.067
0.088
0.082
-0.046
-0.040
0.100
0.027
-0.064
0.019
0.057
0.026
0.043
0.003
0.001
0.072
-0.007
-0.021
0.099
0.058
-0.008
0.012
0.082
0.015
0.064
-0.032
0.071
0.063
0.048
-0.043
-0.074
0.061
0.055
0.051
-0.013
0.007
-0.025
-0.006
-0.044
0.115
-0.035
-0.028
0.059
-0.021
-0.003
0.047
0.111
0.040
-0.024
0.020
0.011
0.056
-0.050
0.086
0.046
0.001
-0.121
0.094
0.064
0.010
0.034
-0.063
0.076
0.034
0.019
-0.009
0.084
0.094
0.069
-0.023
-0.042
-0.006
-0.015
0.019
-0.032
0.049
-0.011
0.064
-0.057
0.065
-0.002
0.136
-0.028
-0.035
-0.076
0.051
0.101
0.045
-0.080
0.039
-0.010
0.115
-0.005
0.002
0.045
0.018
0.046
0.035
0.064
0.020
-0.073
-0.124
0.143
0.033
0.056
-0.023
0.151
0.074
-0.040
-0.004
0.031
-0.013
0.021
0.162
-0.019
-0.066
0.036
0.074
0.039
-0.118
0.094
0.104
-0.011
-0.059
0.074
0.016
0.012
0.050
0.028
0.051
-0.013
-0.039
0.048
0.036
0.089
-0.059
-0.021
0.080
0.082
0.154
-0.116
-0.012
0.042
-0.008
0.015
0.095
0.027
0.005
-0.075
0.061
-0.032
0.060
0.053
0.175
0.054
0.053
0.053
-0.043
-0.020
0.044
-0.081
0.142
0.039
-0.097
-0.040
0.040
0.100
0.004
-0.040
-0.005
-0.008
-0.040
0.084
0.101
0.080
-0.051
0.065
-0.024
0.028
-0.028
0.064
0.033
0.035
0.002
0.007
0.062
0.068
-0.057
-0.016
-0.033
0.087
0.028
-0.015
0.102
0.004
-0.060
-0.041
0.124
0.107
-0.125
0.035
-0.005
0.043
0.027
0.006
0.058
-0.004
-0.022
0.021
0.047
-0.022
0.027
-0.036
-0.013
0.095
0.072
0.105
0.055
-0.010
0.070
-0.013
0.013
0.066
-0.043
0.011
-0.014
0.064
0.007
0.041
0.070
-0.012
0.041
0.007
0.013
0.054
0.103
0.056
0.007
-0.070
-0.025
-0.013
0.061
0.062
0.003
0.013
0.029
0.193
-0.065
0.025
0.016
0.062
0.010
-0.038
0.088
0.058
-0.023
0.037
0.033
0.015
0.043
-0.039
0.007
0.056
0.093
0.038
0.019
-0.060
0.139
0.051
0.019
-0.009
0.068
0.075
0.025
-0.060
0.003
-0.002
0.061
0.007
0.110
-0.035
-0.071
0.002
0.045
0.074
0.017
0.080
-0.044
-0.034
0.004
0.024
0.014
-0.082
0.116
0.015
0.024
0.008
-0.002
-0.070
0.050
0.077
0.068
0.086
-0.029
-0.013
0.005
0.103
0.001
0.059
0.051
-0.091
0.022
0.071
0.018
-0.067
0.063
-0.083
0.065
-0.053
0.024
0.096
-0.012
0.040
0.019
0.041
0.022
0.052
0.088
0.041
-0.062
-0.066
0.028
-0.049
0.078
0.049
0.005
0.068
0.035
-0.030
0.031
0.063
-0.091
0.084
0.012
-0.047
-0.026
0.094
-0.013
0.064
-0.007
0.043
0.006
-0.059
0.031
0.132
0.010
-0.092
0.002
0.188
-0.029
0.024
0.104
-0.026
-0.018
-0.016
0.017
0.032
-0.000
0.099
0.042
-0.036
0.007
0.060
-0.020
0.002
0.047
-0.020
-0.007
0.094
0.002
0.048
0.029
-0.022
-0.021
0.080
0.015
0.029
0.113
-0.038
0.099
-0.023
-0.020
-0.022
0.016
0.084
-0.018
0.021
-0.033
0.017
0.072
0.048
-0.076
0.022
-0.016
0.091
0.031
0.044
0.051
0.071
0.045
-0.103
0.026
0.002
0.018
-0.002
0.068
0.027
-0.082
0.034
0.092
-0.008
0.022
0.009
0.012
0.005
0.056
-0.039
0.053
0.065
-0.001
0.062
-0.021
-0.070
0.035
0.069
-0.039
0.031
-0.008
0.096
-0.079
-0.028
0.040
0.085
0.027
0.005
-0.046
-0.046
-0.078
0.029
0.149
0.061
0.066
0.003
-0.016
-0.038
0.039
-0.029
0.002
0.018
0.008
0.082
0.054
-0.020
0.043
-0.068
0.018
0.014
0.054
-0.029
0.066
0.027
-0.138
-0.008
0.037
-0.007
-0.075
0.104
0.036
-0.012
0.007
-0.071
-0.065
0.035
-0.015
0.087
0.010
0.006
0.027
0.002
0.041
0.018
0.045
0.030
0.036
0.018
-0.023
-0.011
-0.056
-0.010
0.035
0.056
0.019
-0.005
-0.063
-0.009
-0.016
0.032
0.002
0.035
0.043
-0.011
0.050
-0.026
-0.005
-0.060
0.018
0.019
-0.002
0.111
0.007
-0.041
-0.049
0.120
-0.051
0.042
0.030
-0.056
0.012
0.038
-0.017
-0.023
0.030
0.051
0.063
0.022
0.036
0.010
0.047
0.070
0.047
-0.023
0.015
0.004
0.057
0.046
0.016
0.016
0.007
-0.012
-0.002
0.052
-0.024
0.063
0.047
-0.031
-0.001
0.011
-0.057
-0.008
0.117
0.053
0.001
0.009
0.082
0.004
0.004
-0.011
0.093
0.009
-0.001
0.006
0.032
0.015
0.031
0.068
-0.020
0.046
0.057
0.020
0.011
0.008
0.069
0.004
-0.037
0.024
-0.009
0.001
0.058
0.042
0.108
0.003
0.001
-0.032
0.141
0.022
0.012
0.048
0.040
-0.007
0.026
0.019
0.061
-0.028
0.023
-0.039
0.129
0.129
-0.010
-0.042
-0.006
-0.080
0.059
0.086
0.025
0.125
-0.035
0.075
0.010
-0.029
-0.029
0.025
0.080
0.004
0.041
0.136
0.013
-0.042
-0.039
0.097
0.018
0.077
0.032
-0.138
0.023
-0.002
0.034
0.061
-0.010
0.060
0.076
0.066
-0.055
0.024
-0.059
0.064
0.076
-0.007
0.001
-0.025
0.029
-0.031
0.098
0.029
0.067
-0.021
0.010
-0.034
0.068
-0.005
-0.010
-0.000
0.157
0.097
0.027
0.040
-0.015
-0.004
-0.044
0.076
-0.073
0.135
0.058
-0.054
0.040
0.053
0.054
0.002
-0.014
-0.009
-0.003
-0.048
0.039
0.102
0.047
-0.050
0.070
-0.006
0.073
-0.117
-0.022
0.064
0.131
-0.042
0.051
-0.001
-0.022
0.051
-0.013
0.078
0.032
0.025
0.028
0.122
-0.056
0.104
-0.129
0.016
0.027
0.039
0.067
-0.036
-0.007
0.095
0.049
0.067
0.019
0.063
0.053
-0.075
-0.094
0.095
0.094
-0.077
0.079
-0.004
-0.058
-0.056
0.105
0.029
-0.017
-0.048
0.144
-0.004
-0.020
0.027
-0.006
0.146
-0.012
0.055
-0.005
0.004
0.037
0.092
-0.042
0.027
-0.014
0.055
0.037
-0.048
-0.073
0.065
0.079
0.024
0.075
0.136
-0.022
0.002
-0.049
-0.009
0.091
-0.014
0.067
0.022
0.044
-0.062
-0.010
0.045
0.029
-0.118
0.038
0.071
-0.067
0.077
-0.032
0.039
0.041
0.087
0.086
-0.024
-0.034
-0.006
-0.020
0.035
0.022
0.047
-0.050
0.059
-0.035
0.008
0.005
0.113
-0.006
-0.071
0.028
-0.055
0.042
0.185
-0.019
-0.016
0.016
0.008
-0.028
0.000
0.047
0.144
0.023
0.032
-0.008
-0.007
0.043
-0.025
0.062
0.059
0.039
0.021
0.009
-0.043
-0.032
-0.003
0.080
0.119
-0.067
-0.003
0.017
0.073
-0.089
0.038
-0.032
-0.006
0.039
-0.001
0.070
-0.015
0.009
0.052
0.032
0.080
-0.090
0.017
0.022
0.030
0.008
-0.021
0.052
0.016
0.093
0.112
-0.024
0.051
-0.020
-0.025
-0.014
0.024
0.062
0.021
-0.027
0.044
-0.047
0.038
0.022
0.067
0.063
-0.022
0.115
-0.044
0.003
0.051
-0.026
0.076
-0.005
0.129
0.046
-0.128
-0.102
-0.001
-0.002
0.074
0.019
0.026
-0.055
-0.050
0.071
0.062
0.104
-0.032
-0.012
-0.073
0.017
0.057
0.102
0.017
0.133
-0.054
0.017
-0.044
0.092
0.045
-0.026
0.031
-0.001
0.031
-0.040
-0.002
-0.028
0.038
0.079
-0.042
-0.064
-0.049
0.062
0.006
0.031
0.045
0.141
0.061
-0.013
0.047
0.014
0.056
-0.011
0.044
0.040
0.061
-0.036
-0.016
-0.023
-0.122
0.056
0.054
-0.005
-0.019
-0.053
0.009
0.059
0.016
-0.009
0.027
0.027
-0.032
0.122
0.053
0.028
0.061
-0.013
-0.048
0.003
-0.039
0.037
0.030
-0.035
0.090
0.060
-0.019
0.058
0.027
0.036
-0.014
-0.021
0.071
-0.075
0.142
-0.057
-0.006
0.062
0.003
0.057
-0.119
0.017
0.082
0.074
-0.005
0.080
0.015
0.017
-0.024
0.037
0.065
0.006
0.062
0.048
-0.013
-0.047
0.015
0.058
-0.005
-0.050
-0.061
0.013
0.074
-0.001
-0.104
-0.006
0.120
-0.043
0.010
-0.053
0.067
0.058
0.008
0.020
0.022
0.044
0.020
-0.018
-0.035
-0.093
0.088
-0.057
0.217
0.004
-0.101
0.033
0.062
0.036
-0.014
0.004
0.076
0.010
-0.008
0.069
-0.029
0.077
-0.069
0.045
0.040
0.000
0.001
0.122
0.082
-0.061
0.004
-0.091
-0.020
0.076
0.104
-0.082
0.005
0.019
-0.012
0.006
0.037
-0.107
0.106
0.076
-0.129
0.044
0.131
-0.034
0.073
0.027
0.051
0.011
-0.020
0.058
0.004
0.004
0.012
-0.004
0.038
0.125
-0.001
0.006
-0.056
0.138
-0.020
-0.002
-0.006
0.049
0.041
0.023
-0.001
0.036
-0.015
0.104
0.062
-0.014
0.012
-0.082
0.022
0.074
0.072
-0.013
-0.056
0.065
0.113
0.007
-0.053
-0.030
0.119
0.054
-0.053
0.109
-0.013
-0.015
0.040
-0.009
-0.022
0.080
0.033
-0.013
0.025
0.000
0.024
-0.034
0.025
0.035
0.010
0.013
0.066
0.007
0.039
0.103
0.030
-0.037
0.070
-0.064
0.013
0.057
0.066
-0.017
-0.097
0.078
-0.008
-0.059
0.055
0.041
0.044
0.007
0.113
-0.045
-0.068
-0.066
-0.002
0.004
-0.000
0.064
0.124
-0.056
-0.021
0.032
0.086
0.061
-0.019
0.083
0.061
-0.019
-0.053
-0.076
0.046
-0.025
0.132
-0.018
-0.029
0.007
-0.041
0.131
0.014
-0.008
-0.021
0.083
0.078
0.058
-0.007
0.037
-0.059
0.082
-0.046
0.047
0.031
-0.001
-0.042
-0.063
0.111
0.017
-0.089
0.108
0.075
-0.003
-0.016
0.009
-0.018
0.063
0.060
0.019
0.054
0.021
-0.011
0.039
-0.017
0.055
-0.027
0.110
0.061
-0.064
-0.027
0.147
0.004
-0.044
0.037
-0.000
0.001
0.055
0.065
-0.014
0.010
-0.019
-0.006
-0.133
0.078
-0.002
0.031
-0.014
-0.040
0.025
0.001
0.095
0.125
-0.030
-0.028
-0.090
-0.010
0.093
-0.009
0.025
0.059
0.097
0.004
-0.059
-0.011
0.074
0.002
-0.025
0.083
0.059
0.000
-0.015
0.094
0.057
-0.120
0.058
0.056
-0.013
-0.029
0.058
0.014
-0.001
-0.012
-0.034
-0.013
0.011
-0.020
0.129
-0.006
0.004
0.006
-0.056
0.017
0.005
0.058
0.053
0.032
0.073
-0.106
0.056
0.047
0.060
0.033
-0.019
0.064
0.023
0.004
-0.034
0.072
0.089
0.086
-0.007
-0.053
0.054
0.013
0.022
0.014
-0.006
0.083
0.015
0.063
-0.032
-0.049
0.102
0.064
-0.067
0.059
0.033
0.028
0.070
-0.112
0.069
0.031
0.003
0.031
0.027
-0.021
-0.027
0.028
0.028
-0.021
0.140
-0.002
-0.059
0.087
0.003
0.078
-0.012
-0.017
0.028
-0.033
0.059
-0.036
-0.006
-0.057
0.092
0.056
0.023
0.066
-0.052
-0.056
0.068
0.053
-0.050
0.026
-0.008
0.007
0.089
-0.006
-0.025
-0.007
0.132
-0.011
-0.099
-0.021
-0.053
0.107
-0.033
0.133
-0.066
-0.081
0.016
0.004
0.023
-0.060
0.037
0.022
0.039
-0.007
-0.048
0.079
0.048
0.080
-0.003
-0.017
0.048
0.038
0.010
0.058
-0.013
-0.110
-0.001
-0.015
0.041
0.039
0.036
0.008
-0.049
-0.108
-0.019
0.034
0.067
-0.000
0.060
0.025
0.000
-0.009
0.001
0.104
0.048
0.009
-0.058
0.126
-0.007
0.113
0.009
0.009
0.011
0.041
0.028
0.073
0.014
0.032
0.031
-0.004
0.031
0.013
0.086
-0.115
0.069
0.065
0.057
-0.094
0.022
0.028
0.087
0.051
0.037
-0.013
-0.038
-0.028
0.104
0.006
0.034
-0.023
0.040
-0.060
0.017
-0.004
-0.031
0.149
0.059
-0.022
-0.019
0.086
0.026
-0.005
0.062
0.070
-0.045
0.082
0.098
-0.032
-0.036
0.056
-0.063
0.052
0.000
0.052
0.074
0.061
-0.077
-0.057
0.041
0.149
0.051
0.043
-0.090
-0.058
0.118
0.044
0.041
-0.045
-0.013
0.040
-0.009
-0.026
0.055
0.040
0.113
0.007
0.008
-0.014
0.041
-0.031
0.097
-0.095
-0.047
0.089
0.025
-0.039
-0.005
-0.016
-0.010
0.084
0.066
-0.055
-0.005
0.012
0.001
0.017
0.024
0.039
0.057
-0.022
0.066
0.018
-0.087
-0.012
0.016
-0.062
0.133
0.076
0.039
-0.108
-0.042
0.051
0.032
0.080
-0.025
0.049
0.030
0.008
0.057
0.018
0.004
-0.012
0.000
0.036
-0.005
0.017
0.052
0.011
-0.077
0.013
-0.010
0.001
-0.005
0.036
0.101
-0.032
-0.001
0.102
0.036
-0.021
-0.063
-0.013
-0.045
-0.070
0.034
-0.064
0.080
-0.006
0.134
0.017
0.078
-0.007
0.017
0.082
-0.044
0.008
-0.013
0.072
0.154
-0.005
-0.010
-0.032
0.042
-0.048
0.024
0.119
-0.077
0.053
0.050
-0.004
-0.010
0.046
0.040
0.003
0.016
0.021
-0.006
-0.012
0.057
0.078
-0.037
0.006
0.002
0.048
-0.029
-0.024
-0.035
0.090
-0.002
0.077
-0.016
-0.014
0.106
-0.021
0.047
-0.057
0.139
-0.062
0.004
-0.006
0.111
0.036
0.019
0.103
0.011
0.006
0.059
0.002
-0.043
0.045
0.060
-0.013
0.037
-0.008
0.065
-0.008
0.110
-0.022
0.063
-0.105
0.057
-0.022
-0.021
0.056
-0.096
-0.022
0.111
0.081
0.036
-0.029
0.003
-0.008
-0.021
0.090
0.081
0.001
-0.050
0.055
0.025
0.007
-0.001
0.083
-0.017
0.093
-0.046
-0.028
-0.019
0.065
-0.026
-0.025
0.026
0.063
0.003
0.016
-0.009
0.120
0.065
-0.059
-0.069
0.045
-0.034
-0.045
0.113
0.073
-0.067
0.006
0.087
0.007
-0.015
0.036
0.072
0.149
-0.095
-0.030
-0.026
0.042
0.050
0.026
0.054
0.080
0.032
0.077
-0.009
-0.034
-0.010
-0.052
0.059
0.034
-0.031
0.059
0.035
0.053
0.022
-0.019
0.058
0.062
-0.092
0.022
0.044
-0.053
0.051
-0.000
-0.053
0.062
-0.014
-0.063
0.109
0.001
-0.064
0.002
-0.041
0.057
0.104
0.109
0.029
-0.059
0.042
0.056
-0.035
0.044
0.004
0.085
0.008
0.067
0.047
-0.114
0.087
0.021
-0.063
0.049
0.061
0.044
0.015
0.156
-0.066
-0.051
0.012
0.104
0.051
0.055
0.074
-0.014
-0.023
-0.070
0.023
0.035
0.008
0.009
-0.034
-0.067
0.030
0.026
-0.018
-0.028
0.021
0.020
0.061
0.000
0.005
0.000
0.012
-0.038
0.036
0.068
0.102
-0.034
0.076
-0.125
-0.079
0.127
0.062
0.015
0.013
0.039
0.068
-0.013
-0.048
-0.058
0.031
0.070
-0.031
0.036
0.011
0.036
-0.037
0.035
-0.018
-0.037
0.055
0.074
0.037
0.001
0.031
0.065
0.045
-0.055
0.036
-0.019
0.012
0.002
0.048
-0.015
0.030
0.077
0.053
-0.106
-0.027
0.083
0.042
-0.121
0.048
0.048
0.089
-0.080
-0.018
0.051
-0.042
0.042
0.005
-0.001
0.078
-0.002
-0.006
0.078
-0.047
0.033
0.042
-0.050
0.041
0.047
0.032
-0.005
0.022
0.081
-0.035
0.058
0.024
-0.030
0.113
-0.038
0.002
-0.064
0.022
0.046
0.047
0.006
-0.030
0.081
-0.010
0.012
0.080
0.072
0.024
0.018
0.007
0.090
-0.008
0.030
-0.027
0.038
-0.094
0.042
-0.025
0.136
-0.028
0.084
0.026
0.049
-0.020
-0.024
0.038
-0.068
-0.003
-0.047
0.220
0.033
-0.019
0.000
0.051
-0.060
0.036
0.012
0.053
0.181
-0.167
0.059
-0.013
0.038
-0.023
0.088
-0.091
0.014
0.038
-0.001
0.015
-0.021
-0.031
0.157
-0.056
-0.042
0.049
0.039
0.118
0.026
0.107
-0.065
0.055
0.039
-0.086
0.032
-0.073
0.059
0.118
0.017
-0.011
0.015
-0.036
-0.005
0.019
0.072
0.027
0.063
-0.043
0.039
-0.036
0.013
0.072
-0.005
-0.032
-0.005
0.046
0.069
0.079
0.144
-0.019
0.039
0.047
-0.047
0.032
0.080
0.045
0.021
-0.003
0.002
0.059
0.020
-0.002
0.064
-0.028
-0.071
0.087
0.019
0.024
0.046
0.046
-0.038
-0.016
0.042
0.052
0.007
-0.035
0.155
0.074
0.031
-0.056
0.025
-0.084
0.019
0.084
0.071
0.002
-0.009
0.072
-0.012
0.146
-0.029
-0.024
0.088
-0.037
0.008
0.137
-0.026
0.073
-0.034
0.058
-0.011
0.065
0.000
0.124
-0.007
-0.023
-0.008
0.077
-0.004
0.048
-0.060
-0.026
0.075
0.014
0.049
0.043
-0.018
-0.007
0.053
0.079
0.025
-0.019
-0.033
-0.006
-0.008
0.061
-0.092
0.055
-0.111
0.182
-0.010
0.000
0.017
0.017
0.004
-0.024
-0.044
0.123
0.007
0.004
0.098
-0.037
-0.031
0.055
0.011
0.116
-0.018
-0.012
0.001
0.028
0.010
-0.050
-0.050
0.051
0.019
0.024
0.038
0.021
-0.090
-0.129
0.131
-0.043
0.048
0.025
-0.012
0.129
-0.022
0.038
-0.090
0.060
0.080
-0.023
0.004
-0.020
-0.013
0.056
0.089
-0.009
-0.038
-0.125
-0.009
0.094
0.191
-0.038
0.002
0.105
0.079
-0.133
-0.003
0.083
0.065
-0.038
0.017
0.022
-0.013
0.004
0.069
0.025
-0.115
0.004
-0.068
-0.020
0.003
0.040
0.000
0.110
0.063
0.098
0.043
-0.089
-0.047
0.027
0.030
-0.096
0.146
0.043
0.002
0.001
0.047
-0.058
0.089
0.006
0.034
0.004
0.036
-0.001
-0.063
0.170
0.018
-0.013
-0.017
-0.066
0.061
0.119
0.010
0.009
0.059
0.013
0.062
-0.024
-0.016
0.028
-0.046
0.089
0.054
-0.068
0.011
0.115
-0.033
0.046
-0.039
0.077
0.107
0.029
0.037
0.081
-0.015
0.003
0.022
0.020
-0.024
0.053
0.090
0.090
0.034
-0.063
-0.062
0.045
0.012
0.029
-0.025
-0.014
0.071
0.015
0.010
0.017
0.058
-0.067
-0.013
-0.023
0.086
0.061
-0.016
0.157
-0.076
0.033
0.036
-0.029
0.056
0.074
-0.017
0.037
0.078
0.009
0.023
0.048
-0.039
0.028
0.105
0.036
0.100
0.030
-0.023
-0.044
-0.076
0.050
0.038
0.135
0.028
-0.058
0.008
0.016
0.051
0.073
-0.008
0.025
0.031
-0.095
0.106
-0.090
0.125
-0.021
0.103
-0.078
-0.065
0.124
0.036
-0.019
0.023
0.073
0.028
0.003
-0.012
0.067
-0.056
0.054
-0.025
0.058
0.043
0.035
0.033
-0.024
-0.084
0.104
-0.001
-0.010
0.074
-0.032
-0.062
0.087
0.000
-0.020
0.016
0.095
-0.052
0.069
0.004
0.020
0.060
0.020
0.041
0.046
-0.030
0.009
0.054
0.007
0.006
-0.051
0.026
-0.013
-0.008
0.031
0.072
0.035
-0.071
-0.057
0.080
0.050
0.049
-0.031
-0.012
0.012
0.059
-0.044
0.007
0.014
0.060
-0.049
-0.015
0.164
-0.046
0.024
0.043
-0.021
0.002
-0.074
-0.072
0.033
0.066
-0.017
0.091
0.020
-0.055
0.085
-0.034
0.036
0.090
-0.066
0.100
-0.003
0.011
0.013
0.028
-0.081
0.018
-0.012
0.018
0.015
-0.016
0.138
-0.022
-0.004
-0.034
-0.097
-0.014
-0.003
0.065
-0.061
-0.034
0.015
0.103
-0.008
0.055
0.063
-0.010
-0.031
0.020
-0.097
0.053
0.110
-0.009
0.047
0.160
-0.079
0.026
-0.005
-0.060
0.023
0.075
0.008
-0.012
0.006
0.062
0.106
0.015
0.085
-0.108
0.048
-0.015
0.095
-0.053
0.050
-0.056
-0.020
0.060
0.061
0.038
-0.060
0.056
-0.012
0.096
-0.012
-0.082
-0.032
0.045
0.043
0.115
0.031
-0.045
-0.110
0.013
0.036
0.079
0.014
0.035
0.039
-0.060
0.015
0.059
0.037
0.034
0.053
-0.042
-0.018
0.007
0.018
0.079
0.089
0.062
0.022
0.019
0.046
0.002
-0.038
0.074
0.136
-0.003
-0.035
-0.013
0.028
0.053
0.010
0.016
0.028
-0.003
-0.025
-0.032
0.043
0.091
-0.022
0.033
0.041
-0.020
-0.018
0.088
0.061
0.046
0.044
-0.036
-0.059
0.046
0.075
0.051
0.029
0.038
0.013
0.015
0.012
0.032
0.043
-0.040
0.094
-0.013
0.030
0.080
-0.003
0.065
-0.010
-0.001
0.003
0.077
0.018
-0.070
0.053
0.063
-0.048
0.133
0.007
0.028
0.021
0.025
0.005
0.039
0.028
-0.032
-0.052
-0.026
0.100
0.021
-0.040
0.067
0.039
0.011
0.080
-0.026
0.019
0.069
-0.022
0.064
-0.055
0.050
0.032
0.022
0.010
0.089
0.000
0.018
0.000
0.106
0.083
-0.004
0.055
0.001
-0.010
0.014
0.056
0.078
-0.043
-0.112
-0.007
0.045
0.024
-0.034
0.099
0.014
0.096
-0.041
-0.061
0.051
0.052
-0.037
-0.076
0.040
0.097
0.052
0.082
-0.079
-0.074
0.068
0.052
0.034
0.086
-0.030
-0.070
-0.018
0.068
0.022
0.053
0.029
0.003
0.002
0.001
-0.023
0.064
0.130
-0.069
0.038
0.007
0.068
-0.011
0.051
0.039
0.058
-0.053
-0.053
-0.007
0.019
0.068
0.040
-0.041
0.042
0.024
-0.069
0.116
0.109
0.044
-0.132
0.013
-0.008
-0.015
0.061
0.021
-0.018
0.040
0.033
0.103
-0.077
0.062
-0.010
-0.020
0.098
-0.021
-0.023
-0.038
-0.033
0.066
0.077
0.167
-0.008
-0.076
-0.018
0.031
0.045
0.079
0.009
-0.045
-0.009
-0.004
0.001
0.022
0.029
0.090
-0.023
0.061
0.086
-0.089
-0.007
-0.030
0.079
-0.018
0.023
-0.053
0.046
-0.004
0.090
0.087
-0.139
-0.000
-0.018
0.079
0.124
0.000
-0.017
-0.005
-0.017
0.046
-0.020
0.043
-0.004
0.007
0.020
-0.072
0.087
0.117
-0.007
0.005
-0.069
0.100
-0.000
0.021
0.033
-0.024
-0.069
-0.003
0.031
0.108
0.057
-0.069
0.031
0.046
0.016
-0.034
-0.036
-0.035
0.030
0.055
0.133
-0.018
0.019
-0.017
0.057
-0.090
0.014
0.039
0.037
0.032
0.047
-0.003
-0.041
-0.032
-0.008
-0.049
0.014
-0.001
0.160
-0.075
-0.004
-0.017
0.080
0.056
-0.008
0.001
0.050
0.006
-0.012
0.008
0.104
0.007
-0.133
-0.033
-0.006
0.105
-0.007
0.025
0.006
0.016
-0.061
0.010
0.008
0.090
-0.008
-0.058
-0.041
0.034
0.009
0.027
0.053
0.060
0.060
-0.012
0.067
-0.044
-0.012
-0.019
-0.099
0.087
0.050
0.049
-0.083
0.071
0.091
0.003
-0.004
0.076
-0.002
0.060
-0.001
-0.011
-0.009
-0.010
-0.012
-0.039
0.072
0.024
-0.034
0.061
0.059
0.077
-0.085
0.051
0.049
-0.071
0.019
-0.012
0.092
0.055
0.037
0.048
-0.030
0.052
0.013
-0.017
0.041
0.081
0.011
-0.072
0.061
0.071
0.053
0.040
0.022
0.116
0.051
-0.066
-0.019
0.026
0.020
0.112
0.112
-0.033
0.002
-0.040
0.047
0.036
0.052
-0.025
0.064
0.079
-0.070
0.002
0.000
0.036
0.046
-0.021
0.109
-0.019
0.096
0.048
-0.073
0.018
0.050
0.039
-0.028
-0.021
0.120
0.063
-0.104
0.094
0.100
0.003
-0.025
0.044
-0.022
-0.057
0.053
0.025
-0.043
0.054
0.061
-0.033
0.069
-0.004
0.049
-0.010
-0.007
0.051
0.036
0.026
0.034
0.035
0.037
-0.000
-0.062
-0.032
0.117
0.088
-0.073
0.088
0.028
-0.046
-0.010
0.003
0.032
0.035
0.076
0.093
-0.070
0.028
0.002
0.085
0.026
-0.033
-0.002
0.097
-0.013
0.063
0.011
-0.170
0.026
0.098
-0.046
0.062
-0.088
0.046
0.062
0.115
-0.005
0.095
0.055
0.031
0.062
-0.046
0.003
0.038
-0.006
0.008
0.025
0.073
-0.024
0.031
-0.019
0.119
0.052
0.022
-0.084
-0.033
0.155
-0.021
0.042
0.051
0.051
-0.056
0.062
0.071
-0.019
0.009
0.001
0.155
-0.004
0.037
-0.121
-0.047
0.035
0.047
0.036
0.078
-0.068
0.013
-0.043
0.066
0.002
0.029
0.023
-0.014
0.055
-0.085
0.015
0.067
-0.028
0.102
-0.044
0.048
0.013
0.053
0.040
-0.064
0.008
0.023
0.050
0.085
-0.058
0.045
0.011
-0.134
0.064
0.052
-0.056
0.012
-0.065
-0.045
0.055
0.042
-0.087
0.040
0.078
0.015
0.008
0.000
0.022
0.067
0.124
0.058
-0.025
-0.067
-0.003
-0.024
-0.009
0.112
0.018
-0.088
0.017
0.022
0.030
0.062
-0.038
-0.028
0.052
0.042
-0.037
-0.037
0.067
-0.040
-0.015
0.066
0.098
-0.040
0.066
-0.034
0.046
-0.033
0.070
0.021
0.069
0.052
-0.025
0.004
0.064
0.042
0.031
-0.020
-0.068
0.019
0.045
0.059
0.067
0.015
-0.032
0.045
-0.022
0.023
-0.037
-0.062
0.017
0.030
0.076
0.036
0.011
-0.034
0.016
0.060
0.015
-0.030
0.005
0.047
-0.012
0.014
0.029
-0.013
0.075
0.072
-0.001
0.063
0.044
0.013
-0.097
-0.043
0.073
0.131
0.042
0.027
-0.145
-0.036
0.050
0.063
-0.009
0.059
0.032
-0.007
0.036
-0.026
-0.050
-0.033
0.020
0.124
0.110
-0.079
-0.011
-0.003
0.053
0.071
0.061
0.013
0.109
-0.028
-0.040
0.032
0.060
-0.046
0.024
-0.001
0.044
0.027
0.041
-0.046
-0.013
-0.021
0.039
0.014
0.007
0.066
-0.011
0.051
0.006
0.012
0.029
-0.063
0.037
0.053
0.011
0.089
0.054
0.023
-0.051
0.007
0.080
0.043
0.016
0.000
0.013
-0.017
0.062
0.043
0.067
0.036
-0.019
-0.008
-0.034
0.150
-0.050
0.114
-0.047
-0.059
0.069
0.110
0.018
0.005
-0.068
0.044
-0.022
0.098
0.007
0.052
0.097
-0.141
0.041
0.034
-0.076
0.017
0.101
-0.023
0.041
-0.012
0.023
0.081
0.056
-0.040
0.066
-0.010
-0.035
0.098
0.026
0.037
-0.056
-0.017
0.062
0.016
0.047
0.089
-0.001
0.022
-0.004
0.096
0.067
0.068
-0.041
-0.030
0.008
-0.022
0.059
0.050
0.029
0.044
-0.041
-0.051
-0.029
0.077
0.064
-0.047
-0.025
0.078
0.061
0.026
0.016
-0.049
0.041
0.088
-0.071
0.013
0.041
0.085
0.009
0.038
0.006
0.079
0.057
-0.082
0.047
-0.056
-0.006
0.150
-0.006
0.023
-0.027
-0.030
0.107
-0.013
-0.006
0.048
0.031
-0.019
-0.065
-0.004
-0.026
0.003
0.024
0.050
-0.033
0.009
0.060
0.003
-0.032
0.023
0.058
0.050
-0.051
0.066
-0.039
0.067
-0.024
-0.115
0.050
0.154
0.012
-0.048
0.046
-0.008
-0.005
-0.017
0.022
0.070
0.103
-0.105
0.044
0.045
-0.027
-0.070
-0.018
0.084
-0.003
-0.001
-0.013
0.102
0.043
0.036
-0.033
0.026
0.026
-0.127
0.049
0.053
-0.004
-0.030
0.011
0.074
0.002
-0.031
-0.032
0.103
0.206
-0.070
-0.037
0.114
-0.044
-0.010
-0.065
-0.046
0.033
0.049
-0.001
0.087
0.014
0.014
-0.012
-0.006
0.083
0.033
0.053
0.043
-0.019
-0.014
0.090
-0.050
0.024
0.064
-0.044
0.087
0.062
0.056
-0.057
-0.011
-0.015
-0.048
0.143
-0.063
0.034
0.042
0.041
-0.072
-0.023
0.084
-0.004
-0.012
0.013
-0.004
-0.006
0.058
-0.036
-0.019
0.050
0.030
-0.037
0.056
-0.014
0.041
-0.020
0.073
0.046
0.049
-0.077
-0.010
-0.004
0.142
0.049
0.005
0.021
0.021
0.013
-0.009
0.061
-0.011
0.003
-0.020
0.101
-0.038
0.024
0.019
0.006
0.049
0.062
0.088
0.037
-0.059
-0.028
-0.035
-0.075
0.089
0.028
0.024
0.046
0.058
-0.017
-0.052
0.086
0.002
0.005
0.078
-0.010
0.117
0.068
0.004
0.029
0.041
-0.023
0.113
-0.025
0.019
0.062
0.074
0.020
0.037
-0.116
-0.017
0.107
0.064
-0.091
-0.009
-0.043
0.098
0.072
0.095
0.008
-0.051
0.052
0.044
-0.024
0.043
-0.068
-0.026
0.085
0.055
-0.033
-0.008
-0.045
-0.060
0.058
0.048
0.065
-0.055
-0.007
0.019
0.077
0.049
0.039
-0.047
0.046
0.053
0.077
-0.066
-0.052
0.087
0.009
0.006
-0.013
0.011
0.017
-0.048
0.022
0.080
0.030
-0.028
0.005
-0.030
-0.094
-0.052
0.003
0.136
0.148
0.057
-0.031
-0.054
-0.103
0.114
-0.105
0.045
0.115
0.101
-0.100
-0.051
0.038
0.065
-0.038
-0.007
0.035
-0.006
-0.083
-0.074
0.057
0.056
0.049
0.027
0.075
-0.001
-0.060
-0.039
0.056
0.069
0.030
0.076
-0.011
0.029
0.068
-0.054
-0.009
0.112
0.031
-0.040
0.037
-0.045
-0.013
0.034
0.033
0.005
0.011
0.039
0.071
0.107
-0.062
0.015
-0.033
0.028
-0.030
0.037
0.021
0.009
-0.003
0.066
0.012
-0.034
-0.027
0.060
0.120
-0.022
0.034
0.041
0.086
-0.058
0.056
-0.003
0.031
0.051
-0.099
0.042
-0.051
0.005
-0.002
0.034
0.038
0.020
-0.066
0.069
-0.052
0.019
0.007
0.034
0.061
0.009
-0.024
0.022
0.041
0.037
0.031
0.028
-0.066
0.040
0.022
0.041
-0.045
-0.041
0.039
0.079
0.089
0.029
-0.106
-0.074
0.087
0.098
0.056
0.084
0.013
-0.157
-0.093
0.130
0.032
0.082
0.114
0.025
-0.023
0.030
0.040
-0.003
0.054
-0.036
-0.010
0.050
0.101
0.043
-0.029
-0.044
0.084
-0.006
0.014
0.018
-0.019
-0.006
0.100
0.020
0.080
0.082
0.046
0.018
-0.047
-0.030
0.086
0.058
-0.040
0.050
-0.003
0.054
0.019
0.075
0.008
0.062
-0.041
0.015
-0.007
-0.005
-0.000
0.005
0.068
0.033
-0.006
0.105
-0.048
-0.009
0.077
0.115
0.036
0.024
-0.005
-0.017
0.059
0.008
-0.014
-0.011
0.057
0.131
-0.024
-0.067
0.055
0.021
-0.050
0.031
0.014
-0.084
-0.008
0.108
-0.051
0.040
-0.021
0.044
-0.005
0.027
0.006
-0.018
0.091
-0.026
0.017
0.013
0.016
-0.111
0.069
0.095
0.039
-0.024
-0.057
-0.032
0.056
0.084
0.066
-0.035
0.027
0.028
0.035
0.035
0.051
0.033
0.043
0.015
0.022
-0.043
-0.013
-0.026
0.075
-0.012
0.004
-0.033
0.048
0.031
-0.035
0.052
-0.052
0.066
0.009
0.062
-0.007
0.075
-0.090
0.071
0.098
0.016
0.003
-0.047
0.114
0.014
0.036
0.040
-0.021
-0.028
0.090
0.037
0.002
0.052
0.038
0.036
-0.005
-0.043
0.055
0.047
0.042
0.050
0.059
0.039
0.035
0.068
0.045
-0.067
-0.020
0.108
-0.083
0.064
-0.034
0.016
0.050
0.003
0.026
0.019
0.069
0.057
0.059
0.116
0.020
0.062
-0.048
-0.081
0.063
0.052
-0.065
0.006
0.071
0.063
0.006
0.022
-0.012
0.050
-0.053
0.010
0.097
-0.016
-0.169
-0.025
0.067
-0.014
0.055
0.054
-0.015
0.020
0.090
-0.079
-0.039
0.019
0.052
0.031
-0.031
0.071
0.075
0.001
-0.047
0.043
0.077
-0.007
0.038
0.018
-0.049
-0.029
-0.024
0.057
0.072
0.024
-0.147
0.015
0.089
-0.025
0.005
0.019
0.095
-0.016
0.008
-0.018
0.012
0.016
0.092
0.019
-0.012
-0.032
0.005
0.049
-0.032
0.027
-0.019
0.005
-0.013
0.054
0.023
0.052
-0.014
0.049
-0.026
0.024
-0.036
-0.023
0.052
0.081
0.020
0.020
-0.028
0.050
0.005
0.033
0.057
0.074
0.041
-0.011
-0.021
0.074
0.034
-0.047
0.082
0.031
0.024
-0.009
-0.028
0.081
-0.024
-0.015
0.031
0.071
-0.022
-0.024
0.035
0.066
-0.011
-0.051
-0.045
0.150
0.113
-0.060
0.016
0.014
-0.025
0.011
0.068
0.004
-0.018
0.091
0.071
0.091
0.011
0.002
-0.111
0.023
0.143
-0.061
-0.025
0.067
-0.130
-0.042
0.102
0.080
-0.041
0.020
-0.034
-0.037
0.075
0.130
0.045
0.018
-0.039
-0.088
0.003
-0.022
0.017
0.102
0.109
-0.063
-0.083
-0.026
0.047
-0.002
0.025
0.109
-0.011
0.001
0.018
-0.055
-0.033
0.007
0.048
0.067
-0.003
-0.030
-0.026
-0.019
0.006
0.055
-0.064
0.027
0.006
-0.021
0.130
0.022
0.024
-0.025
0.068
0.009
0.044
0.111
-0.006
-0.026
0.050
-0.004
0.028
0.007
0.013
0.056
0.001
0.004
0.011
0.031
-0.027
0.014
0.028
0.074
0.082
0.002
-0.094
0.046
-0.008
-0.017
-0.019
0.036
-0.084
0.052
0.115
0.067
0.076
-0.081
0.025
0.007
0.049
0.037
0.075
0.017
-0.033
-0.057
0.042
0.118
-0.032
-0.023
-0.045
0.035
0.074
0.030
-0.001
0.021
-0.082
0.031
0.075
0.040
0.163
0.087
0.045
-0.081
-0.062
0.011
0.044
0.057
-0.016
-0.049
0.092
0.033
0.061
-0.012
0.041
0.037
-0.031
0.023
-0.016
-0.018
0.068
0.001
-0.012
-0.083
0.114
-0.009
-0.012
0.075
0.016
-0.052
0.093
-0.001
0.013
0.039
0.040
0.018
0.038
-0.019
-0.024
-0.017
0.059
-0.029
0.009
0.057
-0.009
0.010
-0.010
0.029
0.020
0.025
-0.014
0.095
-0.057
-0.009
0.018
0.089
0.094
0.010
0.037
0.066
0.003
0.038
0.077
-0.008
-0.068
0.003
0.093
0.077
0.097
-0.100
0.086
0.050
0.033
0.105
-0.041
0.011
-0.088
-0.033
0.057
0.114
-0.003
-0.071
0.015
0.060
-0.047
0.062
0.019
0.021
0.025
0.054
0.026
-0.029
0.087
0.045
0.093
-0.020
0.054
0.016
-0.057
0.049
0.046
0.007
-0.034
0.049
0.071
0.051
-0.026
0.086
-0.061
-0.004
0.101
0.038
-0.055
0.081
-0.042
-0.002
0.093
0.056
-0.055
-0.014
0.135
0.025
0.073
-0.024
0.080
-0.082
0.024
0.046
0.048
-0.042
0.007
0.082
0.028
0.045
-0.058
-0.008
0.070
0.046
-0.035
-0.035
0.018
0.064
0.018
-0.035
0.094
0.042
0.048
-0.044
-0.025
0.013
-0.002
0.080
0.032
0.067
0.044
0.018
-0.056
-0.019
0.008
0.018
0.011
0.005
0.000
0.020
0.030
0.022
0.110
-0.012
-0.008
-0.078
0.004
0.085
0.045
0.024
-0.047
0.090
0.080
0.045
0.036
0.042
-0.086
-0.060
0.055
0.063
-0.002
-0.025
0.046
-0.016
-0.057
0.048
0.042
-0.029
0.098
0.036
-0.062
0.006
-0.026
0.127
-0.087
0.102
0.060
0.031
0.022
-0.051
0.073
-0.038
-0.018
-0.005
0.052
0.064
0.049
0.039
-0.042
0.047
-0.022
-0.019
0.093
-0.003
-0.030
0.100
0.024
0.024
0.000
0.121
0.005
0.059
-0.069
-0.024
0.069
0.086
0.048
-0.020
-0.049
-0.020
-0.029
0.033
0.069
0.143
0.000
-0.047
-0.029
0.000
-0.052
0.024
0.023
0.132
-0.013
-0.043
0.017
-0.005
0.079
0.104
-0.006
-0.001
0.089
0.012
0.035
0.029
0.118
-0.036
0.026
0.028
-0.037
0.094
-0.003
-0.065
0.018
-0.055
0.078
0.027
0.126
-0.013
-0.028
0.026
0.048
0.105
0.079
0.022
-0.037
-0.019
0.011
0.061
0.004
-0.060
0.002
0.030
-0.033
0.004
0.056
0.073
0.044
0.012
0.073
0.023
-0.039
-0.028
-0.080
-0.086
0.094
0.107
0.015
-0.014
-0.024
0.082
0.109
-0.038
0.035
0.027
-0.095
0.070
0.063
0.031
0.041
0.081
0.015
0.066
0.055
0.002
-0.025
0.013
0.105
0.030
-0.000
-0.003
-0.013
0.061
-0.089
0.085
-0.051
0.010
-0.032
0.025
-0.009
0.098
-0.000
0.003
0.065
-0.013
-0.031
0.059
0.040
0.060
0.005
0.070
0.068
-0.106
0.053
0.084
-0.021
0.050
-0.038
-0.007
-0.088
0.065
0.106
0.102
-0.064
-0.024
-0.010
0.006
0.009
0.135
0.073
0.057
0.002
0.042
0.054
-0.061
0.067
0.016
0.090
0.045
-0.002
-0.067
-0.049
0.025
0.133
0.037
0.014
-0.008
-0.001
-0.027
0.003
0.082
0.018
-0.035
-0.004
0.130
-0.005
-0.013
0.022
0.012
0.013
-0.038
0.060
0.041
0.064
0.061
0.004
-0.020
0.026
-0.002
0.043
0.004
0.059
0.003
-0.010
0.045
0.082
-0.078
-0.040
0.015
0.044
0.004
0.087
0.035
0.037
0.004
-0.048
0.003
0.050
0.169
0.057
-0.059
-0.083
0.055
0.079
-0.029
0.001
0.030
0.125
0.037
0.016
0.020
0.058
0.091
0.080
0.040
-0.029
0.017
0.008
0.001
0.062
-0.043
-0.046
-0.009
0.087
0.049
-0.074
0.069
-0.035
0.003
-0.031
0.079
0.046
0.015
0.062
-0.027
0.069
0.087
0.017
-0.014
0.046
-0.028
0.057
-0.022
0.040
-0.047
-0.050
0.006
0.111
0.063
-0.002
0.053
-0.084
0.021
0.038
0.083
-0.045
0.072
0.061
-0.033
-0.020
0.126
-0.002
-0.042
-0.105
0.083
0.023
0.108
0.056
-0.013
0.049
0.011
-0.035
0.101
-0.012
-0.129
0.060
0.098
0.044
0.017
-0.008
-0.085
0.058
0.011
-0.014
0.006
0.025
0.028
-0.011
-0.048
0.045
0.056
-0.005
-0.026
-0.019
0.065
0.009
0.003
-0.046
0.066
-0.031
0.107
-0.012
-0.014
0.028
-0.033
-0.038
0.031
0.048
-0.051
0.033
0.117
-0.047
-0.009
-0.034
0.145
0.126
0.028
-0.035
0.044
-0.022
0.016
-0.032
-0.041
0.023
0.132
-0.029
0.014
0.179
-0.100
0.036
-0.012
-0.013
0.012
-0.054
0.120
0.051
-0.050
0.006
0.105
-0.023
0.098
0.056
0.046
-0.027
0.092
-0.045
0.055
-0.012
0.038
0.129
0.088
0.014
-0.055
-0.027
0.061
0.024
0.045
0.027
-0.031
0.009
-0.087
0.055
-0.064
0.097
-0.085
0.074
0.064
-0.009
0.059
-0.013
0.067
-0.040
-0.068
0.076
0.043
-0.064
0.105
0.145
-0.023
-0.052
0.014
-0.056
0.046
0.012
0.050
0.157
-0.005
0.018
0.054
0.077
-0.039
-0.021
-0.020
0.150
0.066
0.001
0.015
-0.075
-0.033
-0.001
0.057
0.080
0.052
-0.075
-0.029
0.044
0.106
0.052
0.053
-0.008
0.042
-0.060
0.080
0.021
-0.063
0.003
0.069
-0.056
-0.067
0.075
0.012
0.051
-0.011
0.001
-0.003
0.001
0.061
-0.046
-0.052
0.006
-0.058
0.057
0.068
0.018
0.079
-0.049
-0.002
0.017
0.039
0.079
0.044
0.078
0.064
0.000
-0.013
-0.044
0.020
0.000
0.119
0.021
0.058
0.086
-0.020
0.021
-0.110
0.041
0.007
0.002
-0.004
-0.011
0.100
0.013
-0.004
0.021
0.019
0.048
-0.064
0.084
0.039
0.075
-0.161
0.008
0.017
0.119
0.017
0.044
0.110
-0.016
-0.014
-0.071
0.011
-0.005
0.013
0.105
0.092
-0.067
0.019
-0.006
0.037
0.115
0.049
0.014
0.002
-0.065
0.079
0.028
-0.028
-0.041
0.092
-0.017
0.022
0.022
-0.036
0.022
0.059
0.087
-0.008
0.028
-0.029
0.055
-0.036
0.033
-0.002
0.103
-0.065
-0.019
0.014
-0.005
-0.078
-0.004
0.075
0.065
-0.025
0.048
0.072
-0.027
0.002
-0.040
0.087
0.120
0.008
0.034
0.034
-0.141
0.055
0.066
0.116
-0.074
-0.029
0.022
0.075
0.037
-0.041
0.011
0.047
-0.076
-0.002
0.022
-0.025
0.047
0.013
0.013
-0.021
0.094
0.022
0.007
-0.006
0.059
0.042
0.013
-0.046
0.064
0.021
-0.093
0.002
-0.021
0.025
0.045
0.057
0.055
0.060
0.040
-0.024
-0.039
0.086
-0.029
0.005
0.026
0.033
-0.031
-0.039
0.090
-0.023
0.041
0.078
-0.115
0.089
0.070
0.030
-0.061
-0.148
0.057
0.064
-0.024
0.124
-0.069
0.047
0.062
0.003
0.043
-0.046
0.094
0.070
0.059
0.022
0.031
-0.020
0.120
0.057
-0.060
-0.062
0.143
0.030
0.070
-0.072
0.073
-0.059
-0.012
0.032
-0.040
0.078
-0.006
0.072
0.000
-0.068
-0.001
0.073
0.016
0.061
-0.004
-0.053
0.122
0.022
0.060
-0.062
0.007
0.029
0.069
0.028
-0.012
0.082
0.034
-0.088
0.032
0.143
-0.015
-0.002
-0.052
0.155
-0.086
-0.121
0.038
0.082
0.080
0.037
0.043
0.021
0.063
-0.064
0.141
0.019
0.037
-0.025
0.048
-0.036
0.151
-0.042
-0.005
-0.028
0.040
-0.023
0.061
0.037
-0.025
0.042
0.073
-0.031
-0.047
0.088
-0.034
0.006
-0.004
0.051
0.018
-0.002
0.074
0.002
0.029
0.077
-0.035
0.052
0.087
0.037
0.062
0.040
0.054
-0.038
0.044
0.005
0.148
-0.083
-0.023
0.091
0.031
0.030
-0.024
0.035
0.042
-0.020
0.013
-0.026
0.003
0.075
0.004
0.121
0.030
-0.027
-0.037
0.023
0.039
0.048
0.082
-0.064
-0.069
0.133
-0.036
-0.014
0.104
0.098
-0.073
-0.025
0.075
0.010
0.067
-0.027
0.096
0.122
-0.042
0.081
-0.013
0.063
0.033
-0.002
-0.044
0.084
-0.016
0.014
0.062
0.109
0.028
0.050
-0.064
0.020
0.015
-0.037
0.124
0.026
0.116
-0.022
0.045
-0.088
0.061
0.020
0.067
0.025
-0.006
-0.012
-0.016
-0.026
0.016
0.047
0.109
0.040
-0.099
0.038
0.077
0.014
0.031
0.049
-0.031
-0.052
0.038
0.086
0.103
-0.029
-0.070
0.009
0.020
0.011
0.044
0.107
-0.093
0.040
0.086
0.048
-0.014
0.040
0.049
0.002
0.051
0.070
0.018
0.049
-0.017
-0.036
0.011
-0.016
-0.020
0.016
-0.058
0.124
0.037
-0.027
0.107
-0.027
0.026
0.044
0.016
-0.017
0.045
0.034
-0.046
-0.022
0.076
-0.009
0.036
0.007
-0.026
-0.069
-0.041
0.086
0.031
0.063
0.037
0.054
0.030
0.010
-0.001
0.021
0.030
0.028
0.024
0.007
-0.011
-0.032
0.121
-0.009
0.094
-0.071
-0.038
0.028
-0.003
0.067
0.058
-0.011
0.059
0.060
0.002
-0.099
0.051
0.031
0.007
0.047
0.067
0.072
-0.050
-0.063
0.070
0.007
0.073
0.079
-0.038
-0.079
0.016
0.061
0.067
-0.007
0.026
0.011
-0.055
0.051
0.121
-0.039
0.011
0.002
-0.083
0.104
0.016
0.070
0.010
0.017
0.059
0.018
-0.039
0.032
-0.032
0.043
0.086
-0.038
0.003
-0.005
-0.009
0.005
0.010
0.027
0.009
0.053
0.008
-0.038
-0.004
-0.041
0.067
0.019
-0.016
0.037
0.029
0.025
-0.103
0.116
0.056
0.079
-0.036
-0.052
-0.000
0.105
0.116
-0.038
0.037
-0.027
0.066
0.004
0.073
-0.045
-0.103
0.047
0.084
-0.054
0.017
0.011
0.083
-0.020
0.005
0.070
-0.028
-0.054
0.064
-0.025
0.101
-0.041
-0.032
0.024
0.060
-0.071
0.041
0.059
0.086
-0.070
-0.024
-0.001
0.038
-0.013
-0.026
0.156
0.130
-0.022
0.003
-0.035
-0.007
0.115
-0.018
-0.017
0.087
0.069
0.059
-0.032
-0.002
0.007
0.007
0.026
-0.019
0.014
0.054
0.015
-0.030
0.012
0.032
0.063
0.029
-0.014
0.027
-0.051
0.047
-0.000
0.023
0.040
0.017
-0.019
0.020
-0.004
-0.105
0.036
0.026
0.062
-0.020
0.093
0.070
-0.031
0.016
0.017
0.053
0.005
-0.047
0.104
0.089
0.033
0.037
-0.088
0.006
0.053
0.051
-0.009
-0.057
0.022
-0.006
0.064
0.004
-0.045
-0.013
0.099
0.017
-0.042
-0.076
-0.064
0.019
0.098
-0.080
0.070
0.082
0.014
-0.050
0.000
-0.007
0.009
0.075
-0.083
0.038
0.033
0.012
0.048
0.115
0.054
0.044
0.026
-0.040
-0.020
-0.043
0.077
0.050
0.084
0.026
-0.042
0.008
0.079
-0.031
0.034
0.006
-0.031
-0.038
0.103
-0.043
0.042
0.045
0.067
0.017
0.039
0.011
-0.009
0.039
0.038
-0.029
-0.032
0.015
0.053
-0.023
0.003
-0.021
0.075
0.071
0.070
0.021
-0.031
0.027
0.098
0.011
-0.069
0.060
-0.037
0.007
0.015
0.029
0.076
-0.010
0.040
0.003
-0.039
-0.043
0.038
0.069
0.077
0.062
-0.053
0.054
0.049
0.000
-0.047
0.010
0.061
-0.049
0.032
0.085
0.023
-0.024
0.034
0.047
-0.154
0.036
0.012
0.089
-0.004
-0.050
0.055
0.037
-0.074
0.121
-0.012
-0.044
0.001
-0.036
-0.008
0.032
0.065
0.021
0.021
0.030
-0.040
0.005
-0.077
0.132
-0.005
-0.071
0.066
-0.052
0.008
-0.003
0.115
-0.016
0.004
0.104
-0.030
-0.043
0.016
0.082
0.018
-0.026
-0.008
-0.005
-0.063
-0.048
-0.057
0.081
0.017
-0.037
0.036
-0.006
0.072
0.068
0.076
-0.097
0.058
0.016
0.093
0.055
0.053
0.021
0.004
0.053
0.046
-0.118
0.091
0.037
-0.011
0.055
-0.034
0.046
-0.142
-0.022
0.016
0.140
0.146
0.058
-0.037
-0.020
-0.055
0.071
0.020
0.035
0.026
0.132
-0.034
-0.036
0.103
-0.035
0.008
0.159
0.047
-0.014
-0.041
0.005
0.039
0.017
-0.037
0.046
0.089
0.071
0.091
-0.024
0.010
0.013
0.033
-0.029
0.067
0.018
0.145
0.044
-0.048
-0.076
0.069
0.000
0.009
0.011
0.035
0.103
0.022
-0.035
0.108
0.053
0.044
-0.008
0.058
0.029
-0.010
-0.020
0.066
0.031
-0.012
0.069
0.048
0.052
0.016
0.014
0.055
0.020
0.016
-0.035
0.074
0.056
-0.019
-0.093
-0.001
-0.022
-0.025
-0.045
0.110
0.116
-0.019
0.021
0.031
0.065
0.012
-0.103
0.049
-0.009
-0.032
0.106
-0.051
-0.031
0.104
0.020
-0.043
0.040
0.096
0.018
0.020
-0.035
0.059
-0.080
0.029
0.028
0.089
-0.053
0.106
-0.027
-0.101
0.087
0.037
0.047
0.009
-0.028
-0.091
0.003
0.003
0.093
0.060
-0.114
0.070
0.072
0.002
0.060
0.018
0.084
0.012
-0.056
0.091
0.015
0.097
0.020
-0.021
-0.035
0.027
-0.063
0.021
-0.024
0.056
0.105
0.017
-0.054
-0.039
0.023
0.043
-0.023
-0.002
0.061
0.053
-0.044
-0.007
0.096
0.002
0.049
0.040
0.089
-0.149
-0.003
-0.005
0.154
0.162
0.006
0.021
-0.047
-0.038
0.024
0.038
-0.015
0.165
0.072
0.017
-0.044
-0.049
0.022
0.059
-0.019
-0.004
-0.001
0.011
0.112
0.011
0.020
-0.071
0.028
0.048
0.051
0.045
0.127
0.066
-0.048
-0.036
-0.034
-0.003
0.125
0.013
-0.033
0.043
0.058
0.000
0.016
-0.011
0.026
0.088
-0.025
0.053
-0.034
0.001
-0.066
0.014
0.032
0.069
0.112
0.009
-0.020
-0.089
0.012
0.067
0.079
0.006
-0.056
0.007
0.106
0.001
0.033
0.038
-0.039
-0.028
0.077
0.033
-0.000
-0.001
0.112
0.031
-0.016
0.023
0.026
-0.045
-0.081
0.151
0.083
0.009
0.070
-0.069
0.001
0.115
0.025
-0.040
0.055
0.033
-0.006
-0.035
0.031
0.009
0.018
0.037
0.120
-0.053
0.029
-0.101
0.001
0.153
0.010
0.010
-0.073
0.005
-0.004
0.088
-0.042
0.019
0.022
0.084
0.045
-0.054
0.018
0.110
-0.000
0.006
0.092
0.028
0.009
0.013
0.000
0.003
0.009
-0.029
0.024
-0.036
0.042
-0.059
0.033
0.106
0.087
-0.098
-0.045
0.024
0.086
-0.041
-0.009
-0.080
0.011
0.063
0.088
0.033
0.008
-0.034
-0.070
0.047
-0.003
0.000
0.073
0.084
0.019
-0.099
0.060
0.092
-0.074
-0.036
0.018
0.057
0.013
0.077
-0.011
-0.002
-0.028
0.006
0.124
-0.001
0.047
-0.130
0.079
-0.030
-0.013
-0.036
0.019
0.057
0.060
0.014
0.014
0.057
0.030
-0.003
0.012
0.033
-0.050
0.042
0.042
-0.036
-0.040
0.024
0.102
-0.152
-0.010
0.053
0.080
0.086
-0.038
-0.006
0.045
0.057
-0.019
-0.011
0.045
0.073
-0.006
-0.012
-0.008
-0.032
0.013
0.058
0.049
-0.008
0.033
-0.044
0.103
-0.029
-0.008
-0.039
0.061
0.085
-0.011
-0.027
0.077
0.000
-0.051
0.051
0.064
0.053
0.009
0.036
-0.105
-0.046
0.006
0.067
0.097
0.062
-0.002
0.011
-0.036
-0.005
0.050
-0.029
0.023
-0.093
0.071
0.007
0.093
0.087
-0.030
-0.010
0.011
0.026
0.026
-0.053
-0.061
0.142
0.059
-0.059
0.035
0.069
-0.014
0.017
0.092
-0.026
-0.102
-0.059
0.098
0.222
-0.006
-0.039
0.024
-0.004
-0.068
0.036
0.169
0.015
-0.027
-0.076
0.108
-0.037
0.120
0.017
0.094
-0.083
-0.084
-0.011
0.071
0.070
0.001
0.093
-0.049
0.084
0.054
-0.073
-0.014
0.074
0.062
0.008
-0.088
0.186
0.094
0.014
0.003
-0.083
0.094
0.033
0.000
-0.084
-0.004
0.105
-0.048
0.047
0.073
-0.037
0.079
-0.031
0.070
-0.008
0.070
0.071
0.024
0.053
-0.071
0.018
0.011
0.071
-0.072
0.047
0.058
0.063
-0.047
-0.002
0.081
0.057
-0.005
-0.047
-0.001
0.010
-0.023
-0.001
0.089
-0.026
-0.063
0.007
0.092
0.079
-0.012
-0.120
0.006
-0.035
0.067
0.122
0.027
0.015
0.032
-0.019
0.155
-0.004
-0.038
0.027
0.025
-0.019
0.026
0.011
-0.022
0.175
0.053
0.019
0.023
-0.017
0.008
0.006
-0.095
0.068
0.016
0.067
-0.024
0.048
0.112
-0.056
0.005
-0.028
0.013
0.002
-0.001
-0.047
0.069
0.015
0.078
-0.015
0.110
-0.042
0.059
0.087
0.000
0.125
0.020
0.017
-0.083
0.108
0.122
0.031
0.028
-0.061
0.008
-0.052
0.059
-0.016
0.080
0.003
-0.025
0.076
0.054
0.026
0.012
0.072
-0.025
0.019
0.087
0.050
0.093
-0.008
-0.051
0.050
-0.008
0.108
0.014
0.083
0.099
0.008
-0.034
-0.051
0.001
0.081
0.001
0.043
0.009
0.067
0.000
-0.040
-0.017
-0.038
0.016
0.098
-0.020
-0.001
0.100
0.035
0.067
0.025
-0.065
0.072
0.067
-0.015
-0.039
0.033
0.015
-0.030
0.031
0.069
0.065
-0.013
0.040
-0.062
0.065
0.065
0.083
-0.093
0.009
0.038
0.040
0.060
0.030
-0.051
-0.047
-0.013
0.018
0.106
0.055
-0.022
-0.016
0.018
-0.012
0.032
0.041
0.026
0.082
-0.066
0.035
0.055
-0.016
0.001
-0.081
-0.021
0.105
0.002
-0.029
-0.019
-0.041
0.072
0.002
0.037
0.080
-0.001
-0.003
-0.043
-0.031
0.115
0.078
-0.080
0.122
0.051
0.016
-0.023
-0.009
0.015
-0.001
-0.023
0.048
0.018
0.080
0.040
-0.027
0.005
0.031
0.031
0.004
-0.032
0.044
0.105
0.032
-0.040
0.013
0.045
-0.036
-0.021
0.060
0.068
0.056
-0.103
0.025
0.026
0.063
-0.041
0.074
0.017
0.052
0.012
-0.006
-0.039
0.003
0.172
-0.073
0.101
0.024
-0.070
-0.027
0.012
0.033
0.084
0.068
0.019
-0.084
0.085
0.067
-0.046
-0.071
0.043
0.025
0.072
-0.029
0.044
-0.009
-0.002
0.054
0.032
-0.019
0.019
0.099
-0.043
0.075
0.091
-0.074
0.075
0.023
0.089
0.132
-0.066
0.040
0.062
-0.031
0.034
0.053
0.001
-0.006
0.035
-0.063
0.094
0.008
0.052
-0.056
-0.082
0.045
0.111
0.169
-0.111
0.020
-0.062
0.074
0.009
0.023
0.093
0.028
0.053
-0.018
-0.035
0.096
-0.085
-0.058
0.106
0.066
0.040
-0.022
-0.069
0.034
0.090
0.075
0.032
-0.008
-0.007
0.013
-0.086
0.112
-0.011
0.047
0.098
-0.007
-0.044
-0.060
0.134
0.029
0.008
0.018
0.022
0.002
0.050
0.060
-0.001
-0.002
0.052
0.020
-0.042
-0.022
0.095
0.062
0.020
0.042
-0.035
-0.043
0.019
0.052
0.063
0.025
-0.013
0.055
-0.021
-0.015
-0.007
0.019
0.038
0.053
0.027
-0.096
-0.050
-0.007
0.041
0.024
0.075
-0.024
-0.076
0.020
0.003
0.037
-0.037
0.069
0.042
-0.056
-0.004
0.025
0.125
0.038
0.044
-0.077
0.091
0.049
0.044
0.017
0.002
-0.015
0.054
-0.001
0.075
0.092
0.000
0.026
-0.067
0.031
-0.018
0.027
0.009
-0.003
0.106
0.024
0.008
-0.006
-0.068
0.043
0.038
0.039
0.040
0.068
0.043
0.052
0.057
-0.004
-0.022
-0.092
-0.023
0.078
0.042
0.081
0.123
-0.032
-0.013
0.024
-0.086
0.148
0.027
0.003
0.062
0.070
-0.081
0.011
0.076
0.027
0.138
0.010
0.050
-0.034
0.039
-0.023
0.052
-0.011
0.029
0.019
0.043
-0.037
0.026
0.039
0.131
0.008
-0.009
-0.055
0.059
0.078
0.052
-0.012
0.010
0.039
0.011
0.004
0.049
0.085
0.016
-0.050
0.096
0.108
-0.014
0.008
-0.045
0.033
0.066
0.001
0.061
-0.012
0.077
-0.025
0.022
0.025
-0.052
0.007
0.013
0.005
-0.025
0.067
-0.013
0.058
0.068
0.039
0.041
0.072
-0.002
0.057
-0.096
0.086
0.052
0.049
-0.018
0.008
0.043
0.043
0.073
0.093
-0.069
-0.057
-0.008
0.160
-0.052
0.011
0.038
0.049
0.066
0.037
-0.013
-0.012
0.027
0.026
-0.002
-0.007
0.022
0.015
0.097
0.087
-0.055
0.037
-0.019
-0.017
0.087
-0.014
0.024
0.061
-0.017
0.060
0.106
-0.055
-0.035
0.062
0.033
0.022
0.123
-0.012
-0.066
0.076
0.021
0.006
0.015
-0.045
-0.061
0.084
0.003
0.051
0.027
-0.049
0.040
0.091
-0.054
-0.053
0.018
0.059
0.024
0.061
-0.090
0.072
0.028
0.019
0.086
-0.034
-0.038
0.074
0.044
-0.005
0.027
-0.014
0.030
-0.061
0.024
0.046
0.020
0.024
0.090
-0.102
0.010
0.030
-0.098
-0.006
0.023
0.076
0.043
0.009
-0.068
0.004
-0.005
0.057
-0.027
0.047
0.015
0.019
0.000
0.019
0.031
-0.025
0.034
0.022
-0.041
0.062
0.025
-0.044
0.055
0.060
0.008
0.081
-0.073
0.080
-0.019
0.057
0.050
-0.011
-0.069
0.018
0.096
0.022
0.035
-0.022
0.093
0.026
0.071
-0.053
0.000
0.076
0.047
-0.034
0.022
-0.015
-0.020
0.025
0.053
0.016
0.059
-0.023
-0.034
0.035
-0.040
0.120
0.007
0.113
-0.031
-0.016
0.131
-0.076
0.044
0.042
-0.006
0.037
0.023
0.069
0.079
0.031
-0.113
-0.004
0.085
0.023
0.022
0.055
-0.060
-0.001
0.047
0.038
-0.054
0.069
0.083
0.010
0.021
0.027
-0.069
0.048
0.051
-0.053
0.033
0.070
0.004
0.113
0.031
-0.015
0.073
0.041
-0.031
-0.029
0.024
0.099
-0.006
0.023
0.082
0.137
0.054
-0.073
-0.042
0.025
-0.074
0.108
0.086
0.049
-0.034
0.025
0.020
0.041
-0.073
0.049
0.025
0.004
0.013
0.096
0.061
0.025
-0.061
0.014
0.109
0.057
-0.028
0.042
0.066
0.042
0.010
-0.015
-0.006
0.022
0.026
0.086
-0.003
0.098
-0.041
0.019
-0.053
0.048
0.028
0.048
0.090
0.067
-0.016
0.015
-0.004
0.109
0.014
0.012
0.089
0.002
0.079
-0.042
0.054
0.032
0.090
-0.024
0.068
-0.035
0.109
-0.045
0.105
-0.019
-0.090
0.003
0.045
0.063
0.116
-0.026
-0.049
-0.070
0.007
-0.077
0.086
-0.001
0.053
0.057
0.019
0.019
0.033
0.027
0.007
0.020
0.053
-0.131
0.024
0.112
0.078
-0.077
0.126
-0.010
-0.020
0.074
-0.023
0.136
-0.016
0.001
0.028
-0.004
-0.148
0.084
0.014
0.048
0.023
0.039
-0.051
0.010
0.039
-0.069
0.030
0.048
0.056
0.016
0.030
0.073
0.032
0.002
0.056
0.079
0.019
-0.040
-0.038
0.000
0.101
0.059
-0.048
0.010
0.040
-0.058
-0.080
0.084
-0.004
0.049
-0.001
0.010
0.040
0.040
0.074
-0.030
-0.001
-0.002
0.024
0.102
-0.004
-0.022
0.100
-0.006
0.044
-0.024
-0.049
0.017
0.125
0.002
0.073
-0.022
0.062
0.000
0.073
-0.076
0.038
0.064
0.010
0.105
-0.131
0.075
-0.075
0.027
0.017
-0.003
0.084
-0.007
-0.112
0.089
0.081
0.030
-0.052
-0.038
-0.010
0.016
0.132
0.004
-0.013
-0.016
-0.050
0.034
0.073
0.050
-0.008
0.025
0.050
0.039
0.073
-0.063
0.093
-0.024
0.028
-0.012
-0.035
0.075
-0.015
-0.002
-0.005
-0.003
0.033
-0.008
-0.019
-0.001
0.042
0.036
0.099
-0.056
-0.027
0.053
0.091
0.012
0.037
-0.034
0.067
0.044
0.090
-0.011
-0.046
0.014
-0.054
0.093
-0.004
0.013
0.066
0.071
0.022
-0.099
0.004
-0.008
0.087
0.053
-0.011
-0.060
0.083
0.085
-0.027
-0.016
-0.006
0.137
0.099
-0.097
-0.081
0.046
0.044
0.037
0.051
0.070
-0.007
0.045
-0.048
0.175
-0.052
0.048
0.033
0.023
-0.013
0.030
0.044
0.020
0.002
-0.006
0.037
-0.059
0.119
-0.040
0.042
-0.074
-0.014
0.043
0.001
-0.004
-0.080
0.090
0.055
-0.065
0.088
0.005
0.056
-0.162
0.116
0.034
0.010
-0.029
0.002
0.101
-0.013
0.082
-0.055
0.040
0.093
0.023
-0.015
0.003
0.079
-0.016
0.006
-0.045
0.050
-0.051
0.095
0.020
0.027
0.002
0.053
0.072
-0.039
0.004
-0.023
0.028
0.009
0.047
-0.033
-0.061
0.073
0.061
-0.015
-0.006
0.060
-0.027
0.076
0.109
-0.044
-0.055
0.002
-0.023
0.150
-0.017
0.137
-0.056
0.036
-0.003
0.025
0.094
-0.043
0.063
-0.021
0.039
-0.003
0.022
0.149
-0.035
-0.011
0.032
-0.001
-0.048
0.058
0.146
-0.059
-0.025
0.005
-0.013
-0.006
0.011
0.041
-0.029
0.041
0.037
-0.014
0.120
0.036
-0.043
0.064
0.039
0.129
-0.064
-0.004
0.002
0.070
-0.015
0.014
-0.022
0.067
0.042
-0.030
0.003
-0.028
0.017
0.109
0.007
-0.040
-0.031
0.131
-0.083
0.042
-0.009
-0.013
-0.024
0.097
0.066
-0.049
-0.068
0.081
0.077
-0.050
0.015
0.029
0.068
-0.022
0.012
0.013
0.109
-0.014
-0.036
-0.032
0.007
0.053
-0.006
0.060
0.059
-0.058
0.060
0.097
-0.056
0.047
-0.009
-0.044
0.068
0.032
-0.035
0.017
0.023
0.065
0.008
-0.088
0.135
-0.061
-0.033
0.062
0.007
0.095
-0.014
0.025
0.002
0.056
-0.009
0.091
0.005
-0.014
0.039
-0.009
-0.004
0.096
-0.005
-0.071
0.050
0.025
0.012
0.103
0.079
0.011
-0.101
0.015
-0.038
0.014
0.075
0.061
0.012
0.031
0.084
-0.010
-0.076
0.020
-0.019
0.065
-0.074
-0.097
0.111
0.049
0.087
0.005
-0.006
0.019
-0.009
-0.065
0.010
0.042
0.033
0.050
0.009
0.007
0.016
-0.061
0.072
0.104
0.051
-0.072
0.069
0.065
-0.032
-0.002
-0.068
0.047
0.095
-0.017
0.046
0.003
0.023
-0.018
-0.018
0.029
-0.014
0.056
0.064
-0.010
0.013
-0.001
0.003
0.013
0.003
0.024
0.062
0.023
-0.062
-0.032
0.027
0.073
0.014
0.007
0.083
0.077
-0.043
0.064
0.047
-0.050
-0.029
0.001
0.089
0.043
-0.015
-0.051
-0.048
0.076
0.071
0.098
0.049
-0.025
0.020
-0.014
0.012
0.037
0.078
-0.091
0.004
0.082
0.095
-0.048
0.049
-0.033
0.122
0.004
-0.032
-0.059
-0.028
-0.004
0.032
0.097
0.039
0.003
-0.001
-0.013
0.028
-0.051
-0.042
0.028
0.004
0.056
0.106
0.022
-0.017
0.027
0.071
-0.086
0.061
0.019
0.026
-0.038
0.014
0.020
-0.009
-0.028
0.048
0.040
0.086
-0.047
-0.022
0.029
0.084
0.040
-0.086
-0.008
0.052
0.043
0.099
-0.024
-0.040
0.043
0.013
0.120
-0.048
0.025
0.001
0.039
-0.058
0.028
-0.003
0.024
-0.027
0.069
-0.070
-0.057
0.087
0.059
-0.053
0.054
-0.043
-0.036
0.086
0.068
0.018
-0.026
0.077
0.010
-0.011
0.039
-0.020
-0.028
0.123
0.010
0.025
-0.050
-0.020
0.021
0.033
0.023
0.004
-0.009
-0.050
-0.042
0.006
-0.022
0.104
0.071
0.079
0.026
-0.066
0.072
0.107
-0.039
0.043
-0.013
-0.034
0.040
-0.018
0.069
-0.027
-0.044
-0.001
0.064
0.043
-0.035
0.046
0.005
-0.022
0.020
0.039
0.153
0.034
-0.040
-0.044
-0.003
0.040
-0.086
0.069
-0.029
0.080
-0.012
-0.031
0.013
0.128
-0.063
-0.005
0.023
0.037
0.079
0.113
-0.010
-0.041
-0.013
-0.047
0.029
-0.040
0.050
0.020
0.003
0.070
0.070
0.001
-0.009
0.048
0.067
0.001
-0.012
0.068
0.043
0.084
-0.062
0.067
0.021
0.100
0.027
0.011
-0.022
0.006
-0.019
0.074
0.058
-0.019
0.004
0.010
0.093
0.033
0.054
-0.069
0.032
0.087
-0.018
-0.033
0.089
-0.130
0.105
-0.013
0.034
-0.034
0.093
-0.059
0.017
0.039
-0.070
0.005
0.087
-0.047
0.046
-0.015
-0.007
0.099
0.058
-0.014
-0.047
-0.068
0.078
0.051
-0.083
0.079
0.061
0.055
0.056
-0.068
0.010
0.051
0.049
0.054
-0.061
-0.035
0.013
-0.014
-0.004
0.158
-0.005
-0.040
0.009
0.047
0.039
0.067
0.007
-0.056
-0.019
0.098
0.007
0.076
-0.061
0.044
0.020
-0.021
-0.001
0.003
0.073
0.004
-0.034
-0.138
0.111
-0.029
0.057
0.088
0.012
-0.000
-0.088
0.030
0.078
0.037
-0.034
0.020
0.034
0.097
-0.037
0.031
0.082
0.077
-0.117
-0.005
0.049
0.090
0.038
0.038
-0.101
0.008
0.020
0.025
0.005
0.088
-0.006
0.040
-0.035
0.122
0.018
0.034
0.043
0.077
0.061
0.029
-0.003
-0.096
0.079
0.031
-0.046
0.037
-0.016
0.087
0.005
0.063
-0.011
-0.014
-0.044
0.042
0.048
0.064
0.022
0.003
-0.062
0.031
0.026
-0.065
0.085
-0.039
0.007
0.049
0.016
0.003
-0.024
0.042
-0.023
0.027
-0.012
-0.042
0.097
0.060
-0.021
-0.055
-0.086
0.096
0.142
0.067
-0.082
0.055
0.053
0.075
-0.013
-0.072
-0.071
0.018
0.167
-0.050
-0.026
0.028
0.028
0.016
-0.063
-0.011
0.000
0.006
0.083
0.135
-0.023
-0.134
-0.046
0.089
0.004
0.050
0.006
-0.050
-0.005
-0.016
0.076
0.120
0.039
-0.025
-0.040
-0.023
0.009
0.021
0.047
-0.001
0.059
-0.072
0.007
0.047
0.057
0.017
0.011
0.008
-0.035
0.039
0.098
0.084
0.059
0.013
-0.082
-0.101
0.147
0.035
-0.016
0.013
0.021
0.080
0.025
-0.038
-0.138
-0.014
0.077
0.101
-0.005
0.102
-0.027
0.019
-0.017
0.017
-0.012
0.088
-0.029
0.031
-0.008
0.036
0.028
0.085
0.011
-0.037
0.012
-0.011
0.047
0.046
0.029
-0.008
0.088
-0.031
0.009
-0.015
-0.011
0.067
0.076
-0.010
-0.014
0.156
-0.087
0.027
-0.008
-0.038
0.057
0.044
0.028
-0.001
0.081
0.021
-0.018
0.002
-0.015
-0.003
0.066
-0.001
0.003
-0.014
0.111
0.014
-0.005
0.032
-0.013
0.005
0.058
0.013
0.027
0.159
-0.043
-0.033
-0.029
-0.026
-0.036
0.110
0.107
0.041
-0.019
0.028
0.009
0.040
-0.011
0.102
-0.048
0.096
0.005
-0.040
0.116
-0.021
0.069
0.075
-0.091
0.051
-0.122
0.066
-0.021
0.085
-0.032
-0.062
0.158
0.058
0.018
-0.051
-0.038
0.030
-0.031
0.020
-0.024
0.019
0.118
-0.015
0.069
-0.015
0.007
0.151
0.046
-0.096
0.129
0.075
0.024
-0.005
0.040
0.044
0.042
0.087
-0.037
-0.031
0.029
0.010
0.068
0.042
-0.089
0.057
-0.041
0.011
0.089
0.018
-0.059
0.000
0.026
0.093
-0.024
0.025
-0.025
-0.009
0.032
0.035
-0.053
0.112
0.027
0.030
0.016
0.040
0.129
0.095
-0.152
-0.008
0.059
0.006
0.147
-0.008
-0.049
0.053
0.000
0.021
0.043
0.003
0.046
-0.013
-0.036
-0.062
0.044
-0.033
0.097
-0.022
0.090
-0.011
0.016
0.014
-0.020
0.028
0.072
0.052
0.065
0.003
-0.075
0.026
0.017
0.071
-0.002
0.063
0.039
0.046
0.013
0.026
0.062
0.058
0.008
0.019
0.015
-0.061
0.028
-0.020
-0.052
0.137
0.044
-0.017
0.059
-0.079
0.014
-0.036
0.052
-0.040
0.053
0.069
0.082
0.022
-0.032
-0.022
0.013
0.059
0.023
0.024
0.071
-0.003
-0.034
-0.044
0.049
-0.018
0.029
0.081
0.009
-0.040
0.106
0.047
0.054
-0.010
0.089
-0.071
0.008
0.028
0.052
0.104
-0.020
-0.003
-0.038
0.076
0.051
0.046
0.035
0.049
-0.013
0.006
0.041
0.135
0.028
0.055
-0.118
-0.093
0.046
0.014
0.029
-0.015
0.032
0.085
-0.054
-0.033
-0.008
-0.027
0.043
0.002
0.123
0.056
-0.024
0.062
-0.030
0.014
0.019
0.093
-0.097
0.024
0.050
0.029
0.070
0.004
0.032
0.081
-0.005
-0.002
0.105
-0.010
-0.033
0.007
-0.012
-0.004
0.026
0.068
0.058
0.010
0.039
0.075
-0.043
-0.022
-0.057
0.006
0.084
-0.013
0.122
0.059
-0.031
0.070
-0.060
0.019
-0.062
0.060
-0.073
-0.010
0.035
0.025
0.006
0.008
-0.033
0.009
0.094
0.046
0.039
-0.072
0.107
0.037
-0.015
0.015
-0.011
-0.022
0.107
-0.011
0.094
0.046
0.073
0.111
-0.027
-0.103
0.048
-0.006
0.072
-0.026
0.001
0.044
0.056
0.096
-0.069
0.038
0.029
-0.065
-0.001
0.028
0.106
-0.007
0.063
-0.035
-0.016
0.077
0.053
0.025
-0.010
0.037
0.128
0.067
-0.094
0.057
0.041
0.014
0.038
-0.071
0.032
0.025
0.025
-0.001
0.057
0.093
0.011
-0.046
0.051
0.036
0.109
0.013
-0.067
0.038
0.094
0.058
0.088
-0.112
0.108
0.095
-0.080
-0.080
-0.042
0.046
0.038
0.154
0.024
-0.017
0.032
0.030
0.020
-0.023
0.010
-0.022
0.039
0.056
0.011
0.039
0.084
0.031
0.030
0.015
-0.017
-0.069
0.057
0.050
0.210
-0.041
0.005
-0.011
-0.033
0.033
-0.052
0.037
0.126
0.102
-0.012
-0.009
-0.057
-0.005
0.050
0.063
0.006
-0.042
0.075
0.036
0.033
-0.021
0.019
-0.031
0.071
0.084
0.073
-0.073
0.031
-0.062
-0.017
0.010
0.063
0.056
-0.087
-0.014
0.028
0.072
0.021
0.033
0.023
-0.035
0.040
0.107
0.067
0.093
0.028
-0.036
0.014
0.017
0.029
-0.016
0.023
-0.097
0.005
0.051
0.071
-0.037
-0.043
0.011
0.003
-0.033
-0.024
0.060
-0.009
-0.020
0.034
0.148
0.003
0.012
0.005
0.030
0.010
0.010
0.043
-0.011
-0.018
0.053
0.093
-0.080
-0.050
0.101
0.085
0.028
0.009
-0.012
-0.029
0.001
-0.016
0.080
-0.042
-0.018
0.027
0.006
-0.054
0.027
0.028
0.080
0.120
0.048
-0.050
-0.056
0.022
0.023
0.045
-0.048
-0.041
0.059
0.051
0.067
-0.083
0.051
0.042
-0.011
-0.013
0.028
-0.002
-0.005
0.041
-0.011
0.009
0.090
-0.071
0.041
0.032
0.084
-0.011
-0.055
0.037
0.016
0.043
-0.010
0.058
-0.096
0.012
0.025
0.032
0.030
0.078
-0.061
0.052
0.014
0.099
0.058
-0.053
0.054
0.026
0.097
0.008
0.047
-0.007
-0.138
0.102
0.005
0.024
-0.007
0.043
-0.013
0.002
-0.046
-0.021
0.078
-0.058
0.064
0.119
-0.052
0.041
-0.005
-0.005
-0.047
0.002
0.081
-0.012
0.042
-0.057
-0.030
0.100
0.049
-0.040
0.080
-0.075
0.012
0.020
0.116
0.072
-0.045
-0.089
0.112
-0.037
-0.044
0.038
0.020
0.013
-0.001
-0.015
0.043
0.027
0.030
0.021
-0.031
0.079
-0.021
-0.034
-0.038
0.086
-0.077
0.047
-0.018
0.061
0.041
-0.026
-0.036
0.076
-0.015
0.014
-0.012
0.049
-0.127
0.114
0.063
0.040
0.017
0.069
-0.034
-0.024
0.016
-0.057
0.105
0.050
-0.053
0.022
-0.012
0.021
-0.002
0.032
0.012
0.008
-0.069
0.038
-0.059
0.040
0.033
0.122
-0.092
0.064
-0.049
-0.004
0.033
-0.001
0.004
-0.035
-0.039
0.102
0.032
-0.037
0.006
0.102
-0.038
-0.007
0.030
0.019
0.100
0.018
0.016
-0.039
-0.014
0.043
0.081
-0.049
0.014
0.010
0.038
0.029
-0.011
0.062
0.061
-0.093
0.015
0.125
-0.034
0.082
0.021
-0.009
0.069
-0.015
-0.008
-0.038
0.073
0.101
-0.032
-0.010
-0.010
0.032
0.055
0.018
0.006
0.084
0.039
-0.117
0.058
-0.047
-0.007
0.045
-0.010
0.030
0.072
-0.070
0.020
0.054
-0.020
0.023
0.008
0.038
0.051
-0.061
0.026
0.175
0.009
-0.067
0.085
-0.004
0.044
-0.064
0.046
0.085
0.085
0.013
0.016
-0.019
-0.039
0.019
-0.050
0.082
0.020
0.021
-0.042
-0.023
-0.022
0.109
0.017
-0.044
0.010
-0.053
0.041
0.068
0.085
-0.017
0.154
0.000
-0.067
0.041
0.097
0.069
0.055
-0.053
-0.096
-0.047
0.085
-0.058
0.002
0.084
0.016
0.045
-0.071
-0.039
0.075
0.026
0.020
-0.000
-0.038
-0.065
0.017
0.027
-0.003
-0.056
0.101
0.054
0.009
0.077
-0.077
-0.019
0.069
0.045
0.013
0.017
0.022
0.044
0.031
0.052
-0.069
-0.029
0.015
0.030
0.074
-0.021
-0.024
0.021
0.007
0.038
0.097
0.026
0.006
-0.008
-0.083
0.096
0.039
0.093
-0.158
0.007
0.003
0.072
0.074
0.077
-0.087
0.001
0.103
-0.113
0.096
0.006
0.032
-0.016
0.085
0.097
0.018
-0.046
-0.071
-0.080
0.114
0.061
-0.062
-0.047
0.037
0.016
0.051
0.009
0.175
-0.040
0.026
0.022
-0.033
0.034
0.009
0.002
0.087
0.054
0.121
-0.018
-0.009
0.048
0.018
0.027
-0.004
0.026
0.071
0.017
-0.015
-0.007
0.023
-0.068
0.052
0.014
0.050
0.048
-0.079
0.068
0.069
0.034
0.001
-0.001
0.008
0.101
-0.004
-0.020
0.057
0.021
-0.006
0.031
0.097
0.014
0.047
-0.080
-0.001
0.031
0.086
0.055
-0.017
0.021
-0.056
0.067
-0.023
-0.037
-0.028
0.066
0.098
0.128
0.018
0.005
0.016
0.001
0.022
0.047
0.040
0.137
-0.056
-0.012
-0.086
0.025
0.071
-0.063
-0.021
0.109
0.121
-0.077
0.057
-0.018
0.046
-0.017
0.006
0.056
0.046
-0.025
0.149
0.065
-0.112
-0.036
0.010
0.163
0.075
0.019
0.002
0.022
-0.117
0.054
0.065
0.110
0.039
-0.033
0.045
0.006
0.020
0.060
-0.001
0.019
0.025
-0.005
-0.038
0.038
0.072
0.013
0.057
0.020
0.101
-0.078
-0.029
-0.003
0.003
0.115
0.077
0.021
-0.152
0.060
0.053
0.109
0.002
0.033
0.040
-0.044
0.087
0.188
-0.041
0.001
0.030
-0.051
0.019
0.103
0.037
0.013
0.105
0.033
-0.090
-0.074
-0.011
-0.018
-0.021
0.074
0.038
-0.031
0.100
-0.043
0.021
0.064
-0.003
0.077
-0.010
-0.036
0.064
0.073
0.053
-0.053
0.051
0.016
0.085
-0.019
-0.024
0.006
0.016
0.000
-0.011
0.002
0.007
0.153
0.014
-0.002
0.002
0.064
-0.014
0.049
0.022
0.005
0.069
0.053
0.075
-0.078
-0.002
0.005
0.022
0.076
0.015
-0.074
-0.001
0.023
0.059
0.026
0.003
-0.112
0.076
0.014
0.094
0.082
-0.002
-0.039
0.055
0.029
-0.007
0.057
0.040
0.002
0.011
0.056
0.062
-0.042
-0.030
0.021
0.055
0.058
0.077
0.100
-0.037
-0.041
0.004
0.090
-0.103
0.099
0.046
0.043
0.061
0.043
-0.048
-0.051
0.037
0.056
0.002
-0.061
0.032
0.027
0.071
0.021
0.051
0.026
0.057
-0.014
-0.044
0.074
0.116
-0.102
-0.076
-0.017
0.072
0.122
-0.005
0.048
-0.025
-0.012
0.015
-0.048
0.074
0.021
0.064
-0.029
-0.024
0.077
0.064
0.033
0.041
0.010
0.027
-0.008
-0.081
-0.033
0.128
0.078
-0.024
-0.024
-0.044
0.077
-0.024
0.004
-0.037
0.025
0.010
0.031
0.066
0.034
-0.065
-0.031
0.087
0.029
0.046
0.004
0.034
-0.131
0.050
0.057
0.130
-0.071
0.028
0.042
-0.035
0.028
-0.006
0.082
-0.026
0.032
0.033
0.115
0.018
-0.056
-0.004
-0.003
-0.002
0.032
0.052
0.053
-0.015
0.031
-0.014
0.059
0.049
0.024
0.060
-0.098
-0.079
0.055
0.108
0.034
0.007
0.016
-0.057
-0.013
0.016
0.036
0.006
-0.024
0.113
0.086
0.024
0.080
0.033
-0.020
-0.012
0.058
0.047
-0.054
0.008
0.018
-0.006
0.108
0.068
-0.048
0.054
-0.030
-0.043
0.088
0.056
0.053
0.012
0.079
0.027
0.019
-0.002
0.030
0.103
0.076
-0.104
-0.038
0.051
0.022
0.014
0.077
0.017
0.007
0.025
0.036
-0.033
0.099
-0.006
0.072
-0.100
0.084
-0.013
-0.013
0.099
0.039
-0.009
0.022
-0.029
-0.019
0.087
-0.140
0.025
0.057
0.110
-0.006
0.078
-0.026
0.049
0.039
-0.011
0.001
0.059
-0.001
0.003
0.056
0.021
0.019
-0.027
0.014
-0.081
0.027
0.067
0.025
0.098
-0.036
0.006
0.023
0.096
0.057
-0.080
0.014
0.005
0.037
-0.008
0.047
0.067
0.045
-0.034
-0.031
-0.009
0.009
-0.038
0.021
0.015
0.012
-0.016
0.055
-0.037
0.011
0.036
0.076
0.133
0.002
-0.027
-0.114
0.081
0.124
-0.011
-0.006
-0.007
-0.030
0.050
0.099
0.030
-0.001
-0.055
0.006
0.033
0.027
0.062
-0.010
-0.074
0.053
0.090
0.090
-0.076
0.061
0.037
0.004
0.125
-0.061
0.083
0.083
0.020
-0.032
-0.024
0.047
-0.018
-0.050
-0.003
0.060
0.034
0.018
0.101
0.048
-0.015
-0.124
0.016
0.134
0.037
0.035
0.031
0.025
-0.004
0.008
-0.016
0.112
-0.008
0.039
0.146
0.002
0.016
-0.066
0.082
0.020
0.026
0.029
0.041
-0.042
0.069
0.089
-0.045
-0.005
0.004
0.016
0.105
0.017
-0.006
0.050
0.069
0.020
-0.073
0.066
-0.002
-0.011
0.078
0.048
-0.035
0.039
0.077
-0.047
0.004
-0.020
0.080
-0.015
0.048
-0.052
0.064
0.049
-0.019
0.023
0.013
0.067
-0.027
0.004
0.028
0.123
0.082
-0.018
-0.116
-0.004
0.032
0.048
0.102
-0.058
0.118
0.067
-0.056
0.097
0.074
0.051
0.079
-0.056
-0.047
0.005
0.000
0.015
0.012
0.144
-0.035
-0.085
-0.063
0.087
-0.006
-0.047
0.073
0.002
0.027
0.141
0.050
-0.076
0.000
0.029
0.066
-0.010
0.125
-0.024
-0.039
0.075
0.038
-0.070
-0.003
-0.018
0.029
0.053
-0.001
0.045
0.027
-0.017
0.038
0.062
-0.063
0.053
0.152
-0.081
0.006
-0.065
0.035
0.013
-0.047
0.029
0.036
-0.058
0.051
0.008
-0.031
0.072
0.068
-0.019
0.047
-0.005
-0.053
0.013
0.113
0.063
0.010
0.008
0.063
0.015
0.073
0.029
0.000
-0.037
0.060
-0.100
-0.102
0.083
0.042
0.078
-0.015
-0.011
-0.052
0.010
0.024
0.014
-0.045
0.138
0.032
-0.027
0.066
-0.017
-0.047
0.085
0.048
0.067
-0.026
-0.065
-0.038
0.078
0.034
-0.068
0.018
0.025
0.066
0.007
-0.026
0.036
-0.004
0.076
0.037
0.029
0.068
0.127
0.038
0.004
0.030
-0.066
0.064
0.090
-0.062
-0.054
0.052
-0.034
0.009
0.017
0.093
-0.052
0.068
-0.034
-0.073
0.067
-0.050
-0.006
0.139
0.013
0.041
-0.041
-0.021
-0.002
0.035
0.144
-0.003
0.025
0.040
0.039
0.051
-0.017
-0.036
0.014
-0.018
0.029
0.072
-0.047
0.034
0.020
-0.124
0.093
0.031
0.087
0.010
-0.080
0.011
0.074
0.001
-0.001
-0.051
0.105
0.120
0.001
0.038
-0.131
0.017
-0.014
-0.008
0.072
0.084
-0.049
0.034
0.038
-0.078
0.018
0.074
0.070
-0.021
-0.055
0.018
0.112
-0.034
-0.035
0.017
0.008
0.021
0.047
-0.090
0.021
-0.077
0.090
0.043
0.082
0.044
-0.013
-0.060
0.083
0.002
-0.002
0.007
0.041
-0.017
0.065
-0.008
-0.036
0.001
-0.010
0.031
-0.102
-0.045
0.121
0.073
-0.044
-0.068
0.119
-0.004
0.114
0.078
0.003
-0.029
0.028
0.087
0.050
0.120
-0.008
-0.025
0.013
-0.075
0.067
0.018
0.111
0.002
-0.026
0.040
0.097
-0.114
-0.087
0.037
0.080
0.049
0.084
-0.080
-0.037
0.006
0.108
0.020
0.021
0.027
-0.079
0.022
0.015
0.112
-0.037
0.005
-0.043
0.082
0.017
0.037
-0.046
-0.003
0.070
0.100
-0.019
0.068
-0.034
0.027
0.023
-0.022
0.049
0.099
0.047
0.052
0.013
0.020
-0.062
0.125
0.038
-0.052
-0.062
0.003
0.064
0.064
0.062
0.119
-0.079
0.028
-0.027
-0.030
0.112
0.044
-0.019
0.061
0.110
-0.088
0.051
-0.071
-0.039
-0.006
0.168
-0.038
0.020
-0.008
0.066
0.026
0.018
-0.047
0.110
-0.013
0.077
0.033
0.049
0.045
0.070
-0.032
-0.059
-0.042
0.013
0.039
0.025
0.046
-0.028
0.055
0.084
0.011
-0.016
0.005
0.003
-0.019
0.059
0.068
0.048
0.099
0.000
-0.045
0.064
0.063
0.063
0.016
0.076
-0.068
0.009
-0.023
-0.017
0.083
0.013
0.081
-0.027
0.038
0.037
0.044
0.035
-0.086
-0.036
0.069
0.055
0.007
0.041
-0.020
0.071
0.103
0.019
0.081
0.032
-0.028
0.024
-0.031
0.033
-0.039
0.018
0.019
0.012
0.062
0.010
-0.030
0.036
-0.046
0.087
0.027
-0.053
-0.003
0.035
-0.050
0.006
0.038
0.159
-0.022
-0.020
-0.006
0.109
-0.047
-0.006
-0.035
0.062
0.046
0.005
0.077
-0.007
-0.013
-0.050
0.023
0.033
0.032
-0.007
-0.004
-0.038
0.001
0.070
0.065
0.046
-0.107
0.106
0.006
0.097
0.049
-0.012
-0.002
0.040
-0.048
-0.045
-0.001
0.008
0.050
-0.016
0.127
-0.037
0.014
0.055
0.069
-0.055
0.026
0.063
-0.045
0.004
0.018
0.054
0.030
-0.022
0.087
-0.014
-0.071
0.022
0.037
-0.034
0.052
0.003
0.007
0.100
0.005
-0.003
0.008
0.033
-0.032
-0.013
-0.036
0.084
0.068
0.032
-0.059
0.076
0.062
0.108
-0.044
-0.042
-0.029
0.055
0.025
0.043
0.061
0.105
0.010
-0.070
-0.059
0.025
0.087
-0.054
0.070
0.011
-0.043
0.018
-0.018
0.054
0.056
0.023
-0.034
0.055
-0.007
-0.079
0.077
0.041
-0.029
0.055
0.126
0.086
0.097
-0.022
-0.044
0.086
-0.098
-0.040
0.037
0.194
0.029
-0.016
-0.065
0.065
0.011
-0.028
-0.017
-0.007
0.082
-0.028
0.013
0.065
-0.064
-0.012
0.092
0.001
-0.010
-0.010
0.047
-0.010
0.031
0.032
-0.036
0.021
0.023
0.120
0.013
0.095
-0.025
0.067
0.031
0.070
0.015
0.001
0.101
-0.070
-0.068
0.060
0.043
0.095
0.097
-0.169
0.055
0.032
0.006
0.029
0.028
0.040
0.069
-0.015
0.051
0.014
0.013
0.042
-0.040
0.025
0.028
0.068
-0.071
-0.038
0.157
-0.023
0.008
0.027
-0.014
0.011
0.045
-0.024
0.031
0.036
0.067
-0.063
-0.084
0.021
0.076
0.037
0.002
0.082
-0.039
0.002
-0.024
0.004
-0.033
-0.005
0.044
0.091
0.077
-0.039
0.049
0.001
-0.097
0.001
0.076
0.055
-0.065
-0.025
-0.053
0.152
0.126
0.063
-0.021
-0.011
0.049
0.068
0.005
-0.048
0.077
0.053
-0.137
-0.023
0.206
-0.079
-0.019
0.052
0.060
0.041
-0.038
-0.074
-0.089
0.056
0.067
0.038
0.014
-0.013
0.116
0.130
0.117
-0.027
-0.044
-0.065
0.060
0.028
0.043
0.025
0.025
0.015
-0.024
-0.011
-0.001
0.021
0.085
-0.030
0.008
0.066
-0.010
-0.017
-0.040
0.008
-0.021
0.102
0.082
-0.028
0.059
0.034
-0.042
0.009
-0.018
0.068
0.046
0.019
0.046
0.023
-0.043
0.036
0.001
0.060
0.098
0.045
-0.012
0.034
-0.047
0.045
0.015
-0.014
0.002
0.048
-0.069
0.113
0.086
-0.081
0.002
0.040
-0.044
0.072
0.004
-0.020
-0.045
0.023
0.031
0.056
-0.062
0.014
0.058
-0.035
0.060
0.049
0.017
0.051
-0.099
0.044
0.058
0.124
0.014
-0.007
0.042
-0.020
0.054
-0.030
-0.009
0.071
0.025
-0.026
-0.049
0.033
0.080
0.043
-0.030
-0.111
0.086
0.045
-0.055
-0.022
0.062
0.090
0.043
0.028
0.012
-0.036
0.012
-0.033
0.096
0.078
-0.045
-0.040
0.074
0.018
0.060
-0.051
0.076
-0.059
0.028
0.045
0.017
-0.003
-0.021
0.065
0.118
-0.017
0.022
0.072
0.019
0.056
0.007
-0.062
0.037
0.062
0.062
-0.051
0.098
-0.054
0.074
0.057
0.012
-0.058
0.042
-0.017
-0.023
-0.041
0.043
0.008
-0.084
0.050
-0.073
0.141
0.044
0.040
-0.025
-0.041
-0.065
0.107
0.039
-0.016
-0.004
0.034
-0.029
0.068
0.083
-0.001
-0.093
-0.021
-0.002
0.036
0.089
-0.008
0.033
0.062
0.005
0.043
0.042
0.057
0.007
-0.051
-0.013
0.009
-0.049
0.038
0.026
0.084
-0.006
0.003
0.056
-0.006
0.020
-0.089
0.052
-0.006
0.047
0.006
0.079
-0.016
-0.034
-0.011
0.042
0.033
0.088
0.063
0.014
0.053
0.095
-0.051
-0.020
-0.045
-0.020
0.089
0.014
0.060
0.066
0.012
-0.018
-0.007
-0.022
0.106
0.023
0.004
-0.006
0.017
-0.024
0.012
-0.012
-0.041
0.030
0.012
0.000
-0.066
0.083
0.017
0.064
0.025
-0.040
-0.035
-0.049
0.130
0.023
-0.060
-0.070
0.109
0.029
-0.054
-0.043
0.109
0.153
0.061
-0.018
-0.118
-0.010
0.098
0.006
0.051
0.105
0.116
-0.017
-0.000
-0.040
-0.032
-0.060
0.032
0.048
-0.018
-0.022
-0.041
-0.001
0.069
0.060
0.053
-0.049
-0.006
0.016
0.002
-0.032
0.039
0.129
-0.013
-0.057
0.016
0.032
-0.050
0.028
0.073
0.055
0.032
-0.006
-0.090
0.060
-0.035
0.049
0.017
0.093
0.007
0.014
-0.065
-0.087
0.130
0.059
-0.066
-0.030
0.097
0.140
-0.055
0.066
0.027
-0.028
-0.022
0.108
0.074
-0.059
0.030
0.039
0.051
0.042
0.024
0.055
0.103
-0.022
-0.080
0.050
-0.045
-0.021
0.069
0.059
0.086
-0.035
0.020
-0.069
-0.008
-0.012
0.130
0.148
-0.015
0.054
-0.081
0.010
0.006
0.127
0.083
0.035
0.047
-0.044
0.108
-0.028
0.019
0.008
0.006
0.008
0.076
0.019
-0.016
-0.029
0.021
0.028
0.013
-0.013
0.026
0.042
0.009
0.109
-0.006
0.013
-0.009
0.053
0.007
0.068
0.036
0.069
0.020
0.124
-0.052
-0.069
0.059
0.115
0.016
-0.007
-0.083
-0.052
-0.006
0.071
0.097
0.048
0.008
-0.024
0.066
0.062
-0.050
0.033
0.105
0.085
0.030
0.036
0.011
0.033
0.054
-0.038
0.034
0.007
0.031
-0.052
0.093
-0.029
0.017
0.047
0.004
-0.016
0.052
0.107
0.059
-0.020
0.028
0.049
0.010
0.021
0.040
0.043
0.037
-0.039
0.055
0.003
-0.005
0.017
0.029
0.040
0.057
0.026
-0.066
0.019
0.015
0.052
0.040
-0.067
0.110
-0.059
0.011
0.057
0.045
0.101
0.045
0.017
0.058
0.069
0.011
-0.117
0.045
0.112
0.017
0.001
0.064
-0.033
0.038
0.029
0.065
0.026
-0.010
-0.010
-0.010
-0.002
0.056
0.012
0.056
-0.082
0.057
0.091
0.124
0.042
0.018
0.042
-0.104
0.009
0.039
0.013
0.013
-0.034
0.028
0.016
0.086
-0.078
0.037
-0.010
0.026
0.077
0.095
-0.027
-0.001
-0.052
-0.055
0.041
0.063
-0.028
0.036
0.015
0.022
-0.071
0.052
0.064
0.015
-0.056
0.005
0.069
0.169
0.060
-0.048
-0.058
-0.029
0.044
0.061
0.046
0.006
0.085
-0.047
-0.038
0.061
0.065
0.003
0.049
-0.043
0.077
0.075
-0.008
-0.082
-0.092
-0.010
0.054
0.062
0.020
0.003
0.004
-0.062
-0.024
0.007
0.187
0.048
-0.078
-0.010
0.008
-0.018
0.038
0.072
0.002
0.068
-0.004
-0.008
-0.000
0.054
0.027
0.049
-0.038
0.017
0.155
0.004
-0.063
0.015
0.030
0.064
0.034
0.008
-0.053
0.059
-0.006
0.028
0.007
0.012
0.007
-0.009
0.030
0.040
0.045
0.040
0.040
0.005
-0.082
-0.004
-0.017
0.038
0.097
-0.009
0.089
-0.038
0.030
-0.039
0.078
0.050
0.013
0.015
-0.100
0.079
0.038
0.075
-0.010
-0.016
0.090
-0.038
0.067
0.043
-0.016
-0.066
-0.013
0.002
-0.005
0.063
0.082
0.047
0.047
-0.048
0.045
0.029
-0.027
-0.037
-0.025
0.043
0.098
0.064
0.017
0.060
0.021
-0.133
-0.047
0.014
0.018
-0.016
0.042
0.025
0.023
0.001
0.011
0.013
0.017
-0.015
0.052
-0.042
0.067
0.010
-0.051
0.069
-0.021
0.048
0.009
0.068
-0.050
0.069
-0.044
-0.090
-0.012
0.110
0.062
-0.049
-0.018
0.116
0.020
-0.002
0.003
-0.057
-0.029
0.080
0.048
0.103
-0.046
0.059
0.080
-0.046
-0.006
0.046
0.027
-0.046
0.076
0.121
0.039
-0.011
-0.007
-0.042
0.020
0.025
0.079
-0.005
0.017
-0.040
-0.035
0.094
0.031
0.019
-0.120
-0.013
-0.022
0.053
0.099
0.122
0.003
-0.011
0.015
-0.001
0.027
0.018
0.029
0.110
-0.028
-0.017
-0.116
0.064
0.066
0.015
0.076
0.081
0.047
0.055
-0.064
-0.033
0.070
0.101
-0.073
0.038
0.024
0.057
-0.062
-0.045
0.077
0.002
0.048
0.020
0.106
-0.038
-0.032
0.061
-0.006
-0.024
0.124
0.009
-0.050
0.047
0.040
0.007
0.023
0.081
-0.018
-0.032
0.048
-0.004
0.017
0.010
-0.078
0.024
-0.016
0.016
0.030
0.051
-0.080
0.041
0.051
0.038
0.083
-0.014
-0.008
0.078
0.109
0.018
-0.062
0.030
-0.009
0.030
-0.007
0.031
-0.076
0.009
-0.010
-0.042
0.033
0.102
-0.010
-0.076
0.089
-0.019
-0.041
-0.051
0.065
0.033
0.044
0.071
0.049
0.038
0.056
-0.024
-0.028
0.167
-0.075
-0.023
-0.026
-0.067
-0.028
0.083
-0.004
0.092
-0.039
-0.054
0.019
0.070
-0.008
0.045
0.079
-0.055
0.051
0.036
-0.026
0.005
0.043
-0.016
0.012
0.011
0.056
-0.009
-0.056
0.137
0.138
-0.065
-0.070
-0.094
-0.054
0.054
0.036
0.067
0.029
0.070
0.069
-0.034
-0.051
0.029
0.043
-0.045
0.030
-0.069
0.096
0.018
0.042
-0.028
-0.070
0.061
-0.038
-0.021
0.023
0.078
0.004
0.052
0.081
0.008
-0.009
0.053
-0.003
-0.044
0.024
0.062
0.054
-0.024
0.037
-0.021
0.004
0.070
0.051
-0.018
0.097
-0.018
0.023
0.019
-0.059
0.034
0.001
0.024
0.003
0.004
0.000
0.019
0.062
0.004
0.083
-0.061
0.044
-0.024
0.034
0.092
-0.015
0.093
0.097
-0.038
0.011
0.021
0.106
0.043
0.031
0.009
-0.020
0.129
-0.021
-0.013
0.072
0.007
0.078
0.020
0.014
-0.021
0.023
-0.099
0.076
-0.034
0.034
0.046
0.057
-0.005
0.033
0.007
-0.067
0.018
-0.013
0.001
0.107
-0.062
0.034
0.080
0.096
0.048
-0.016
-0.009
-0.011
0.048
0.080
0.059
0.067
-0.032
0.054
0.093
-0.092
0.040
-0.013
0.007
-0.006
0.062
0.136
-0.005
0.025
0.060
0.003
-0.058
-0.025
0.068
0.025
0.025
-0.044
0.064
-0.022
0.045
0.031
-0.003
-0.118
0.004
0.091
0.062
0.053
-0.038
0.077
-0.022
0.011
0.065
0.054
-0.004
0.048
0.044
0.013
0.023
0.034
0.114
-0.011
-0.048
0.013
0.119
0.048
0.002
0.001
-0.014
-0.026
-0.014
-0.000
0.047
0.031
0.035
0.088
0.044
-0.020
-0.031
0.042
-0.043
-0.029
0.059
0.063
0.097
-0.032
0.050
0.004
0.046
-0.008
0.042
-0.030
-0.104
0.088
-0.017
0.070
0.105
0.051
0.120
0.008
-0.033
0.043
0.054
-0.077
0.084
0.079
-0.033
0.029
0.133
-0.024
-0.105
0.013
0.082
0.099
-0.050
-0.033
-0.010
0.031
0.101
-0.052
-0.023
0.053
0.081
-0.055
0.016
-0.015
0.072
-0.021
0.058
0.038
-0.065
0.026
0.027
-0.059
0.051
-0.090
0.022
0.039
0.127
0.056
0.061
0.019
-0.022
0.113
-0.130
-0.044
-0.012
0.027
-0.001
0.019
0.050
0.046
-0.017
-0.056
0.089
0.002
-0.009
0.092
-0.065
-0.007
0.058
-0.010
0.060
0.043
0.140
-0.013
-0.012
0.009
-0.019
-0.003
0.042
0.091
-0.028
0.014
0.088
-0.018
-0.033
0.059
0.012
0.016
-0.038
0.002
0.021
0.074
0.044
0.003
0.031
-0.039
-0.010
0.043
0.153
-0.026
-0.045
0.064
-0.018
-0.084
0.131
0.012
0.010
0.059
0.015
0.029
0.120
-0.055
0.067
0.014
0.018
0.027
0.094
0.099
-0.031
-0.031
-0.022
0.077
0.043
0.065
-0.164
0.131
0.012
-0.003
-0.061
-0.018
0.093
0.035
-0.015
0.025
0.073
0.030
0.042
-0.093
0.024
0.108
0.098
-0.004
0.064
0.047
0.016
-0.011
0.002
0.058
-0.074
0.062
0.111
0.060
0.081
-0.005
-0.004
-0.000
0.003
0.044
-0.009
0.031
0.039
0.002
-0.061
0.013
0.015
0.031
-0.025
-0.012
0.047
0.059
-0.013
0.025
0.044
0.005
0.009
-0.020
0.043
-0.087
0.082
0.038
-0.019
-0.002
0.008
0.034
0.071
-0.083
0.060
0.043
-0.011
0.023
-0.047
0.053
0.075
-0.010
0.062
0.004
0.039
-0.047
0.051
0.104
-0.034
-0.070
-0.004
0.101
0.011
0.011
0.051
-0.016
0.085
0.094
0.062
-0.053
0.013
-0.022
0.074
-0.028
0.069
-0.004
0.036
-0.028
0.018
0.012
0.060
-0.018
-0.067
0.093
0.051
0.068
-0.022
-0.011
-0.079
0.011
0.113
0.016
0.001
-0.085
0.003
0.107
-0.019
0.081
0.084
0.010
0.056
0.057
0.078
-0.088
-0.139
0.037
0.163
0.106
-0.019
-0.034
0.044
0.025
0.041
0.129
-0.055
-0.026
0.080
-0.060
0.061
0.001
0.049
0.038
-0.054
0.063
0.127
0.029
-0.134
-0.118
0.057
0.070
0.046
-0.025
0.074
-0.039
0.007
0.057
0.080
-0.004
-0.062
0.013
0.074
-0.010
-0.001
0.016
0.044
0.008
0.003
-0.002
-0.019
-0.069
0.078
0.062
0.002
-0.006
0.009
-0.007
0.085
0.017
0.037
-0.076
0.131
0.091
0.054
-0.086
-0.047
0.075
-0.094
0.129
0.047
-0.067
0.015
0.008
0.064
0.017
0.017
0.035
0.013
-0.049
-0.083
0.095
0.066
-0.011
-0.008
-0.012
0.020
0.025
-0.067
0.015
0.073
0.062
0.052
-0.020
0.069
-0.027
-0.036
-0.016
0.029
0.087
0.113
0.021
-0.044
0.119
-0.024
-0.059
-0.021
0.065
0.032
0.070
0.054
0.080
-0.009
0.055
0.013
-0.028
-0.000
0.025
0.035
0.070
0.016
-0.132
-0.021
0.043
0.176
0.061
0.025
-0.009
0.008
0.013
0.031
0.042
0.045
-0.004
-0.024
0.002
-0.017
0.020
0.038
0.030
0.024
0.048
0.014
0.060
0.068
-0.045
0.052
0.028
0.002
0.019
-0.047
0.078
0.034
0.084
-0.022
-0.070
0.006
0.021
0.019
0.025
-0.043
0.059
0.072
0.144
0.008
-0.021
-0.035
0.012
-0.060
0.047
0.052
0.033
0.087
-0.011
-0.066
0.106
0.134
-0.075
0.045
0.017
-0.035
-0.004
0.015
0.021
0.008
0.031
-0.033
-0.035
0.044
0.021
-0.080
-0.033
0.075
0.070
0.101
0.022
-0.005
0.045
0.023
0.024
-0.006
0.050
-0.028
0.081
-0.057
0.040
0.024
0.018
0.092
-0.005
-0.061
-0.010
-0.012
-0.008
0.045
0.050
0.111
0.002
-0.015
0.006
0.040
-0.026
0.030
0.104
-0.056
0.057
0.060
-0.045
0.022
0.017
0.016
-0.068
0.035
0.081
0.013
0.075
-0.015
-0.002
-0.017
0.083
0.112
0.030
-0.088
0.084
0.102
-0.093
-0.105
0.027
0.024
0.025
-0.030
-0.011
0.056
-0.025
-0.097
-0.022
0.100
0.130
0.100
-0.023
-0.021
0.057
0.067
-0.028
0.084
-0.009
0.018
0.054
-0.049
0.007
-0.010
-0.062
-0.035
-0.071
0.036
0.003
0.052
-0.099
0.040
0.128
0.060
0.025
0.011
0.054
-0.046
0.002
-0.031
0.086
0.053
0.039
0.062
-0.021
-0.059
-0.016
0.043
-0.014
0.007
0.007
-0.013
0.086
-0.027
-0.118
-0.017
0.025
0.090
-0.018
0.038
0.029
0.177
0.018
-0.067
0.043
0.070
-0.142
0.002
0.000
0.032
0.040
0.053
0.067
-0.006
-0.090
0.032
0.013
0.033
0.071
0.104
-0.090
-0.043
0.062
0.140
-0.034
0.063
0.018
0.027
-0.018
0.031
0.020
0.028
0.023
0.110
0.058
0.023
0.042
-0.128
0.002
-0.036
0.115
0.032
-0.019
0.017
0.073
0.015
0.015
0.044
-0.006
0.024
0.004
0.036
-0.039
-0.007
0.088
0.018
0.080
0.020
-0.003
-0.050
0.161
-0.048
-0.065
0.029
0.088
0.091
0.070
0.093
-0.034
-0.048
-0.016
-0.058
0.046
0.058
0.062
0.015
0.025
0.081
-0.100
0.061
0.032
-0.031
0.050
0.047
-0.004
-0.008
0.021
0.055
-0.044
0.087
0.002
0.002
0.041
-0.028
0.013
-0.015
0.152
-0.015
0.014
-0.002
-0.023
0.010
0.054
0.011
0.126
0.065
0.061
0.002
-0.043
-0.024
0.065
0.054
-0.013
0.025
0.065
0.054
-0.061
-0.036
0.059
0.055
0.003
-0.043
0.045
-0.024
0.043
0.074
-0.034
-0.112
0.025
0.081
-0.003
-0.015
0.064
0.027
0.013
0.037
-0.034
0.042
0.021
0.086
-0.014
-0.006
-0.044
0.085
0.089
-0.031
-0.001
0.049
-0.007
0.040
0.030
0.037
0.070
-0.043
0.014
-0.030
-0.014
0.097
-0.033
-0.052
0.082
0.121
0.044
-0.097
0.001
0.060
0.006
-0.020
-0.026
-0.027
-0.005
-0.023
0.018
0.117
0.007
0.004
0.004
-0.049
-0.030
-0.039
0.121
0.018
0.066
-0.018
0.016
0.018
0.043
0.103
0.109
-0.141
0.135
-0.067
0.001
0.054
0.012
-0.033
-0.011
0.123
-0.034
-0.003
0.043
0.088
0.092
-0.020
0.030
-0.023
-0.027
-0.003
-0.048
0.048
-0.002
0.044
-0.002
0.116
-0.012
-0.020
0.008
0.061
0.003
-0.019
-0.012
-0.028
0.113
0.054
-0.051
-0.027
0.047
-0.018
-0.014
0.074
0.075
-0.021
-0.009
0.084
-0.030
0.038
0.099
-0.052
0.045
0.003
0.058
0.002
-0.013
0.098
0.088
0.026
-0.087
-0.023
-0.010
0.050
-0.009
0.032
-0.027
0.043
-0.019
0.078
0.040
0.046
-0.000
0.067
0.012
0.020
0.001
-0.007
0.058
0.008
-0.001
-0.018
-0.003
-0.004
0.087
0.045
-0.013
0.055
-0.081
0.021
0.025
-0.074
0.000
0.026
0.016
0.025
0.000
-0.034
0.021
-0.075
0.117
0.046
-0.041
0.023
0.017
0.042
0.093
0.043
0.099
0.004
0.136
-0.021
-0.010
0.052
-0.086
0.070
0.033
0.054
0.025
-0.102
0.101
0.020
0.058
0.011
-0.007
-0.033
0.067
0.067
-0.039
-0.068
0.068
0.145
-0.004
0.013
-0.003
-0.054
0.092
0.020
0.013
-0.022
0.013
0.053
-0.042
-0.029
-0.006
-0.017
-0.003
0.002
0.132
-0.038
-0.053
-0.007
-0.080
0.111
0.011
0.003
0.068
0.078
0.006
0.004
0.067
0.081
0.026
-0.023
0.032
0.009
-0.023
-0.059
0.009
0.103
-0.024
0.018
0.034
-0.024
0.021
0.054
-0.011
-0.004
0.129
0.024
-0.057
0.028
-0.005
-0.045
0.020
0.079
-0.072
0.010
0.026
0.003
0.081
-0.033
-0.094
0.009
0.104
-0.013
-0.082
0.061
0.063
0.000
-0.083
-0.016
-0.019
0.096
0.063
0.028
-0.025
-0.016
0.048
0.021
0.033
-0.003
-0.070
0.067
0.070
0.014
0.076
-0.057
0.024
0.121
-0.014
-0.025
0.005
0.101
0.014
-0.017
0.009
-0.004
0.126
-0.003
0.018
-0.065
-0.011
0.045
-0.088
0.026
0.068
0.070
0.035
0.007
0.062
-0.029
-0.085
0.001
0.007
0.054
0.160
0.000
-0.047
-0.054
0.026
0.027
0.055
0.062
0.008
0.030
0.005
-0.035
0.075
-0.051
0.059
-0.023
-0.056
0.011
0.018
0.045
0.015
0.016
0.069
-0.056
-0.007
0.092
-0.028
0.022
0.030
0.070
-0.028
-0.007
0.059
0.064
0.055
0.033
-0.049
0.036
-0.047
-0.037
0.138
0.038
0.004
0.062
0.057
-0.026
-0.009
0.005
-0.073
0.017
0.086
0.090
0.013
-0.021
0.027
0.016
0.056
0.004
-0.048
-0.001
0.078
0.091
0.046
-0.111
0.010
-0.004
-0.006
-0.042
-0.066
0.078
-0.008
0.053
-0.043
0.106
-0.071
0.042
0.029
0.016
-0.042
0.038
-0.001
-0.025
0.018
0.017
-0.016
0.054
-0.076
-0.035
0.129
0.058
0.091
-0.007
-0.007
-0.022
0.006
-0.023
0.152
-0.090
-0.002
-0.011
0.231
-0.021
-0.054
-0.107
0.036
0.050
0.042
0.019
0.082
0.028
0.061
0.047
-0.075
0.008
-0.049
-0.008
-0.030
0.009
0.024
0.021
0.098
-0.014
0.002
-0.027
0.001
-0.008
-0.033
0.046
0.018
0.009
0.002
0.064
-0.052
0.040
-0.034
0.043
0.025
0.117
0.006
-0.066
-0.059
0.026
0.015
0.055
0.016
0.052
0.067
-0.004
0.023
0.113
-0.001
0.117
-0.003
0.031
-0.050
-0.006
0.055
0.104
0.071
0.029
-0.021
-0.035
-0.007
0.055
-0.036
0.076
0.110
-0.003
-0.004
-0.062
0.019
0.039
0.011
-0.002
0.018
0.010
0.057
0.091
0.031
-0.065
-0.077
0.017
0.096
0.027
0.005
0.060
0.073
0.007
-0.056
0.080
0.005
0.154
-0.066
-0.127
0.083
-0.044
0.042
0.089
0.100
0.075
-0.050
0.006
-0.007
0.002
0.048
0.058
-0.104
0.007
0.107
0.017
0.084
-0.092
-0.054
-0.095
-0.057
0.183
0.044
0.045
-0.025
0.012
-0.027
0.094
0.098
0.039
0.010
0.012
0.059
0.052
-0.041
-0.048
0.134
0.045
0.028
0.011
0.036
-0.024
-0.116
0.001
0.093
0.079
0.010
-0.024
0.024
-0.038
0.034
-0.040
0.022
0.057
0.001
0.018
0.070
-0.086
-0.001
-0.072
0.082
0.040
0.122
0.064
0.025
-0.046
0.011
0.000
0.086
0.009
0.003
0.021
0.032
0.051
0.014
0.068
0.022
0.008
-0.081
-0.060
0.073
-0.025
-0.065
0.084
0.025
0.025
-0.017
-0.057
-0.031
0.001
-0.003
0.020
0.022
0.060
0.059
0.064
-0.048
0.045
-0.020
0.049
0.035
-0.010
0.048
-0.096
-0.019
0.017
0.080
0.007
0.024
-0.092
-0.008
0.030
-0.018
0.033
0.028
0.150
0.065
-0.033
0.009
0.039
-0.028
-0.037
-0.030
0.158
-0.004
0.030
0.047
-0.049
0.026
0.019
-0.021
-0.024
0.018
0.138
-0.032
0.034
-0.052
-0.016
0.100
-0.044
0.039
0.001
-0.056
0.043
0.008
0.011
0.028
0.050
0.020
0.015
0.043
-0.042
0.114
0.028
0.008
0.107
-0.041
-0.091
0.124
-0.021
0.014
0.084
0.047
-0.053
0.063
-0.042
0.031
0.022
0.029
-0.003
0.113
-0.022
0.056
0.113
0.043
-0.044
-0.037
-0.041
0.077
0.187
-0.005
0.053
-0.070
0.033
-0.013
-0.015
0.048
-0.035
0.033
-0.020
0.004
0.056
0.033
0.044
0.042
0.002
0.009
0.013
0.034
-0.017
-0.097
0.063
0.039
-0.006
-0.033
0.057
0.056
-0.019
0.060
-0.007
-0.009
-0.041
0.078
0.031
-0.035
-0.017
0.064
0.053
0.037
0.005
-0.021
-0.072
0.055
-0.087
0.059
-0.007
0.053
0.064
-0.058
-0.021
0.041
0.062
-0.006
0.083
0.003
-0.004
-0.060
0.013
-0.063
-0.050
0.010
0.073
0.058
-0.044
-0.014
0.049
0.023
-0.058
0.087
0.075
0.040
-0.033
0.069
0.015
-0.058
0.044
0.045
-0.021
-0.073
0.140
0.048
0.034
-0.044
-0.014
0.012
-0.020
-0.004
0.056
-0.025
-0.046
0.052
0.065
0.022
-0.028
-0.120
0.060
0.066
0.063
0.034
0.080
0.008
-0.029
-0.010
0.017
0.037
-0.037
-0.002
0.071
-0.007
0.032
0.017
0.051
-0.060
0.073
0.030
0.103
0.051
0.025
0.028
-0.025
-0.026
0.011
0.057
0.042
0.106
-0.049
0.025
-0.027
-0.107
0.054
0.111
-0.019
-0.028
0.003
0.043
0.101
0.030
0.038
-0.012
0.018
-0.037
0.090
0.020
-0.053
0.010
0.040
0.030
-0.051
-0.018
-0.009
0.045
0.030
0.090
0.081
0.047
0.020
-0.111
0.073
0.007
0.002
-0.004
0.079
0.123
-0.012
-0.057
-0.047
0.026
0.085
0.022
-0.068
-0.009
0.129
0.039
0.006
0.061
0.038
0.098
-0.032
-0.051
0.070
-0.022
0.015
0.085
0.029
0.099
-0.119
-0.020
0.076
-0.033
-0.063
0.003
0.025
0.019
0.109
-0.004
-0.017
0.026
0.022
0.071
0.109
0.073
-0.019
-0.023
0.049
0.062
-0.011
-0.034
0.089
0.036
0.041
0.003
-0.014
0.026
0.104
-0.037
0.053
0.076
-0.011
0.047
-0.052
0.008
-0.055
0.069
0.045
0.103
0.080
-0.104
-0.002
-0.011
0.100
0.093
0.008
-0.114
0.099
0.152
0.057
-0.025
-0.033
-0.041
-0.007
0.045
-0.033
0.155
0.036
-0.007
0.005
-0.014
0.022
-0.069
0.022
0.082
0.067
-0.006
0.010
-0.031
-0.043
0.059
0.084
0.008
0.034
-0.035
-0.004
0.082
0.081
-0.020
-0.020
-0.033
0.073
0.013
0.089
-0.032
-0.001
0.024
0.008
-0.038
0.063
0.024
0.028
0.040
0.018
-0.006
-0.023
-0.028
0.023
0.038
0.001
0.107
0.031
0.039
-0.025
0.126
-0.021
-0.003
-0.047
0.064
0.036
0.118
0.023
-0.070
-0.019
0.020
-0.031
-0.022
0.095
-0.029
0.102
-0.023
-0.025
0.007
0.050
0.074
-0.005
0.085
0.053
0.001
0.008
0.016
0.059
-0.004
-0.014
-0.049
0.019
0.114
0.045
-0.046
0.013
-0.028
0.036
0.081
0.079
-0.034
-0.013
0.044
0.019
0.033
-0.015
-0.001
0.007
0.051
0.020
-0.058
0.004
0.044
-0.051
0.070
0.032
0.074
0.082
-0.008
0.049
-0.080
-0.049
0.069
-0.013
0.039
0.062
0.059
0.007
0.053
0.011
-0.042
0.006
0.010
0.000
-0.010
0.030
0.044
-0.025
-0.045
-0.003
0.063
0.010
-0.032
0.068
0.055
0.052
-0.064
0.022
0.025
0.020
-0.007
0.004
-0.070
-0.015
-0.029
0.027
0.146
0.103
-0.023
-0.010
-0.100
0.000
-0.088
0.051
0.085
-0.081
0.055
0.015
0.070
0.009
-0.034
0.061
-0.076
-0.019
0.014
0.053
0.045
0.068
0.024
-0.071
0.077
-0.052
0.110
0.074
0.067
-0.085
0.008
0.028
0.046
0.087
-0.066
0.008
0.020
-0.029
-0.092
0.035
0.049
0.146
0.031
-0.054
-0.022
-0.049
-0.032
0.031
-0.028
-0.015
0.163
0.079
0.033
-0.061
-0.028
0.044
0.038
0.022
0.037
0.018
0.016
-0.103
0.002
0.079
0.087
0.039
-0.116
-0.012
0.028
0.064
0.044
0.094
0.038
0.095
-0.060
0.022
0.054
0.033
0.113
0.003
0.010
-0.011
-0.017
-0.060
0.042
0.072
0.026
-0.019
0.010
0.027
0.122
-0.103
0.054
-0.010
0.044
-0.017
0.095
0.012
-0.024
0.048
-0.018
-0.012
0.060
0.042
-0.008
0.077
0.035
-0.010
0.005
0.126
0.017
0.028
-0.017
-0.007
-0.022
0.083
0.021
0.081
-0.002
-0.038
0.063
0.033
0.023
-0.009
0.026
-0.011
0.050
0.023
-0.022
0.029
0.070
-0.009
-0.017
0.046
0.039
0.012
0.005
-0.016
-0.003
0.099
0.014
-0.062
-0.012
0.068
0.053
-0.072
-0.008
0.077
0.108
-0.012
-0.040
0.105
-0.078
-0.077
0.006
0.063
0.021
0.079
0.093
-0.006
-0.075
-0.041
0.063
0.055
0.130
-0.047
0.119
0.006
0.042
0.085
-0.016
-0.077
0.011
0.000
0.128
0.045
0.004
-0.047
-0.052
0.048
0.028
-0.134
0.097
0.036
-0.053
0.022
0.067
0.035
-0.014
-0.004
0.018
0.052
-0.087
0.155
0.026
0.021
0.021
0.085
0.051
-0.042
0.018
0.054
0.025
-0.034
0.062
0.075
0.077
0.033
-0.050
-0.024
0.032
0.021
0.034
-0.030
-0.016
0.083
-0.035
0.133
-0.016
-0.100
0.016
0.041
0.084
0.035
0.056
-0.081
-0.018
0.099
0.019
0.021
0.081
-0.035
0.066
0.034
0.012
0.001
-0.073
0.008
0.023
0.005
0.063
0.009
-0.031
-0.014
0.105
0.067
0.009
0.097
-0.059
0.049
-0.019
-0.021
0.043
0.086
0.018
-0.007
-0.019
-0.040
0.045
-0.058
0.043
-0.003
-0.019
0.033
0.001
-0.005
-0.000
0.053
-0.066
0.104
0.032
-0.012
0.002
-0.035
0.006
0.027
-0.009
-0.018
0.013
-0.004
0.058
-0.014
-0.083
0.092
0.124
0.041
-0.004
-0.117
0.092
0.099
-0.085
0.070
0.051
-0.014
0.042
0.065
0.014
0.002
0.031
0.034
-0.072
-0.026
-0.021
0.094
0.042
0.011
-0.002
0.033
0.017
0.027
-0.100
0.004
0.134
-0.014
-0.033
0.064
-0.003
-0.030
0.108
0.020
0.010
-0.034
0.059
-0.023
-0.021
-0.005
0.007
0.106
0.064
-0.007
-0.005
-0.017
0.023
0.117
0.011
-0.043
-0.004
0.065
0.113
-0.033
-0.087
-0.059
0.076
0.041
0.041
0.072
-0.004
-0.024
0.058
0.040
0.094
0.045
0.040
-0.146
0.045
0.087
-0.061
0.094
0.093
0.035
0.008
0.025
-0.004
0.047
-0.033
-0.011
0.089
0.172
0.047
-0.142
-0.027
0.063
0.010
-0.033
0.024
-0.022
0.057
0.073
-0.051
0.023
0.055
-0.039
0.051
-0.024
0.089
-0.007
-0.045
0.027
0.075
0.037
0.023
0.013
-0.008
0.064
0.087
0.033
0.001
-0.004
0.025
0.023
0.096
-0.063
-0.020
-0.044
0.121
0.066
0.025
-0.054
0.025
-0.026
0.013
0.030
0.111
0.051
0.045
0.055
-0.041
0.015
0.045
0.095
-0.001
0.026
0.088
0.067
-0.017
0.012
0.014
0.041
-0.065
-0.018
0.121
0.053
-0.064
0.111
0.024
-0.105
-0.020
-0.006
0.051
0.048
-0.084
0.107
0.101
0.048
-0.032
0.005
0.115
0.005
0.021
0.032
-0.020
0.040
0.079
-0.021
-0.002
0.078
0.183
0.004
-0.126
0.012
0.044
0.034
-0.048
-0.005
0.015
-0.016
0.041
0.128
0.006
-0.049
0.045
0.050
-0.016
0.058
0.034
0.108
-0.049
0.030
0.031
-0.019
0.050
0.117
-0.056
-0.081
0.015
0.147
-0.057
0.053
0.085
0.043
0.038
0.030
-0.142
-0.045
0.022
0.126
0.088
0.054
0.018
0.010
0.008
0.085
-0.073
-0.042
-0.020
0.074
-0.019
0.013
0.041
-0.006
-0.042
0.028
-0.011
0.010
-0.052
0.073
0.007
-0.049
0.006
0.114
0.025
-0.077
0.045
0.091
0.012
0.029
0.053
-0.025
0.051
-0.030
0.022
0.022
0.040
-0.053
0.065
-0.011
0.159
-0.019
-0.069
-0.052
0.117
0.184
-0.096
0.008
-0.043
-0.020
-0.006
0.055
0.071
0.040
-0.111
0.060
0.089
0.083
-0.061
-0.007
0.014
-0.047
-0.025
-0.019
0.038
0.025
-0.051
0.109
0.054
-0.004
0.027
0.042
0.083
0.022
-0.121
-0.038
0.030
0.060
0.004
0.009
-0.007
0.122
0.008
-0.071
0.026
0.007
0.009
0.018
0.031
-0.038
0.085
0.018
-0.040
0.030
0.128
-0.025
0.080
-0.014
-0.045
0.073
0.046
0.177
-0.021
0.006
0.044
0.136
-0.013
0.002
-0.122
0.079
0.071
-0.019
0.019
0.029
-0.001
-0.045
-0.046
-0.017
0.020
0.048
0.055
0.050
-0.060
0.051
0.074
-0.027
0.013
-0.020
0.044
0.115
0.084
-0.007
0.006
0.046
0.047
0.003
-0.051
0.035
0.059
0.064
-0.072
0.058
0.005
0.037
0.081
0.032
0.042
-0.055
0.024
0.045
-0.058
0.009
0.055
-0.103
0.081
0.057
0.004
0.035
-0.057
0.053
-0.018
0.026
0.035
0.011
0.124
0.027
-0.048
0.060
-0.035
-0.016
-0.004
0.107
-0.007
-0.019
0.042
0.043
0.015
0.092
0.028
-0.005
-0.031
-0.006
0.054
0.021
0.150
0.057
-0.003
-0.028
-0.073
0.069
0.002
0.048
0.014
-0.033
0.060
-0.019
-0.012
0.049
-0.017
0.033
0.086
0.017
-0.007
0.037
-0.022
-0.103
-0.006
-0.002
0.124
0.073
0.014
-0.041
-0.045
0.150
0.046
-0.062
-0.065
0.038
0.050
0.076
-0.013
0.001
-0.006
0.001
0.088
0.045
0.071
-0.002
-0.026
-0.029
0.028
0.050
0.077
0.076
0.008
-0.006
0.067
0.034
0.009
-0.035
0.111
0.054
0.011
0.071
-0.050
-0.006
0.024
-0.018
0.004
0.039
0.037
0.049
-0.031
0.062
-0.011
-0.081
-0.016
0.138
0.034
0.017
0.056
0.040
-0.085
0.007
0.071
0.018
0.062
0.022
0.007
-0.038
-0.022
0.001
0.079
0.071
-0.002
-0.011
0.075
-0.111
0.026
0.045
0.021
0.006
0.009
-0.005
0.033
0.080
-0.017
0.020
0.077
0.003
-0.008
0.048
0.047
0.043
0.073
0.031
-0.009
-0.026
-0.005
-0.005
0.009
0.027
0.109
0.013
-0.010
-0.001
0.090
0.087
-0.021
0.005
0.020
-0.064
0.010
0.047
0.079
0.040
0.030
-0.059
-0.008
0.051
0.020
-0.030
0.083
0.009
0.038
-0.047
-0.058
0.085
0.100
0.025
-0.044
0.117
0.025
0.074
-0.051
0.009
-0.093
0.051
0.067
0.047
-0.068
0.020
-0.038
-0.067
-0.009
0.079
0.054
0.073
-0.042
0.025
-0.026
0.074
0.077
0.055
-0.023
-0.037
0.171
0.062
-0.078
0.021
0.036
0.055
0.024
0.037
0.010
0.035
-0.061
-0.037
0.050
0.001
0.014
0.047
-0.026
0.055
-0.010
0.039
0.084
-0.062
-0.073
0.063
0.093
0.136
-0.039
-0.043
-0.006
0.070
-0.002
-0.032
0.083
0.036
-0.078
0.070
0.009
-0.025
0.057
-0.004
-0.057
-0.039
0.063
0.017
0.068
-0.046
0.046
-0.018
0.043
0.043
-0.039
0.051
0.009
0.045
0.060
-0.118
0.022
0.031
0.086
0.111
-0.049
-0.019
-0.011
-0.038
0.039
0.091
0.058
-0.020
0.002
-0.017
-0.032
0.100
0.066
0.074
-0.006
-0.089
-0.016
0.094
0.028
0.012
-0.037
0.019
0.029
0.051
0.024
0.015
0.062
-0.067
-0.010
0.132
0.031
0.051
-0.057
0.018
-0.030
0.058
0.078
-0.014
0.010
0.030
0.037
-0.056
0.015
-0.006
0.110
-0.028
-0.175
0.073
0.059
0.132
0.047
0.020
0.042
0.029
-0.115
0.155
-0.047
0.024
0.031
-0.085
0.046
0.110
0.004
0.058
-0.116
0.014
0.048
0.050
0.004
0.008
0.009
0.079
0.006
0.048
-0.010
0.159
-0.043
-0.065
0.050
0.063
0.037
0.053
0.025
-0.059
-0.061
0.150
0.038
0.010
0.068
-0.012
0.053
0.039
-0.028
-0.045
0.040
-0.011
0.108
-0.015
0.087
0.056
-0.023
-0.078
0.075
-0.012
-0.056
0.032
0.076
0.058
0.011
0.044
-0.055
0.027
-0.005
0.017
0.049
0.040
0.034
-0.008
0.012
0.133
-0.040
-0.004
-0.022
0.070
0.026
-0.015
0.015
0.070
-0.032
0.010
0.016
0.049
-0.011
-0.004
0.046
-0.041
0.099
-0.014
-0.001
-0.005
0.007
0.050
-0.048
0.118
-0.025
0.011
0.009
0.066
-0.025
0.016
0.041
0.010
0.033
-0.039
0.018
-0.009
-0.034
0.096
0.024
-0.093
0.078
0.092
0.021
-0.034
-0.005
0.020
-0.017
0.011
-0.020
0.001
0.130
0.084
-0.038
0.008
-0.015
-0.003
0.010
-0.063
0.087
0.012
0.048
0.027
-0.003
-0.008
0.063
0.014
-0.049
0.054
-0.030
0.046
0.013
0.111
-0.047
0.068
0.038
-0.033
0.035
0.121
-0.043
0.082
-0.113
0.175
0.038
0.010
-0.010
-0.077
0.029
0.087
-0.016
-0.019
0.001
0.019
0.139
0.080
-0.003
0.112
-0.094
0.089
-0.036
-0.015
0.107
0.040
0.033
0.023
0.011
0.105
-0.040
0.041
0.019
0.024
0.051
0.032
0.049
-0.057
-0.026
0.091
0.035
0.007
0.070
-0.039
0.012
0.025
-0.072
0.043
0.084
-0.064
0.060
-0.048
0.027
0.096
-0.026
-0.005
0.116
0.078
-0.095
0.090
-0.038
0.060
0.021
0.004
0.128
-0.049
-0.045
0.014
0.042
-0.003
0.058
0.026
-0.086
0.029
0.112
0.044
-0.128
-0.096
0.058
0.062
0.063
-0.016
0.012
-0.023
0.057
-0.012
-0.013
-0.006
0.018
0.111
-0.073
-0.004
0.053
0.010
0.028
0.074
-0.047
-0.012
0.088
0.016
0.046
-0.052
0.099
-0.011
0.048
0.017
0.033
0.082
0.050
-0.002
-0.054
-0.060
0.144
0.021
0.032
-0.057
0.008
0.089
-0.015
-0.011
0.069
0.002
0.076
0.029
0.023
-0.010
-0.025
0.125
0.028
0.150
0.048
-0.133
-0.044
0.042
0.011
0.053
0.028
0.103
-0.047
0.112
0.001
0.045
0.113
0.021
0.001
-0.067
0.044
0.022
0.057
0.101
0.043
-0.024
0.063
0.039
0.004
0.017
0.090
0.086
0.009
-0.093
0.046
0.056
0.008
0.092
0.007
-0.044
0.012
0.120
-0.085
-0.014
-0.009
-0.023
0.071
0.012
0.052
0.078
-0.006
0.090
0.019
-0.003
-0.034
0.040
-0.019
-0.006
0.033
-0.085
0.031
0.117
0.024
-0.063
-0.040
-0.051
0.133
0.009
-0.059
-0.013
0.096
0.045
0.020
-0.035
0.023
0.048
-0.010
-0.059
0.035
0.142
0.040
-0.086
0.006
0.003
0.070
0.025
0.022
0.071
-0.069
-0.004
-0.051
-0.016
0.118
0.012
0.061
-0.013
-0.072
0.019
0.021
-0.047
0.085
0.049
0.017
0.059
0.077
-0.097
0.046
0.020
-0.010
0.072
-0.099
-0.008
0.110
0.015
0.019
0.093
0.047
0.012
0.033
0.020
-0.129
-0.006
0.064
-0.014
0.057
0.033
0.085
-0.058
-0.074
0.037
0.111
0.091
-0.056
0.020
-0.020
-0.000
0.028
0.053
0.029
-0.053
0.084
0.059
0.036
-0.009
0.018
0.014
-0.038
-0.035
-0.017
0.001
0.055
0.066
0.034
0.057
-0.026
0.002
-0.051
0.046
0.037
0.019
0.069
-0.025
0.049
0.083
0.018
0.026
-0.039
0.030
0.036
0.104
-0.034
-0.064
0.002
0.017
-0.057
0.071
0.058
0.073
-0.035
0.075
-0.081
-0.052
0.125
0.013
-0.107
0.067
0.043
0.053
0.081
0.025
0.002
0.005
0.064
0.013
0.058
0.000
-0.016
0.006
0.108
-0.067
0.057
0.044
-0.038
0.010
0.017
0.094
0.093
-0.049
-0.076
0.072
0.042
0.022
0.055
0.022
0.025
-0.028
-0.032
0.071
-0.000
0.064
0.088
0.065
-0.005
-0.028
0.026
-0.073
0.046
0.086
-0.044
0.062
0.085
0.102
-0.000
0.007
-0.026
0.019
0.130
-0.014
0.064
0.031
-0.135
0.118
0.056
0.049
-0.005
0.069
0.110
-0.026
-0.029
-0.023
-0.001
-0.010
0.085
0.020
-0.007
-0.003
0.048
-0.013
0.055
0.050
0.021
-0.004
0.038
-0.018
-0.017
-0.023
-0.019
-0.051
0.038
0.050
0.054
-0.021
0.032
-0.067
0.002
0.089
0.113
-0.022
0.045
0.011
0.025
-0.077
0.030
0.031
-0.055
0.140
-0.024
0.048
-0.027
0.009
-0.045
-0.008
0.016
0.040
0.097
0.031
0.010
0.025
-0.001
-0.044
0.100
-0.091
0.012
-0.021
-0.041
0.103
0.087
-0.075
0.006
0.045
0.003
-0.000
0.055
0.031
0.049
0.029
0.014
0.077
-0.022
0.024
-0.039
-0.019
0.021
0.088
-0.007
0.016
0.025
-0.036
0.008
-0.002
0.066
0.091
-0.037
-0.039
-0.011
0.032
-0.045
-0.072
0.052
0.041
0.036
0.091
-0.035
0.086
0.043
-0.017
0.030
0.087
0.077
-0.073
0.082
-0.023
-0.047
0.025
-0.020
0.062
0.001
-0.007
0.025
0.069
-0.056
0.044
-0.045
0.014
0.043
0.044
0.015
0.051
0.034
-0.008
-0.071
0.037
0.014
0.015
-0.016
0.055
0.072
0.055
-0.015
0.057
0.018
-0.009
0.039
0.019
-0.057
0.059
-0.034
0.113
-0.049
0.072
0.029
0.048
-0.013
-0.144
-0.016
0.020
0.062
-0.005
0.004
-0.063
-0.057
0.148
0.138
0.017
0.017
-0.069
-0.102
0.080
-0.024
0.006
0.031
0.045
-0.013
-0.036
-0.003
0.072
-0.095
0.042
0.061
0.018
0.006
0.104
0.021
0.024
-0.042
-0.009
0.070
0.070
-0.073
-0.041
0.039
0.050
-0.040
-0.006
0.154
0.031
-0.025
0.017
-0.045
0.078
-0.031
0.076
0.035
0.019
0.048
0.041
-0.090
-0.020
-0.028
0.040
-0.007
0.055
0.022
0.017
-0.063
0.090
0.106
-0.084
0.029
0.019
0.099
0.007
-0.066
0.047
0.092
-0.005
0.058
0.014
0.106
0.025
-0.037
-0.070
0.007
0.024
0.016
0.029
0.007
0.041
0.059
-0.105
0.046
0.033
0.097
-0.031
-0.008
0.065
0.071
-0.086
0.019
0.060
0.089
-0.016
0.048
0.045
0.002
0.047
0.044
-0.023
0.047
0.047
-0.040
0.055
-0.009
0.017
0.017
0.009
-0.007
0.009
-0.117
0.133
0.075
0.034
-0.040
0.014
0.037
0.095
-0.046
0.008
-0.036
0.009
0.085
0.052
0.004
0.029
0.060
0.019
0.048
0.017
-0.047
0.002
0.097
0.142
-0.059
-0.046
-0.072
0.035
0.068
-0.020
0.045
0.067
-0.022
-0.066
0.020
-0.023
0.037
-0.013
0.143
0.022
-0.022
0.017
-0.054
-0.055
0.006
0.126
0.081
-0.037
0.007
-0.027
0.144
-0.026
-0.049
-0.002
0.101
0.006
-0.046
0.074
0.031
0.011
0.013
0.108
-0.022
0.037
-0.037
-0.002
0.058
0.038
-0.013
0.015
0.044
-0.006
0.020
-0.051
0.078
0.052
0.067
-0.100
0.036
-0.021
-0.067
0.065
-0.007
0.023
-0.011
0.099
0.127
-0.046
-0.105
-0.017
0.092
-0.009
-0.026
0.007
-0.021
0.003
-0.043
0.036
0.171
-0.030
0.062
0.061
-0.070
-0.039
0.013
0.128
0.007
0.019
0.000
-0.031
0.054
0.019
-0.025
0.033
0.035
-0.035
-0.076
0.049
0.015
0.025
-0.009
0.020
-0.042
0.079
0.032
0.013
-0.049
-0.060
0.097
-0.014
0.048
0.069
-0.021
-0.051
0.018
0.032
-0.007
0.042
0.078
0.034
-0.088
0.002
-0.062
0.077
0.031
-0.011
0.095
-0.084
0.067
0.056
0.094
-0.004
0.037
0.058
-0.041
-0.012
0.036
0.033
-0.099
0.061
0.028
0.049
-0.013
0.064
-0.007
-0.043
0.057
0.043
0.068
-0.003
-0.025
0.066
0.029
0.039
0.020
0.041
0.109
-0.063
0.037
0.068
-0.015
-0.055
0.021
0.030
0.076
-0.010
0.084
-0.043
0.034
0.012
0.043
-0.064
0.013
0.028
0.018
0.128
0.063
0.034
-0.035
0.014
0.045
0.027
0.024
-0.028
0.014
0.050
-0.007
0.079
0.073
0.040
-0.081
0.026
-0.022
0.031
0.056
0.118
-0.003
0.010
0.047
-0.002
-0.019
-0.022
0.038
0.018
0.067
0.045
0.067
-0.063
-0.050
0.044
-0.068
0.113
-0.020
0.045
-0.032
0.125
0.003
-0.041
0.002
0.069
0.044
0.043
0.048
-0.081
-0.039
-0.032
0.020
0.114
0.122
-0.061
-0.073
0.059
0.042
0.001
-0.008
-0.009
0.061
0.090
-0.042
-0.045
0.023
-0.039
0.024
0.003
0.088
0.005
-0.029
0.026
0.001
-0.026
-0.008
0.050
0.095
0.056
-0.009
-0.032
0.016
0.077
0.032
0.051
0.120
-0.067
0.010
0.083
-0.036
-0.061
-0.024
0.047
0.031
0.058
-0.006
-0.065
0.019
0.065
0.050
0.078
-0.012
-0.040
-0.023
-0.039
0.032
0.038
-0.026
0.007
0.123
0.016
0.002
0.042
0.020
0.001
-0.038
0.004
0.082
0.042
0.054
0.104
-0.080
0.040
0.029
-0.068
0.065
-0.028
0.009
0.035
0.003
0.060
0.058
0.016
-0.109
0.075
0.053
-0.071
-0.005
0.031
0.050
0.040
0.034
-0.028
0.103
0.038
-0.079
-0.026
0.013
0.116
0.092
-0.006
-0.109
0.060
-0.005
0.057
0.000
-0.002
0.091
0.040
0.006
-0.013
0.004
0.079
0.036
0.174
-0.072
0.004
-0.043
-0.052
0.011
-0.005
0.052
0.060
-0.064
-0.003
0.030
-0.026
0.050
-0.034
-0.020
0.038
-0.067
-0.009
0.022
0.013
-0.044
0.026
-0.001
0.135
0.027
-0.085
0.054
0.047
0.005
0.051
0.110
0.060
-0.021
-0.087
0.055
0.045
0.066
0.015
0.060
-0.055
-0.059
0.031
-0.016
0.032
-0.007
0.020
0.073
0.091
-0.030
-0.026
-0.039
0.048
0.066
-0.072
0.071
-0.092
0.027
-0.011
0.017
0.076
-0.093
-0.041
-0.022
-0.066
0.136
0.068
-0.021
-0.003
0.033
-0.034
0.040
0.052
-0.057
0.004
0.056
0.065
-0.052
0.091
0.097
0.062
-0.016
0.064
-0.015
0.036
-0.005
0.102
-0.158
0.060
0.055
-0.032
0.008
-0.036
-0.038
0.052
0.051
0.097
-0.077
-0.003
0.099
0.104
-0.001
-0.135
0.033
0.020
-0.001
0.052
-0.048
0.068
-0.032
0.027
-0.002
-0.020
-0.010
0.066
0.047
0.023
-0.025
0.057
0.028
-0.071
0.046
0.080
0.033
0.021
0.037
-0.130
0.058
0.073
0.068
0.094
-0.045
-0.073
0.131
-0.018
0.113
-0.041
-0.132
0.028
-0.033
-0.048
0.031
0.027
0.015
0.053
0.045
-0.003
-0.043
0.001
0.022
0.066
0.043
0.014
0.025
0.051
0.048
0.013
-0.042
-0.015
0.082
0.064
0.016
-0.048
0.051
0.076
0.029
0.028
-0.129
0.023
-0.001
-0.000
-0.006
0.014
-0.111
0.096
-0.083
0.044
0.013
0.036
-0.067
0.093
0.153
0.040
0.020
0.095
-0.024
-0.023
-0.011
-0.087
0.077
0.029
0.104
-0.002
0.049
0.032
-0.046
-0.005
0.045
0.076
-0.038
0.004
-0.028
0.021
-0.054
-0.021
-0.029
0.145
-0.069
0.003
0.003
0.044
-0.034
0.079
0.024
-0.016
0.125
-0.028
0.020
-0.016
0.039
-0.063
-0.065
0.142
-0.041
0.036
0.021
0.003
0.085
-0.009
-0.048
-0.001
0.047
0.086
-0.001
0.017
-0.037
0.117
0.086
-0.033
0.014
-0.002
-0.076
0.121
0.076
0.010
0.048
0.029
0.016
-0.167
-0.010
0.168
0.082
0.039
-0.080
-0.060
-0.073
0.043
0.015
0.075
-0.032
-0.006
0.016
0.050
0.114
-0.028
0.017
0.057
0.090
-0.058
-0.067
0.078
0.125
-0.090
0.034
-0.006
0.130
0.078
0.015
-0.136
0.008
0.020
0.009
0.105
-0.034
0.013
0.090
0.073
0.007
-0.038
0.044
0.037
0.034
-0.017
0.013
-0.052
-0.014
0.165
0.077
-0.020
0.006
-0.036
-0.017
-0.008
0.081
-0.040
0.012
-0.001
0.076
0.048
0.016
-0.051
0.038
0.040
-0.008
0.051
0.004
0.025
0.054
0.046
0.008
0.022
0.018
0.042
0.066
0.048
-0.020
-0.037
0.004
0.010
0.010
0.090
0.022
0.039
-0.114
-0.048
0.032
0.031
0.117
-0.004
0.011
-0.010
0.012
0.061
0.045
0.015
-0.037
0.028
0.117
0.024
-0.016
0.096
-0.133
-0.044
0.047
0.128
0.030
-0.028
0.050
0.013
0.013
0.067
0.032
0.077
-0.045
0.074
0.105
-0.017
-0.059
-0.011
0.091
0.111
-0.034
-0.023
-0.009
-0.011
0.027
0.001
0.066
0.046
-0.014
-0.075
0.053
0.018
0.053
0.011
0.043
0.063
-0.040
0.024
0.009
0.009
0.010
-0.002
0.037
0.036
0.065
0.067
-0.127
0.091
0.102
0.053
-0.044
0.019
-0.049
0.037
0.027
0.021
0.014
0.061
0.003
0.015
-0.025
0.045
0.093
-0.035
0.005
0.028
-0.057
0.130
0.047
-0.025
-0.054
-0.045
0.026
0.127
0.085
0.082
-0.096
0.040
-0.007
-0.007
0.099
-0.020
0.042
-0.058
-0.007
0.042
0.002
0.026
0.134
-0.057
-0.090
0.071
0.046
0.101
-0.090
0.011
0.080
0.073
0.019
-0.002
0.006
0.048
-0.006
-0.015
0.072
0.060
-0.013
-0.003
0.070
0.052
0.061
-0.054
0.062
0.053
-0.013
0.062
-0.081
-0.019
0.032
0.051
0.067
0.107
-0.017
-0.047
0.001
0.020
0.018
-0.032
0.077
0.024
-0.009
0.003
0.057
-0.039
0.094
0.017
-0.068
0.120
0.111
0.003
-0.031
-0.116
0.067
0.078
0.011
0.059
-0.052
0.009
0.074
0.009
0.048
-0.014
0.015
-0.014
-0.008
-0.031
0.041
0.007
0.113
0.081
-0.065
0.001
-0.052
0.023
0.114
-0.075
0.031
-0.050
0.049
0.032
0.013
-0.010
0.014
0.025
0.074
0.019
0.048
-0.095
-0.014
0.005
0.071
0.071
0.074
-0.015
0.091
-0.002
0.032
-0.086
0.009
0.013
0.021
0.068
-0.017
0.144
-0.020
0.001
-0.027
0.049
0.034
-0.026
-0.008
-0.016
0.080
-0.012
-0.001
0.098
0.020
-0.003
0.027
0.119
-0.089
-0.007
0.023
-0.006
0.044
0.046
0.023
-0.033
0.050
-0.057
0.037
-0.012
0.040
0.055
0.074
-0.015
0.110
0.063
-0.109
0.069
0.125
0.064
-0.102
0.019
0.068
0.041
0.028
0.064
-0.006
0.009
-0.037
0.039
-0.021
0.094
0.018
-0.073
-0.063
-0.013
0.092
0.082
0.025
0.038
0.032
-0.080
0.007
-0.009
-0.040
-0.024
-0.013
0.040
0.122
0.031
-0.014
0.032
0.050
-0.063
0.011
0.082
0.179
-0.005
-0.053
0.035
-0.030
0.005
0.028
-0.029
-0.082
0.045
-0.010
-0.018
0.067
-0.037
0.017
-0.039
0.088
-0.076
-0.014
-0.041
0.028
-0.039
0.019
0.089
0.052
0.006
-0.078
0.114
-0.036
-0.076
0.075
0.108
0.075
-0.025
-0.096
0.001
0.029
-0.011
0.017
0.029
-0.029
0.086
-0.026
0.003
0.099
0.001
-0.009
-0.007
0.089
0.106
0.017
0.051
-0.001
-0.054
0.001
0.008
0.000
0.016
0.050
-0.036
0.041
-0.062
0.041
-0.031
0.023
-0.051
0.039
0.072
-0.051
0.026
0.008
0.118
0.005
-0.035
-0.006
-0.048
0.024
0.003
0.108
0.101
0.042
0.012
0.165
0.088
-0.089
-0.042
0.006
0.144
-0.085
-0.035
0.167
0.058
-0.023
0.021
-0.058
0.048
0.083
-0.052
0.037
-0.014
0.048
0.029
0.074
-0.053
0.008
0.009
0.020
-0.079
-0.026
0.093
0.057
0.038
-0.017
0.017
0.087
0.041
-0.006
-0.028
-0.002
-0.063
0.044
0.018
0.059
0.097
-0.043
-0.083
0.035
0.136
-0.042
0.006
0.039
0.109
0.049
-0.056
0.057
0.014
0.046
0.021
-0.068
0.071
-0.001
0.018
0.009
-0.002
0.022
0.054
-0.041
-0.047
0.105
-0.072
0.055
0.041
0.081
-0.004
0.047
0.055
-0.030
0.013
0.038
0.021
0.121
-0.061
0.133
0.031
-0.045
-0.001
0.014
0.007
-0.003
-0.042
0.028
0.048
0.153
-0.011
-0.077
-0.022
0.091
0.024
0.025
0.014
-0.055
0.061
0.001
-0.042
0.098
0.080
0.067
-0.002
-0.026
-0.049
-0.041
0.033
0.051
0.031
0.063
-0.004
0.085
-0.003
0.054
0.039
0.000
0.053
-0.013
-0.022
0.038
0.047
0.063
0.074
-0.036
-0.010
-0.042
-0.006
0.041
-0.015
0.058
0.040
0.078
-0.003
-0.092
-0.004
0.030
-0.031
0.020
-0.002
0.056
0.083
-0.018
0.053
-0.029
0.046
0.040
0.028
0.006
0.087
-0.050
-0.019
0.002
-0.003
0.006
0.099
0.007
0.009
-0.042
0.035
0.007
0.007
-0.014
0.065
0.004
0.031
0.000
0.151
0.063
-0.100
-0.001
0.064
0.054
0.138
-0.002
0.029
-0.045
0.080
-0.105
0.064
0.115
0.022
0.025
0.049
-0.101
