-0.096
-0.139
-0.100
0.112
0.054
-0.104
-0.092
0.064
0.074
0.021
0.090
-0.051
-0.066
-0.059
-0.010
0.023
0.161
0.014
-0.138
-0.213
-0.367
0.019
0.125
0.099
0.099
0.021
-0.112
-0.086
-0.070
-0.017
-0.037
0.046
0.012
-0.090
0.109
-0.001
0.015
-0.054
0.080
0.053
-0.037
0.080
-0.082
-0.096
-0.061
-0.064
0.062
-0.138
-0.110
0.002
-0.005
-0.005
-0.047
-0.046
0.017
-0.098
-0.095
-0.083
0.004
-0.067
0.009
0.014
-0.102
-0.045
0.004
-0.033
-0.017
0.034
0.035
-0.107
0.003
0.040
0.022
-0.007
0.021
-0.078
-0.065
-0.005
-0.108
-0.109
0.027
0.109
-0.007
0.009
0.009
-0.063
-0.010
-0.080
-0.066
0.042
0.052
-0.074
-0.039
-0.025
-0.144
0.009
0.140
-0.009
-0.114
0.031
0.084
-0.636
-0.224
0.158
0.294
0.095
0.009
-0.019
0.055
-0.155
-0.107
-0.046
0.019
0.111
0.034
-0.080
-0.041
0.096
0.256
-0.040
-0.338
-0.243
-0.221
-0.111
0.143
0.128
0.101
-0.053
0.022
-0.279
-0.194
0.019
-0.003
0.041
0.176
0.062
-0.105
-0.059
0.082
0.003
0.005
0.013
-0.002
-0.039
-0.008
-0.027
-0.084
-0.003
-0.096
-0.148
0.033
0.018
0.023
-0.061
-0.029
-0.038
-0.056
-0.017
-0.052
-0.114
0.071
-0.056
-0.115
0.007
0.026
0.027
-0.011
0.035
0.074
0.001
0.012
-0.030
-0.057
-0.152
-0.046
0.045
0.078
0.035
-0.118
-0.061
-0.112
-0.059
-0.023
0.042
0.022
0.083
-0.046
-0.074
-0.048
-0.088
-0.087
-0.040
-0.008
0.020
0.058
0.069
-0.069
-0.058
-0.089
-0.006
0.050
0.096
0.063
-0.114
0.098
-0.439
-0.417
0.234
0.237
0.140
0.022
-0.065
-0.172
-0.108
-0.101
-0.091
-0.050
0.101
0.020
0.020
0.168
0.052
-0.005
-0.133
-0.185
-0.109
0.031
-0.021
-0.034
0.050
0.036
-0.109
-0.078
-0.037
-0.058
-0.036
0.008
0.036
0.191
0.092
-0.161
-0.210
-0.280
-0.092
0.158
0.079
0.149
0.031
0.012
-0.118
-0.064
-0.150
-0.058
0.079
0.037
-0.099
-0.036
0.081
0.027
0.019
0.103
-0.075
-0.021
-0.035
-0.118
0.010
-0.069
-0.025
0.045
0.019
-0.007
-0.007
-0.092
-0.025
-0.074
0.051
0.061
-0.053
-0.056
-0.067
-0.052
0.121
0.074
-0.431
-0.044
0.155
-0.047
-0.051
0.111
0.099
-0.077
-0.012
-0.170
-0.043
-0.089
-0.049
0.108
0.039
0.017
-0.048
-0.040
0.031
0.049
-0.024
-0.043
-0.003
-0.019
-0.066
-0.114
0.013
0.115
-0.020
-0.237
-0.019
-0.153
-0.545
0.122
0.214
0.281
-0.009
-0.063
-0.072
-0.201
-0.099
-0.008
-0.039
0.002
0.069
-0.004
0.094
0.017
-0.083
-0.043
0.026
-0.010
-0.135
-0.064
-0.095
-0.049
0.018
-0.075
-0.011
0.044
-0.063
-0.082
0.186
0.084
-0.086
-0.227
-0.305
-0.256
0.180
0.182
0.089
0.086
-0.105
-0.041
-0.013
-0.061
-0.093
-0.016
-0.066
-0.023
0.091
0.055
0.046
0.077
-0.017
-0.033
-0.008
-0.116
-0.005
-0.023
0.026
0.004
-0.065
-0.082
0.042
-0.007
-0.121
-0.067
0.008
0.069
-0.063
0.010
0.030
-0.120
-0.064
0.029
-0.021
-0.062
-0.081
0.080
0.010
0.039
-0.072
0.041
-0.067
-0.053
0.051
0.124
-0.113
-0.052
-0.027
-0.061
-0.053
0.032
-0.030
0.011
0.050
-0.014
0.065
0.063
0.010
-0.105
0.039
-0.325
-0.281
0.201
0.265
0.244
0.030
-0.126
-0.164
-0.161
-0.150
0.043
0.083
-0.027
-0.110
-0.063
0.054
-0.049
-0.172
-0.024
-0.007
-0.026
-0.063
-0.020
0.060
-0.002
0.097
-0.055
-0.092
0.008
0.003
-0.079
-0.112
0.039
0.050
0.021
-0.021
-0.053
-0.026
0.073
0.129
-0.099
-0.068
-0.123
-0.297
-0.057
0.072
0.122
0.136
0.093
-0.067
-0.130
-0.072
-0.107
-0.080
0.024
-0.012
-0.024
0.054
0.020
-0.123
0.048
0.015
-0.070
0.048
-0.060
-0.071
-0.039
0.007
-0.069
0.063
0.033
-0.046
-0.060
-0.048
0.014
0.034
0.011
-0.005
-0.140
-0.022
0.036
-0.009
-0.029
-0.064
-0.025
-0.064
0.008
0.098
-0.069
-0.081
0.022
0.060
-0.019
-0.015
0.012
-0.131
0.027
0.029
0.072
-0.048
-0.094
0.016
-0.700
-0.096
0.342
0.272
0.081
-0.139
-0.262
-0.024
-0.013
-0.064
-0.046
0.034
-0.028
0.038
-0.025
0.198
0.027
-0.058
-0.073
0.003
-0.075
-0.040
0.028
0.018
-0.044
0.025
-0.003
0.002
-0.033
-0.150
0.060
-0.049
-0.043
-0.048
0.112
0.031
0.052
-0.089
-0.015
-0.010
-0.110
0.029
-0.038
-0.063
-0.021
-0.080
-0.067
0.006
0.025
-0.088
0.016
0.020
0.005
0.024
0.173
-0.134
-0.124
-0.351
-0.160
0.044
0.131
0.190
0.045
-0.136
-0.084
-0.160
-0.183
-0.082
0.043
0.146
0.061
0.001
0.094
-0.007
-0.091
0.019
-0.026
0.080
-0.056
-0.069
-0.043
-0.014
0.041
-0.047
0.082
-0.122
-0.109
-0.017
-0.081
-0.035
-0.002
-0.096
-0.027
-0.080
-0.025
0.116
0.057
0.034
-0.082
-0.062
-0.055
-0.034
-0.022
0.113
0.048
-0.121
-0.123
-0.025
0.003
-0.022
0.023
-0.033
0.016
0.081
0.016
-0.111
-0.009
-0.139
-0.477
0.079
0.288
0.212
0.070
-0.116
-0.184
-0.090
-0.081
0.030
-0.045
-0.129
0.018
0.069
0.006
-0.105
0.005
0.025
0.033
-0.027
0.030
0.005
-0.113
-0.126
-0.020
-0.011
-0.016
0.079
0.062
0.015
0.016
-0.002
-0.054
-0.059
-0.041
0.260
-0.154
-0.409
-0.048
0.051
-0.010
0.004
0.058
0.020
-0.024
-0.031
-0.112
-0.202
-0.023
0.093
0.237
0.096
-0.079
-0.168
-0.240
-0.233
0.102
0.105
-0.013
0.043
-0.070
-0.075
-0.073
0.011
-0.124
0.001
0.011
-0.024
-0.049
0.064
0.028
-0.035
0.133
-0.076
-0.127
-0.134
-0.037
-0.023
-0.051
-0.005
-0.064
0.018
-0.073
-0.081
-0.050
0.090
-0.047
-0.012
0.014
-0.045
-0.108
-0.029
-0.062
-0.021
0.012
0.045
0.008
-0.015
-0.036
-0.095
0.052
0.007
-0.037
0.008
-0.010
-0.108
0.032
-0.037
0.049
0.098
0.054
-0.073
0.017
-0.105
-0.112
0.132
-0.470
-0.083
0.328
0.099
-0.055
-0.084
-0.001
-0.067
-0.144
-0.082
-0.052
-0.027
0.069
0.079
0.025
0.066
-0.033
-0.053
0.016
0.030
-0.018
-0.128
0.014
0.019
-0.041
0.052
0.022
-0.003
0.039
-0.181
-0.092
-0.040
-0.006
0.013
0.056
-0.003
-0.010
-0.112
0.001
0.010
-0.079
-0.044
0.040
0.063
-0.083
-0.003
-0.047
0.039
0.099
0.034
-0.064
-0.177
-0.051
-0.040
-0.058
0.133
-0.039
-0.130
-0.087
0.058
0.150
-0.078
-0.094
-0.041
0.011
0.010
0.056
-0.120
-0.080
-0.040
0.017
0.044
0.188
0.059
-0.148
-0.283
-0.189
-0.124
0.075
0.126
0.152
-0.000
0.000
-0.094
-0.213
-0.042
0.017
0.050
-0.005
0.006
0.094
0.037
0.010
-0.030
-0.055
0.006
-0.014
-0.097
-0.087
0.014
-0.004
-0.097
0.075
-0.041
-0.037
-0.039
-0.136
0.031
0.018
0.092
-0.076
0.010
-0.030
-0.089
0.031
0.075
-0.020
-0.042
-0.039
0.030
0.042
0.028
-0.114
0.062
-0.457
-0.413
0.151
0.275
0.194
-0.061
-0.167
-0.064
0.009
-0.094
-0.026
0.031
-0.029
0.002
-0.028
0.116
0.045
0.019
0.023
0.009
-0.020
0.050
-0.069
-0.013
-0.186
-0.041
-0.079
0.036
0.071
-0.082
0.071
-0.012
-0.125
-0.033
-0.072
-0.063
0.005
-0.022
-0.002
-0.037
-0.014
0.017
0.056
0.003
-0.094
-0.083
-0.025
-0.078
0.014
-0.159
-0.005
0.048
-0.072
0.009
0.069
-0.046
0.056
0.040
-0.056
-0.056
-0.058
-0.009
0.008
-0.005
-0.004
-0.009
-0.116
-0.001
-0.078
-0.016
0.036
0.081
-0.037
-0.198
-0.093
-0.034
0.091
0.035
0.018
-0.103
0.028
0.129
0.085
-0.135
-0.276
-0.336
-0.117
0.017
0.269
0.232
0.041
-0.238
-0.076
-0.119
-0.073
-0.027
-0.010
0.042
0.042
0.049
0.014
-0.064
0.019
0.029
-0.046
-0.024
-0.008
-0.068
-0.066
-0.058
-0.054
0.020
-0.059
-0.034
-0.072
-0.020
0.001
0.123
0.037
-0.051
-0.036
0.144
-0.538
-0.271
0.196
0.227
0.002
-0.039
-0.156
-0.207
-0.061
0.040
-0.033
-0.012
0.036
-0.027
-0.035
-0.024
0.105
0.003
0.040
0.051
-0.052
0.057
-0.076
-0.068
-0.066
0.103
-0.042
-0.006
0.020
-0.048
-0.015
-0.035
-0.064
-0.004
0.008
-0.094
-0.033
0.025
-0.007
-0.081
-0.050
-0.057
0.030
-0.066
-0.050
-0.000
-0.056
-0.048
0.028
-0.020
-0.012
-0.077
-0.062
0.025
-0.016
-0.004
0.042
0.053
0.018
0.036
-0.014
-0.070
0.017
-0.126
-0.059
0.083
0.039
-0.048
-0.036
0.073
0.013
-0.021
-0.096
-0.052
0.064
0.083
-0.176
-0.106
-0.315
-0.091
0.130
0.219
0.108
-0.036
-0.071
-0.102
0.004
-0.107
-0.013
0.026
-0.001
0.069
0.105
-0.038
-0.028
0.003
-0.075
0.017
0.017
-0.090
-0.072
-0.002
-0.037
-0.065
0.064
0.047
-0.038
-0.013
-0.081
-0.063
-0.119
0.039
-0.351
-0.298
0.220
0.222
0.236
-0.079
-0.127
-0.050
-0.084
0.054
-0.034
-0.068
0.024
0.028
0.030
0.064
-0.013
-0.023
-0.008
-0.015
0.030
0.093
-0.008
-0.139
-0.015
-0.105
-0.154
-0.011
-0.043
-0.014
0.029
-0.063
-0.100
-0.023
0.040
-0.026
-0.020
-0.042
-0.076
0.087
0.034
-0.109
-0.061
0.018
-0.022
-0.002
-0.010
0.087
0.022
-0.113
0.006
-0.042
-0.044
-0.004
0.098
-0.010
-0.035
-0.108
-0.098
0.055
-0.070
-0.040
-0.148
-0.013
0.029
-0.079
-0.079
0.042
-0.036
-0.007
0.051
-0.080
0.079
0.030
-0.000
-0.167
0.001
0.029
0.016
-0.079
-0.059
0.019
0.040
-0.011
-0.075
-0.044
-0.131
0.091
0.008
-0.018
-0.005
-0.082
-0.078
0.023
-0.142
-0.096
0.051
0.059
0.174
0.042
0.037
-0.212
-0.319
-0.186
0.098
0.200
0.219
0.092
-0.018
-0.161
-0.171
-0.050
-0.168
0.062
0.009
0.005
0.059
0.034
-0.075
-0.017
0.070
0.184
-0.029
-0.241
0.029
-0.145
-0.542
0.057
0.231
0.228
0.047
-0.128
-0.094
-0.072
0.005
-0.039
-0.017
-0.050
-0.059
-0.044
0.016
0.048
0.069
0.058
-0.015
-0.033
-0.055
-0.040
-0.066
-0.001
0.069
-0.074
-0.005
-0.044
-0.002
-0.070
-0.037
0.061
-0.070
-0.020
0.004
-0.009
-0.092
0.046
0.006
-0.070
0.113
-0.014
-0.028
-0.082
-0.094
-0.055
0.067
-0.004
-0.042
-0.107
-0.056
-0.013
-0.012
0.082
0.036
0.001
-0.066
0.007
-0.015
-0.125
-0.083
0.076
-0.002
0.043
0.016
-0.106
-0.070
-0.037
-0.130
0.042
-0.009
0.000
-0.138
0.014
0.015
0.077
0.012
0.028
-0.026
-0.042
-0.139
-0.124
0.064
0.055
-0.036
-0.030
0.077
0.020
-0.036
-0.172
-0.055
-0.031
0.047
-0.025
0.093
-0.072
-0.117
-0.043
-0.055
-0.003
-0.027
-0.049
0.045
0.021
-0.039
-0.022
-0.048
0.131
0.002
-0.007
-0.061
0.067
0.057
-0.132
-0.149
-0.274
0.010
0.077
0.121
0.067
0.120
-0.098
-0.160
-0.124
0.016
-0.604
0.047
0.269
0.329
0.078
-0.055
-0.148
-0.085
-0.060
-0.013
-0.020
0.010
-0.049
0.076
0.101
-0.057
-0.001
-0.073
-0.037
0.124
-0.063
-0.105
0.001
0.100
-0.022
-0.127
-0.030
-0.057
-0.024
-0.061
0.043
-0.026
0.010
0.105
-0.065
-0.034
-0.056
-0.084
-0.063
-0.033
0.020
-0.002
0.058
-0.032
-0.025
0.007
-0.131
-0.006
0.007
-0.069
-0.144
-0.012
0.009
0.045
0.041
-0.050
-0.049
-0.027
0.002
0.008
0.005
-0.083
-0.001
0.066
-0.020
0.091
-0.053
-0.134
-0.099
-0.064
0.015
-0.068
0.057
0.116
-0.015
-0.010
-0.085
-0.001
-0.044
0.022
-0.090
0.038
-0.018
-0.019
-0.080
-0.032
-0.018
0.018
0.013
-0.012
-0.062
0.004
-0.014
-0.058
-0.077
-0.032
-0.107
0.066
0.078
0.024
-0.098
-0.090
-0.125
-0.012
0.104
-0.057
0.085
-0.016
-0.050
-0.048
0.035
0.174
-0.012
-0.124
-0.304
-0.342
0.044
0.097
0.145
0.200
0.056
-0.138
-0.185
-0.081
-0.080
0.134
0.158
0.029
-0.028
0.044
-0.520
-0.067
0.275
0.223
0.134
0.002
-0.209
-0.215
-0.081
0.045
-0.004
-0.004
-0.028
-0.029
-0.031
-0.083
0.001
-0.036
-0.050
-0.006
0.016
-0.108
-0.105
0.069
0.000
-0.025
-0.109
-0.088
-0.001
0.041
-0.057
0.004
0.032
-0.058
-0.005
0.020
0.111
0.013
-0.136
-0.116
-0.126
-0.072
-0.045
0.027
0.066
0.047
-0.026
-0.102
-0.104
-0.009
-0.016
-0.018
-0.035
0.002
0.022
0.036
0.032
-0.047
0.016
-0.037
-0.054
-0.106
-0.009
0.040
0.006
-0.028
0.013
-0.028
0.038
-0.170
0.053
0.051
-0.056
-0.145
-0.047
0.062
0.064
-0.034
-0.029
-0.068
-0.096
-0.097
0.008
0.061
-0.006
-0.180
-0.008
0.018
0.076
-0.110
-0.013
-0.047
-0.042
-0.074
-0.038
-0.044
0.019
0.096
0.070
0.044
-0.131
-0.085
-0.088
-0.068
0.068
0.045
-0.032
-0.005
-0.153
-0.166
0.035
-0.012
-0.099
0.035
0.057
-0.103
0.067
0.123
0.054
-0.111
-0.208
-0.022
0.130
-0.475
0.110
0.203
0.145
-0.020
-0.067
0.026
0.022
0.086
-0.092
-0.117
-0.336
-0.205
0.055
0.138
0.189
0.138
-0.049
-0.129
-0.152
-0.094
-0.102
-0.012
-0.037
-0.021
-0.025
-0.019
0.012
0.117
-0.036
-0.025
-0.117
-0.003
-0.007
-0.113
0.034
-0.035
-0.041
-0.008
-0.037
-0.049
-0.107
0.034
0.055
-0.016
-0.028
-0.027
0.001
0.061
0.010
0.030
-0.088
0.004
0.074
0.061
-0.080
-0.039
0.005
-0.059
0.032
0.042
0.045
-0.030
-0.067
-0.012
0.015
-0.018
-0.088
-0.048
-0.053
-0.084
-0.080
-0.016
-0.037
-0.061
0.057
0.056
-0.062
-0.061
0.005
-0.039
0.080
-0.072
-0.010
-0.019
-0.077
0.004
0.072
0.038
0.004
-0.122
-0.032
-0.028
0.093
-0.065
0.021
0.036
-0.041
-0.044
0.051
-0.021
-0.130
-0.041
0.024
-0.019
0.055
-0.052
-0.068
-0.036
0.023
-0.031
-0.023
0.021
-0.042
0.040
0.002
-0.069
0.041
-0.002
-0.035
-0.148
0.274
-0.567
-0.124
0.113
0.274
0.148
0.073
-0.142
-0.135
-0.038
0.045
0.025
0.054
0.069
0.069
-0.031
-0.070
-0.024
0.111
0.175
-0.059
-0.216
-0.179
-0.285
-0.067
0.158
0.201
-0.000
-0.029
-0.044
-0.125
-0.061
-0.083
-0.060
-0.018
-0.005
0.034
0.122
0.054
0.014
0.006
-0.136
-0.093
-0.023
0.021
0.071
-0.059
-0.046
-0.093
-0.078
-0.011
0.016
0.075
-0.059
-0.062
-0.061
0.012
-0.104
0.081
-0.020
-0.070
0.007
0.016
-0.052
-0.083
-0.063
0.072
0.027
-0.049
-0.043
0.025
-0.069
-0.001
-0.031
-0.004
0.037
0.080
-0.094
0.024
-0.099
-0.106
0.091
0.022
-0.133
0.056
-0.027
-0.043
-0.057
-0.021
0.085
-0.101
-0.059
-0.141
0.069
0.059
-0.026
-0.009
-0.095
-0.143
-0.020
-0.059
-0.036
0.013
-0.028
0.022
0.057
-0.103
-0.059
-0.124
-0.050
-0.044
0.054
0.053
-0.003
0.018
0.003
0.037
-0.003
-0.030
0.002
-0.058
-0.054
0.164
0.014
-0.076
0.070
-0.055
-0.056
0.057
0.010
-0.034
-0.175
0.024
-0.435
0.051
0.100
0.109
-0.011
0.027
-0.049
-0.118
-0.086
-0.119
-0.014
0.073
0.150
0.190
0.070
-0.168
-0.140
-0.228
-0.083
0.065
0.070
0.010
-0.017
-0.049
-0.084
-0.033
-0.038
-0.060
-0.057
0.054
0.105
0.023
0.100
-0.001
-0.010
0.030
0.020
-0.140
-0.103
-0.016
-0.110
0.032
0.042
-0.060
-0.099
0.012
-0.049
-0.015
0.003
-0.027
-0.019
-0.022
0.028
0.035
0.028
-0.065
-0.006
-0.111
-0.018
0.037
0.020
-0.042
0.039
0.023
-0.027
0.041
0.050
0.020
-0.056
0.037
0.031
-0.072
-0.012
-0.043
0.001
0.050
0.064
-0.011
0.072
0.031
-0.070
0.030
-0.073
0.037
-0.035
-0.064
0.005
0.040
-0.124
0.026
-0.002
-0.001
-0.087
-0.161
-0.096
0.066
0.014
0.022
0.054
-0.039
-0.001
-0.047
-0.028
-0.008
-0.064
0.093
-0.018
-0.008
-0.029
0.080
-0.091
-0.005
-0.041
0.012
-0.002
-0.066
0.086
-0.024
-0.014
-0.103
0.058
-0.034
-0.008
0.041
0.029
0.104
-0.085
-0.079
0.105
-0.518
-0.360
0.106
0.312
0.213
-0.042
-0.076
-0.069
-0.147
-0.010
-0.098
-0.044
0.051
0.119
0.026
0.168
0.032
-0.160
-0.182
-0.280
-0.218
0.095
0.008
0.086
0.008
0.050
-0.013
-0.136
-0.077
-0.191
-0.013
0.075
0.086
-0.010
0.031
0.006
0.031
0.129
-0.021
-0.111
0.032
-0.122
-0.149
-0.151
0.124
-0.036
0.040
-0.065
0.001
-0.038
0.040
0.001
0.020
-0.001
-0.142
-0.096
-0.018
-0.051
0.004
0.084
-0.024
-0.033
-0.061
-0.120
-0.060
0.053
0.072
0.104
0.022
-0.033
-0.053
-0.023
-0.036
-0.060
0.094
-0.068
0.014
-0.038
0.005
0.028
-0.072
-0.142
-0.027
-0.084
0.083
0.019
0.062
0.036
-0.028
-0.052
-0.153
0.081
-0.183
0.059
-0.004
-0.020
-0.021
0.046
0.029
0.059
0.015
-0.099
-0.105
-0.056
-0.010
0.075
0.004
-0.105
-0.037
-0.092
0.037
-0.017
-0.125
0.005
-0.029
0.027
-0.019
-0.068
0.048
-0.010
-0.054
-0.090
0.002
-0.052
0.012
0.056
-0.035
-0.005
-0.120
0.201
-0.548
-0.270
0.128
0.288
0.102
-0.013
-0.120
-0.029
-0.106
-0.046
-0.067
0.037
0.092
0.027
-0.166
0.042
0.133
0.053
-0.075
-0.129
-0.106
0.045
-0.113
-0.054
-0.027
-0.057
0.101
0.047
0.021
-0.068
-0.006
-0.106
-0.094
-0.130
0.115
0.180
0.083
-0.082
-0.223
-0.308
-0.257
-0.043
0.085
0.109
0.023
0.014
-0.028
-0.126
-0.048
-0.081
-0.002
-0.080
-0.027
0.072
-0.022
0.137
-0.021
0.059
0.039
-0.083
-0.039
-0.079
-0.129
0.124
0.030
0.055
-0.073
-0.195
-0.077
-0.010
-0.034
0.065
0.063
-0.011
-0.016
-0.107
-0.166
-0.051
-0.028
0.067
-0.033
-0.016
-0.044
0.022
-0.004
0.045
-0.044
-0.075
-0.002
0.011
-0.136
-0.034
0.027
-0.026
-0.079
-0.020
0.015
0.110
-0.092
0.036
0.036
-0.065
-0.160
-0.115
0.084
-0.035
-0.091
0.139
0.062
-0.173
-0.108
0.042
-0.115
-0.077
-0.033
0.010
0.018
0.043
-0.034
-0.053
-0.013
-0.015
-0.012
0.176
0.076
-0.017
-0.202
0.114
-0.498
-0.264
0.302
0.242
0.031
-0.105
-0.044
-0.104
-0.121
-0.047
-0.032
0.002
0.141
-0.096
-0.076
-0.099
0.022
0.073
-0.074
0.021
-0.017
-0.042
0.043
0.052
0.057
-0.111
-0.140
-0.103
-0.021
0.037
-0.026
0.044
-0.111
-0.067
-0.028
0.026
0.044
-0.057
-0.089
0.000
-0.141
0.024
-0.053
0.009
-0.046
0.011
-0.005
-0.007
-0.010
0.008
-0.011
-0.001
0.010
-0.121
-0.018
-0.091
0.069
-0.071
-0.039
0.085
-0.039
-0.058
0.015
-0.059
-0.021
-0.035
0.099
0.017
-0.001
0.225
0.044
-0.210
-0.229
-0.417
-0.067
0.208
0.195
0.068
0.055
0.024
-0.160
-0.085
-0.164
-0.078
-0.118
0.037
0.131
0.062
0.090
-0.080
0.024
0.026
0.050
-0.100
-0.008
-0.126
-0.087
0.064
-0.048
-0.042
-0.050
0.101
0.092
-0.126
-0.075
-0.020
0.014
-0.048
0.067
0.070
0.073
-0.001
-0.064
-0.148
-0.130
0.066
0.047
0.028
-0.018
-0.023
0.040
-0.071
0.156
0.142
-0.141
-0.206
0.003
-0.379
-0.306
0.154
0.299
0.140
0.025
-0.218
-0.059
-0.162
-0.060
-0.076
0.004
-0.017
-0.026
0.067
0.212
-0.002
-0.035
-0.001
-0.086
-0.070
-0.087
-0.115
-0.025
-0.071
-0.096
-0.008
0.098
-0.024
-0.003
-0.009
-0.034
-0.013
-0.128
-0.071
0.046
0.060
-0.070
-0.116
-0.047
-0.009
-0.019
0.079
-0.049
-0.025
-0.012
0.056
-0.110
-0.011
0.007
0.017
-0.019
-0.053
-0.105
0.096
0.029
-0.023
-0.023
0.037
-0.154
-0.132
-0.032
-0.091
0.064
-0.045
-0.088
0.009
0.044
0.036
-0.016
-0.090
-0.179
-0.057
-0.020
0.021
0.011
-0.064
0.010
-0.071
0.027
-0.028
0.037
-0.002
-0.018
-0.046
0.062
0.059
0.024
-0.077
-0.071
-0.142
0.004
-0.002
0.047
-0.007
-0.068
-0.016
0.012
-0.048
-0.033
0.039
0.031
0.092
-0.119
-0.160
-0.137
-0.217
-0.025
0.155
0.260
0.098
-0.054
-0.078
-0.081
-0.059
-0.138
0.002
-0.019
0.038
0.003
0.049
0.056
-0.039
0.006
-0.077
0.051
-0.062
-0.034
-0.101
-0.066
0.036
0.066
-0.094
0.001
-0.132
-0.035
0.029
-0.045
0.048
-0.022
-0.058
-0.066
0.071
-0.057
0.019
0.270
-0.129
-0.211
0.065
-0.503
-0.179
0.170
0.229
0.167
-0.010
-0.140
-0.123
-0.004
0.030
0.018
0.015
0.068
-0.013
0.049
-0.032
0.010
0.059
-0.030
0.001
-0.067
-0.026
-0.036
-0.081
0.001
-0.078
0.080
0.042
-0.045
-0.170
0.106
-0.072
-0.011
0.098
0.023
-0.081
-0.040
0.024
-0.019
-0.003
0.028
-0.109
0.018
-0.014
-0.038
0.045
-0.027
0.031
0.002
0.010
-0.054
0.017
-0.055
-0.049
-0.062
-0.127
-0.128
-0.012
-0.027
0.126
-0.016
-0.029
-0.040
-0.077
0.018
0.015
0.023
0.018
-0.111
-0.060
0.067
0.130
0.035
-0.033
-0.042
-0.014
-0.109
-0.101
-0.065
-0.011
0.102
0.040
-0.072
-0.072
-0.130
0.001
-0.039
0.030
0.078
-0.117
0.013
-0.053
-0.023
-0.029
-0.078
-0.019
-0.025
0.031
0.018
0.163
0.133
-0.082
-0.321
-0.322
-0.073
0.063
0.170
0.184
0.077
-0.077
-0.082
-0.139
-0.114
-0.080
0.067
0.089
-0.020
0.114
-0.056
0.010
-0.141
-0.009
0.010
-0.013
-0.056
-0.045
0.005
0.017
-0.110
-0.028
-0.117
-0.042
-0.013
0.158
-0.002
-0.002
-0.048
-0.024
0.031
0.024
-0.146
0.010
0.139
-0.461
-0.258
0.182
0.263
0.100
-0.033
-0.119
-0.166
-0.051
-0.032
0.072
0.049
-0.035
0.006
0.065
-0.060
-0.035
0.000
0.034
0.039
-0.054
0.100
-0.091
-0.051
-0.040
0.043
-0.093
-0.207
-0.018
-0.079
0.034
0.022
-0.027
-0.006
-0.014
-0.105
0.028
0.009
0.056
-0.010
-0.168
-0.154
-0.065
-0.001
0.048
-0.010
-0.055
-0.110
0.001
0.040
-0.048
0.009
-0.102
-0.042
0.051
-0.065
0.139
0.012
-0.027
-0.036
-0.100
0.023
-0.011
0.081
-0.129
-0.082
-0.053
0.047
-0.042
-0.067
-0.046
-0.068
-0.018
0.029
-0.017
0.098
-0.050
-0.023
-0.030
0.023
0.027
-0.012
0.009
-0.147
0.027
-0.009
-0.026
-0.077
-0.025
0.025
-0.028
-0.038
-0.049
0.031
-0.073
0.077
-0.115
-0.177
-0.002
0.060
-0.006
-0.016
0.277
0.216
-0.179
-0.189
-0.345
-0.159
0.032
0.204
0.242
0.093
0.074
-0.128
-0.199
0.012
-0.036
-0.057
-0.047
-0.114
-0.059
0.145
0.153
0.018
-0.076
-0.120
-0.131
-0.064
-0.021
-0.040
-0.091
0.030
0.016
-0.043
-0.034
-0.100
-0.004
0.043
0.036
-0.044
-0.039
-0.054
0.088
0.083
0.066
-0.080
-0.028
-0.328
-0.365
0.178
0.240
0.027
-0.044
-0.112
-0.060
-0.032
0.023
0.012
-0.143
0.029
-0.046
0.077
0.027
0.048
-0.025
-0.021
0.009
0.022
-0.020
0.013
-0.123
-0.146
-0.028
0.070
0.023
-0.047
0.079
-0.069
-0.084
-0.013
-0.107
-0.070
-0.056
0.054
-0.050
-0.031
-0.009
-0.015
-0.008
-0.038
-0.100
-0.066
-0.077
-0.091
0.067
0.026
0.103
0.012
-0.086
-0.056
0.061
0.068
-0.108
0.059
-0.092
-0.057
0.038
-0.025
-0.037
0.007
0.006
0.081
-0.093
0.020
-0.026
0.021
-0.018
-0.000
-0.055
-0.058
-0.027
-0.051
-0.138
-0.007
0.027
0.137
-0.003
-0.022
-0.069
0.061
-0.073
-0.140
-0.086
0.027
0.080
0.010
-0.058
-0.003
0.017
-0.064
-0.068
0.057
-0.007
-0.013
-0.107
-0.041
0.060
-0.047
0.020
-0.005
-0.067
-0.097
-0.021
-0.011
0.032
0.085
-0.006
-0.105
-0.071
-0.118
0.037
0.074
0.025
0.017
0.001
0.205
-0.049
-0.128
-0.233
-0.308
-0.076
0.181
0.171
0.053
-0.047
-0.180
-0.072
0.008
0.058
-0.002
-0.082
0.048
0.021
0.135
0.113
0.018
-0.111
-0.140
0.055
-0.388
0.152
0.203
0.144
-0.073
-0.154
-0.200
-0.049
-0.071
0.020
-0.018
-0.028
0.041
0.016
0.058
-0.004
-0.017
-0.037
-0.081
-0.009
-0.026
-0.013
-0.029
-0.017
0.001
-0.099
-0.129
0.001
0.012
0.007
0.017
0.018
-0.007
-0.147
0.100
-0.031
-0.128
0.078
0.049
-0.056
-0.003
-0.160
-0.059
-0.004
0.057
0.015
-0.034
0.048
0.006
-0.111
-0.102
0.010
0.005
0.018
-0.128
-0.074
0.014
-0.100
-0.011
0.003
-0.018
0.010
0.052
-0.164
-0.007
-0.050
-0.062
-0.004
-0.111
0.091
-0.012
0.021
-0.009
0.027
-0.020
-0.025
0.025
-0.010
0.015
0.061
0.040
-0.109
-0.110
0.086
-0.071
0.013
-0.044
-0.130
0.091
0.021
-0.060
-0.086
-0.053
-0.086
-0.054
-0.092
0.022
0.165
0.056
-0.017
-0.092
-0.145
-0.057
-0.024
0.033
-0.005
0.043
-0.036
0.027
-0.098
0.052
-0.094
0.023
-0.001
-0.136
0.002
-0.062
-0.031
0.096
0.066
-0.011
-0.005
0.115
0.027
-0.160
-0.066
-0.218
-0.127
0.104
0.137
0.130
-0.606
-0.054
0.196
0.188
0.058
-0.084
-0.069
-0.118
-0.052
-0.017
0.074
0.009
0.090
-0.040
-0.091
0.028
-0.037
-0.056
0.041
-0.024
-0.041
-0.192
0.024
-0.051
-0.021
-0.012
0.028
-0.017
-0.015
-0.006
0.077
-0.135
-0.080
-0.013
0.009
-0.107
0.004
0.024
0.020
-0.008
-0.011
-0.088
-0.154
0.007
-0.003
0.038
-0.040
0.003
0.037
0.002
-0.049
-0.054
-0.212
0.013
-0.043
0.100
0.100
-0.128
0.021
-0.085
-0.046
-0.062
0.074
0.037
0.051
-0.079
0.000
0.009
-0.087
0.014
-0.047
-0.020
-0.025
-0.014
-0.031
0.065
0.038
0.001
-0.039
-0.065
0.023
0.012
-0.042
-0.029
0.081
-0.042
-0.020
-0.025
-0.031
-0.048
0.021
-0.050
-0.020
0.011
-0.129
-0.052
-0.003
-0.005
-0.090
0.007
0.055
0.027
-0.045
-0.045
-0.083
0.004
0.068
0.107
-0.141
0.004
-0.011
-0.152
-0.049
0.039
0.011
0.006
0.098
-0.098
-0.025
-0.050
-0.062
-0.078
-0.019
-0.005
-0.042
-0.065
-0.085
0.003
0.014
-0.029
0.044
-0.034
-0.080
0.067
-0.154
-0.037
0.017
0.040
0.022
-0.073
-0.081
-0.048
0.023
0.114
0.053
-0.098
0.069
-0.330
-0.397
0.203
0.249
0.111
0.027
-0.105
-0.113
-0.075
0.133
0.101
-0.087
-0.279
-0.354
-0.084
0.115
0.198
0.158
0.076
0.019
-0.154
-0.092
-0.125
-0.009
0.004
0.009
-0.124
0.012
0.156
0.017
-0.097
0.059
-0.085
-0.109
-0.038
-0.008
0.053
0.019
-0.106
-0.157
-0.052
0.039
-0.051
-0.033
0.092
0.010
-0.017
0.042
-0.117
-0.060
0.088
-0.039
0.100
-0.045
-0.010
0.041
-0.083
-0.001
0.026
-0.034
-0.038
-0.098
0.051
-0.043
0.007
0.021
-0.081
-0.041
0.051
-0.002
-0.082
0.062
0.054
0.018
-0.059
-0.168
0.038
0.012
-0.067
0.052
-0.017
-0.028
-0.068
-0.045
-0.029
0.037
0.007
-0.048
0.055
-0.056
-0.065
-0.048
-0.109
-0.066
-0.001
0.018
0.030
-0.054
-0.020
-0.045
-0.084
-0.022
0.008
0.055
0.013
-0.065
-0.050
0.017
-0.056
-0.115
0.008
0.036
-0.007
-0.103
-0.006
-0.076
-0.080
-0.023
0.030
0.107
-0.065
0.012
-0.007
0.029
-0.029
-0.028
-0.092
-0.056
-0.020
-0.007
0.070
-0.004
-0.011
0.071
0.041
-0.091
-0.137
-0.085
0.056
0.196
0.025
-0.177
-0.058
0.013
-0.493
-0.143
0.171
0.217
0.082
-0.068
-0.067
-0.008
-0.086
-0.053
-0.034
-0.001
-0.071
0.056
0.082
0.055
0.027
0.105
0.058
-0.008
-0.072
-0.046
0.042
-0.032
-0.069
-0.035
-0.042
-0.015
-0.066
0.097
-0.007
0.001
0.052
-0.142
-0.039
0.107
0.079
0.023
-0.152
-0.229
-0.147
-0.031
0.116
0.149
0.155
0.029
0.004
-0.133
-0.210
-0.103
-0.070
0.015
0.105
0.129
0.047
-0.030
0.045
-0.094
-0.053
-0.023
-0.071
-0.006
-0.021
0.005
-0.139
-0.014
0.021
-0.021
-0.004
0.032
-0.068
-0.126
0.072
0.144
-0.025
-0.122
-0.009
0.003
-0.047
0.097
-0.035
-0.049
-0.020
-0.085
-0.020
0.037
-0.038
-0.057
0.025
-0.023
-0.009
-0.096
-0.085
0.028
0.051
0.015
-0.085
0.022
-0.009
-0.083
-0.009
-0.007
-0.055
-0.018
-0.122
-0.051
0.074
-0.082
0.044
0.008
0.061
-0.079
-0.052
-0.092
0.033
-0.013
0.004
-0.043
-0.001
0.046
-0.089
0.034
0.066
-0.045
-0.055
-0.110
0.023
-0.083
0.085
-0.002
0.088
-0.046
-0.083
0.026
0.003
-0.164
-0.115
-0.115
0.110
0.115
0.027
0.033
-0.062
-0.113
-0.039
0.037
-0.086
0.014
0.046
-0.028
-0.040
-0.022
0.013
0.008
-0.006
0.029
-0.037
0.011
-0.074
-0.044
-0.074
-0.001
0.047
-0.028
-0.065
-0.073
0.034
-0.037
-0.006
-0.003
0.084
0.086
-0.016
-0.651
0.059
0.115
0.150
0.077
0.056
-0.176
-0.167
-0.145
-0.004
-0.070
0.118
0.003
-0.036
0.001
-0.025
-0.014
-0.101
0.008
0.112
-0.019
-0.092
0.047
0.015
0.002
-0.046
-0.014
-0.170
0.021
0.275
0.056
-0.111
-0.114
-0.384
-0.115
0.016
0.114
0.212
0.045
-0.010
-0.089
-0.230
-0.129
-0.185
0.008
0.025
0.104
0.054
0.048
-0.033
0.006
0.032
-0.032
-0.036
0.045
0.018
-0.020
-0.156
-0.071
-0.014
0.001
-0.031
0.038
-0.021
-0.076
0.076
-0.069
-0.034
-0.042
-0.074
-0.002
0.009
-0.008
-0.072
0.021
-0.108
-0.077
-0.088
-0.088
0.012
0.088
0.042
-0.167
-0.028
-0.010
-0.069
-0.073
0.019
0.030
-0.074
-0.085
-0.016
0.006
0.011
0.015
0.019
-0.038
-0.146
-0.148
-0.014
0.044
0.043
0.039
0.010
-0.102
-0.041
0.022
-0.015
-0.014
-0.039
-0.118
-0.050
-0.011
-0.021
-0.047
-0.029
0.091
-0.128
-0.009
-0.013
0.034
0.033
0.017
0.011
-0.147
0.014
-0.079
-0.004
0.033
-0.092
-0.036
-0.005
-0.008
-0.082
-0.033
0.051
-0.009
-0.184
-0.070
0.145
-0.512
-0.217
0.163
0.316
0.117
0.050
-0.209
-0.154
-0.075
0.007
0.041
0.058
0.038
0.081
0.092
-0.137
-0.016
0.006
-0.015
-0.066
-0.019
0.072
-0.013
-0.002
0.208
-0.010
-0.143
-0.177
-0.244
-0.128
0.103
0.161
0.161
0.169
-0.111
-0.062
-0.108
-0.137
-0.031
-0.015
-0.080
0.004
0.006
-0.007
0.067
0.022
0.019
-0.015
0.036
0.016
0.019
-0.022
-0.070
-0.033
-0.051
-0.082
-0.050
-0.017
0.017
0.068
-0.043
-0.082
-0.177
0.027
0.030
-0.083
-0.022
-0.087
-0.080
-0.036
-0.047
0.060
0.015
0.074
0.029
-0.080
0.060
0.038
-0.035
-0.169
-0.088
0.000
-0.038
0.016
0.040
0.024
-0.064
0.002
0.032
-0.096
-0.073
-0.009
-0.059
-0.086
0.033
0.002
0.061
-0.010
-0.049
-0.012
-0.047
-0.085
-0.046
-0.019
0.008
-0.062
-0.027
-0.047
-0.050
-0.077
0.032
0.001
0.025
0.056
0.022
-0.082
-0.034
0.023
-0.125
0.000
0.039
-0.066
-0.040
0.013
-0.029
-0.077
-0.057
0.010
0.070
-0.081
-0.155
-0.036
-0.016
0.046
0.011
0.008
0.055
-0.009
0.032
0.089
-0.041
-0.191
0.167
-0.576
-0.202
0.216
0.302
0.120
-0.046
-0.079
-0.118
-0.081
-0.129
-0.032
0.063
0.056
0.010
0.141
-0.028
-0.065
-0.110
-0.032
0.011
-0.055
-0.063
0.105
-0.137
-0.053
-0.130
0.060
0.069
0.030
-0.052
-0.127
-0.017
-0.094
0.071
-0.003
0.001
-0.026
0.072
-0.044
-0.092
0.119
0.235
-0.084
-0.239
-0.255
-0.234
-0.117
0.237
0.167
0.171
-0.012
-0.157
-0.253
-0.119
-0.055
-0.127
0.091
0.040
-0.019
-0.007
0.064
-0.057
0.010
0.032
-0.005
-0.069
0.004
0.033
-0.107
-0.126
-0.061
-0.012
-0.023
0.057
-0.123
0.026
0.020
-0.127
-0.058
0.072
-0.010
-0.005
0.005
-0.017
0.031
0.007
0.033
-0.080
-0.092
-0.042
-0.037
-0.066
0.062
0.031
-0.005
-0.061
0.001
0.001
-0.070
-0.027
-0.087
0.053
0.043
-0.110
-0.003
-0.025
0.091
-0.098
-0.054
-0.079
-0.024
-0.008
-0.064
0.099
-0.037
-0.033
0.009
-0.024
-0.070
0.095
-0.047
-0.064
0.047
0.139
-0.029
-0.031
-0.030
-0.113
-0.132
-0.022
0.015
-0.024
0.236
0.130
-0.158
-0.013
-0.103
-0.468
-0.023
0.314
0.260
-0.014
-0.048
-0.075
-0.076
-0.045
-0.057
-0.072
0.013
0.104
-0.131
0.001
0.056
-0.013
0.029
0.002
0.054
-0.130
-0.071
-0.068
-0.076
0.026
0.134
0.067
-0.004
-0.066
0.094
0.125
0.158
-0.098
-0.114
-0.276
-0.355
0.090
0.155
0.148
0.073
-0.000
-0.060
-0.010
-0.098
-0.190
-0.081
0.100
-0.005
0.028
0.049
0.079
-0.015
-0.073
0.045
-0.077
-0.131
-0.030
0.012
0.009
-0.003
-0.012
-0.104
0.037
0.065
-0.049
-0.021
0.083
-0.080
-0.004
-0.060
0.038
-0.084
-0.026
-0.028
-0.002
-0.080
0.009
-0.011
0.095
0.046
-0.160
-0.072
-0.021
0.037
0.045
-0.045
-0.011
-0.049
-0.213
-0.039
-0.040
-0.045
-0.062
0.049
0.086
0.029
-0.076
0.002
0.014
-0.124
-0.026
-0.006
0.045
0.000
-0.064
-0.011
0.067
-0.003
0.001
-0.087
-0.187
-0.083
-0.005
-0.030
0.036
0.017
-0.004
-0.028
-0.066
-0.013
-0.066
0.021
-0.044
-0.074
0.027
-0.006
0.062
-0.008
-0.024
-0.077
0.009
-0.040
-0.002
-0.095
0.009
0.003
0.050
-0.038
-0.090
0.093
-0.005
-0.037
-0.179
0.013
-0.092
-0.426
0.117
0.178
0.173
-0.009
-0.126
-0.039
-0.093
-0.073
0.121
0.067
-0.026
-0.025
-0.064
-0.009
0.012
-0.045
0.077
-0.034
-0.041
-0.064
-0.109
-0.082
0.004
0.003
-0.049
0.033
0.064
0.192
0.032
-0.268
-0.200
-0.218
0.100
0.171
0.119
0.002
-0.053
-0.174
-0.174
-0.116
0.043
0.070
0.109
0.029
-0.043
-0.108
-0.160
0.030
-0.032
0.055
0.109
-0.015
-0.027
0.056
-0.069
-0.049
-0.178
-0.040
-0.051
-0.049
0.005
-0.054
-0.022
-0.099
-0.129
-0.072
0.086
0.131
0.032
0.049
-0.021
-0.226
-0.048
-0.037
0.036
0.040
-0.024
-0.003
-0.074
0.027
-0.063
-0.061
0.054
0.015
-0.075
-0.108
-0.021
0.037
0.084
0.066
-0.038
0.008
-0.177
-0.058
-0.038
0.099
0.017
0.019
-0.104
-0.147
-0.021
-0.023
0.009
-0.035
0.050
-0.081
0.013
0.028
-0.107
-0.070
0.002
0.006
0.011
0.032
-0.014
-0.006
0.046
-0.108
-0.049
0.017
0.029
-0.062
-0.016
-0.069
-0.002
0.043
-0.041
0.131
-0.046
-0.026
-0.056
-0.048
-0.125
-0.035
0.016
0.131
-0.058
-0.200
0.028
-0.005
0.036
-0.035
-0.128
-0.012
-0.029
0.083
-0.064
-0.055
-0.022
0.001
0.101
0.012
-0.138
-0.031
0.023
-0.434
0.052
0.280
0.173
-0.013
-0.246
-0.074
0.020
0.128
-0.085
-0.138
-0.310
-0.112
0.032
0.260
0.240
0.104
-0.094
-0.131
-0.164
-0.110
-0.107
0.061
0.105
0.077
-0.025
0.008
-0.052
-0.114
0.038
0.011
-0.047
-0.105
0.052
0.066
0.095
-0.155
-0.059
-0.091
-0.078
0.025
-0.040
0.068
-0.099
-0.065
0.061
-0.032
-0.029
0.042
-0.013
-0.052
-0.104
-0.042
-0.004
-0.122
0.024
0.024
-0.019
0.017
0.083
0.013
-0.037
-0.022
0.048
-0.024
-0.028
0.005
-0.080
0.040
-0.025
0.022
0.063
0.023
0.030
0.008
-0.048
-0.058
-0.054
-0.047
0.078
-0.023
-0.011
0.047
0.016
-0.121
-0.034
0.006
-0.078
0.029
-0.043
-0.010
-0.021
-0.020
-0.016
-0.042
0.032
-0.060
-0.050
-0.075
-0.086
0.001
0.035
0.016
-0.016
0.002
-0.040
-0.108
-0.132
-0.053
-0.101
0.044
0.060
-0.048
0.009
0.029
-0.009
-0.020
0.047
-0.074
-0.083
-0.040
-0.062
0.019
-0.061
0.031
0.014
-0.003
-0.027
0.015
-0.106
-0.006
-0.105
-0.075
0.143
0.289
0.037
-0.136
-0.192
-0.322
-0.146
0.163
0.282
0.063
-0.105
0.056
-0.592
-0.302
0.082
0.120
0.162
0.086
-0.097
-0.099
-0.155
-0.084
-0.067
-0.031
0.091
-0.013
-0.008
-0.040
0.022
0.012
-0.004
0.053
-0.138
0.007
0.049
-0.020
-0.083
0.031
-0.002
-0.025
-0.024
0.074
-0.021
0.017
-0.065
-0.121
-0.079
-0.006
0.038
0.033
0.002
-0.015
-0.033
-0.053
-0.088
0.049
-0.076
0.021
-0.019
-0.022
-0.018
0.069
0.014
-0.012
-0.079
0.022
-0.144
-0.019
0.004
-0.095
-0.021
0.047
0.039
-0.049
-0.081
0.031
0.068
-0.071
-0.159
-0.010
0.100
0.152
-0.018
-0.039
-0.051
-0.039
-0.178
0.089
0.001
0.036
0.081
-0.121
-0.002
-0.077
-0.093
-0.080
0.049
0.059
-0.099
0.008
-0.045
-0.024
0.006
0.007
-0.017
-0.059
0.003
0.010
0.005
0.027
-0.007
0.010
-0.210
-0.054
-0.041
0.063
0.089
-0.082
-0.151
0.053
-0.004
0.004
-0.044
0.011
0.033
-0.096
-0.073
-0.072
0.033
-0.096
0.110
0.011
-0.012
-0.065
0.011
-0.035
0.012
-0.057
-0.069
-0.014
0.020
-0.045
-0.006
-0.092
-0.032
0.043
0.119
0.112
-0.048
-0.071
-0.350
-0.196
0.257
0.137
0.071
-0.116
-0.069
-0.191
-0.095
0.088
0.097
0.013
-0.055
-0.111
0.202
-0.508
-0.175
0.299
0.250
0.054
-0.074
-0.049
-0.149
-0.141
-0.007
-0.069
-0.088
-0.036
0.120
0.017
-0.059
-0.057
0.070
0.014
0.007
-0.107
-0.081
-0.112
0.085
-0.017
-0.022
-0.016
0.011
-0.014
-0.032
-0.039
-0.045
-0.021
0.003
0.023
-0.020
0.055
-0.002
-0.111
-0.046
-0.012
-0.101
0.042
0.022
-0.032
-0.079
0.065
-0.054
-0.055
0.052
-0.065
-0.041
-0.060
-0.125
-0.025
0.071
-0.051
-0.050
0.023
-0.006
-0.067
0.028
-0.047
-0.046
-0.054
0.040
0.078
-0.012
0.042
-0.081
-0.065
-0.033
-0.066
-0.033
-0.049
-0.014
-0.002
-0.048
-0.004
-0.045
-0.104
-0.099
-0.012
0.042
0.069
-0.028
-0.086
0.051
0.016
0.064
-0.095
0.007
-0.046
-0.012
0.055
-0.099
0.017
0.022
-0.095
-0.096
0.038
-0.025
-0.012
-0.117
-0.003
-0.048
-0.006
-0.018
-0.040
-0.027
-0.106
-0.041
0.046
0.151
0.178
0.008
-0.048
-0.380
-0.397
0.003
-0.267
-0.160
0.386
0.198
0.126
-0.085
-0.273
-0.181
-0.028
-0.017
-0.049
-0.019
0.027
0.043
0.083
0.046
-0.020
0.023
0.014
-0.036
-0.185
-0.078
-0.099
-0.031
-0.022
-0.001
0.062
-0.077
-0.014
-0.022
-0.142
-0.002
-0.044
0.027
-0.069
-0.035
0.031
0.029
-0.049
-0.039
-0.053
-0.145
-0.044
-0.018
0.022
0.048
-0.033
-0.087
-0.020
-0.031
-0.004
-0.047
0.010
-0.026
-0.039
0.005
0.057
-0.115
0.071
-0.024
0.005
-0.002
-0.061
-0.090
-0.058
-0.066
0.049
0.008
-0.001
-0.024
0.095
0.002
-0.015
-0.141
-0.052
-0.058
0.007
-0.051
0.013
0.002
-0.046
-0.070
-0.049
-0.102
-0.010
0.003
0.037
-0.075
-0.133
-0.018
0.003
-0.021
-0.018
-0.022
0.045
-0.010
-0.047
-0.013
-0.020
-0.055
-0.023
-0.059
0.046
0.028
-0.039
0.013
-0.033
-0.017
0.019
0.022
-0.099
-0.076
0.022
-0.002
-0.012
-0.077
0.029
0.063
-0.123
0.054
0.164
-0.128
-0.200
-0.287
-0.179
0.052
0.174
0.200
0.193
-0.121
-0.216
-0.055
-0.080
-0.096
0.048
-0.311
-0.166
0.142
0.304
0.157
-0.066
-0.067
-0.123
-0.025
-0.040
-0.042
-0.066
-0.091
-0.010
0.112
0.082
-0.003
0.050
-0.068
0.031
-0.008
0.009
-0.078
-0.058
-0.034
-0.028
-0.024
-0.014
0.103
-0.070
-0.051
-0.014
-0.019
-0.020
-0.011
0.038
0.029
0.027
-0.027
-0.050
-0.160
-0.071
0.039
0.031
-0.036
0.069
0.074
-0.170
-0.059
-0.030
0.051
0.028
-0.066
-0.014
-0.022
-0.023
0.021
-0.025
-0.086
-0.070
-0.008
-0.015
0.024
-0.019
0.033
-0.097
-0.041
0.010
-0.018
0.030
-0.047
0.022
-0.129
0.116
0.047
-0.093
-0.080
-0.020
-0.026
-0.049
-0.052
-0.000
-0.058
0.036
-0.021
0.042
-0.095
-0.095
-0.009
-0.054
-0.020
0.002
-0.065
-0.047
-0.050
-0.007
0.043
-0.033
-0.003
0.256
-0.017
-0.163
-0.209
-0.377
-0.111
0.159
0.212
0.238
0.019
-0.018
-0.216
-0.154
-0.043
0.018
-0.041
-0.044
0.050
0.019
0.064
-0.040
-0.046
0.039
0.132
-0.088
-0.141
0.121
-0.484
-0.169
0.155
0.313
0.097
-0.133
-0.012
-0.140
-0.225
-0.047
0.085
0.047
-0.056
-0.002
-0.047
0.019
-0.072
0.077
0.029
0.042
-0.042
-0.015
0.076
-0.110
-0.191
-0.108
-0.004
0.039
0.040
-0.038
-0.028
-0.005
0.003
-0.013
0.058
-0.029
-0.097
-0.033
0.029
-0.014
-0.103
-0.063
0.111
-0.050
-0.065
-0.011
-0.144
-0.034
0.006
-0.024
0.018
-0.027
-0.163
-0.062
0.021
0.088
-0.127
-0.026
-0.023
-0.016
-0.066
-0.021
0.002
0.013
-0.007
-0.079
-0.003
-0.048
0.026
-0.003
0.049
-0.036
-0.070
-0.004
-0.055
0.004
-0.058
0.014
-0.135
-0.098
-0.022
0.002
-0.015
-0.110
0.070
-0.043
-0.023
-0.089
-0.030
0.032
-0.024
-0.043
0.049
-0.037
0.004
0.012
0.006
-0.055
-0.033
-0.011
-0.149
-0.030
0.004
0.222
0.145
-0.092
-0.293
-0.367
-0.032
0.161
0.153
0.111
0.061
-0.122
-0.194
-0.017
-0.040
-0.048
0.004
-0.030
-0.093
0.163
0.071
-0.013
0.051
0.059
0.097
-0.145
-0.137
0.048
-0.304
-0.347
0.030
0.263
0.153
0.043
-0.007
-0.042
-0.149
-0.058
-0.055
0.018
0.068
0.081
-0.004
0.060
-0.007
-0.070
-0.064
-0.056
-0.061
0.011
0.076
-0.071
-0.134
0.096
-0.076
0.031
0.108
-0.007
-0.044
-0.055
0.158
-0.014
-0.177
-0.087
-0.068
-0.055
0.078
0.055
0.043
-0.003
0.014
-0.094
-0.029
-0.012
-0.008
0.016
0.010
-0.082
0.030
0.034
-0.022
-0.043
-0.061
-0.095
0.093
-0.029
-0.065
0.048
0.013
0.016
-0.087
-0.014
0.010
-0.027
-0.057
0.007
-0.060
0.031
-0.094
0.096
-0.035
-0.002
-0.026
0.050
-0.025
-0.050
0.101
0.008
-0.132
0.062
-0.059
0.059
-0.026
-0.112
-0.082
0.063
-0.064
0.091
-0.044
-0.025
-0.009
-0.038
-0.062
-0.002
0.026
0.185
0.126
-0.143
-0.091
-0.329
-0.133
-0.049
0.124
0.133
0.104
0.061
-0.134
-0.138
-0.053
0.147
0.123
-0.170
-0.159
0.170
-0.524
-0.115
0.328
0.213
0.151
0.305
-0.361
-0.473
-0.063
0.033
-0.013
-0.072
0.148
0.157
-0.022
-0.070
-0.109
-0.002
-0.033
-0.061
-0.197
0.078
0.169
0.066
-0.126
-0.043
-0.040
0.001
-0.017
-0.050
-0.056
-0.001
-0.013
-0.084
0.082
0.012
-0.129
-0.059
0.026
-0.044
-0.040
0.059
0.065
0.079
-0.070
-0.104
-0.060
-0.041
-0.009
0.036
-0.002
0.019
-0.048
-0.027
0.011
-0.024
-0.022
-0.023
0.008
-0.051
-0.032
0.070
-0.012
0.040
0.027
-0.080
-0.042
-0.095
-0.107
-0.032
0.030
-0.027
0.035
0.101
0.154
-0.155
-0.102
-0.405
-0.156
0.076
0.274
0.233
0.058
-0.126
-0.090
-0.087
-0.162
0.010
-0.015
0.051
-0.000
0.007
-0.029
-0.021
0.114
0.035
-0.046
0.041
0.094
-0.017
-0.015
-0.043
-0.353
-0.284
0.107
0.344
0.178
0.029
-0.186
-0.145
-0.061
-0.118
-0.080
-0.042
0.047
0.025
0.101
-0.040
-0.032
0.011
-0.009
-0.022
0.004
-0.023
-0.020
-0.094
-0.047
0.107
0.037
0.050
-0.082
-0.028
-0.053
-0.034
-0.028
-0.019
-0.036
-0.191
-0.011
0.079
0.039
0.044
-0.070
-0.152
-0.106
0.022
0.011
0.021
-0.056
-0.040
-0.085
0.076
-0.068
0.086
0.020
0.046
0.011
-0.106
-0.102
0.023
0.039
-0.037
-0.003
0.107
-0.124
-0.075
-0.007
-0.030
0.015
0.114
0.079
-0.039
-0.182
-0.348
-0.127
0.064
0.215
0.159
0.003
-0.042
-0.131
-0.135
0.218
-0.248
-0.206
0.126
0.175
-0.130
0.086
0.065
0.033
-0.070
-0.015
-0.112
-0.085
-0.069
0.066
0.026
0.033
0.011
-0.084
0.011
0.053
0.001
0.119
-0.145
0.033
-0.323
-0.345
0.164
0.237
0.232
-0.018
-0.168
-0.164
-0.145
-0.045
-0.033
-0.003
-0.028
0.127
0.076
-0.088
0.052
-0.133
0.122
0.041
-0.036
0.006
-0.006
-0.054
-0.019
0.052
-0.152
-0.031
-0.018
0.054
0.120
0.015
-0.031
-0.148
-0.084
-0.037
0.002
-0.045
0.089
0.037
-0.080
-0.040
0.046
-0.025
-0.071
-0.028
-0.047
-0.027
-0.039
0.021
0.035
-0.043
-0.079
-0.017
0.005
0.139
0.091
0.079
-0.134
-0.237
-0.194
0.002
0.171
0.064
0.103
0.036
-0.115
-0.123
-0.177
-0.168
0.055
0.074
-0.030
0.005
-0.034
0.019
0.003
-0.010
0.023
0.037
-0.115
-0.027
-0.010
-0.059
-0.003
0.004
-0.037
-0.175
-0.082
0.057
0.122
0.324
-0.286
-0.299
0.010
0.040
-0.013
0.104
0.188
-0.045
-0.050
-0.148
-0.049
-0.012
-0.094
0.027
-0.060
0.049
0.039
0.018
0.128
-0.025
-0.107
-0.046
-0.082
-0.451
0.122
0.234
0.170
-0.032
-0.122
-0.116
-0.037
-0.003
0.031
0.069
0.026
0.000
0.022
-0.010
-0.137
0.034
-0.063
0.015
-0.056
-0.052
-0.058
-0.098
0.088
0.077
-0.055
-0.120
-0.057
-0.036
0.057
0.045
0.046
-0.019
-0.038
-0.006
-0.045
-0.027
0.017
-0.045
-0.082
0.006
0.079
0.143
0.042
-0.143
-0.189
-0.178
-0.074
0.015
0.211
0.195
0.099
-0.110
-0.098
-0.133
-0.085
-0.138
0.043
0.034
0.116
0.091
0.043
-0.004
0.030
-0.060
0.055
-0.051
-0.024
-0.092
0.019
-0.199
0.127
0.032
0.064
-0.038
-0.129
-0.145
0.044
-0.052
-0.067
-0.035
0.081
0.025
0.021
-0.081
-0.218
-0.052
0.093
-0.040
0.050
-0.021
0.003
-0.004
-0.021
-0.045
-0.027
0.026
-0.016
0.043
0.006
-0.014
0.007
0.084
-0.027
-0.091
0.053
-0.600
-0.241
0.285
0.282
0.035
-0.026
-0.089
-0.073
-0.045
-0.013
-0.025
-0.110
0.039
0.043
0.061
0.024
-0.009
0.069
-0.070
-0.058
-0.030
0.035
-0.091
0.051
0.314
-0.327
-0.271
0.098
0.067
-0.179
0.043
0.012
0.031
-0.041
-0.088
-0.113
0.027
0.029
-0.120
0.170
0.186
0.023
-0.185
-0.233
-0.292
-0.027
0.107
0.162
0.037
0.008
-0.102
-0.004
-0.040
-0.061
-0.040
-0.016
-0.124
-0.025
0.077
0.119
0.035
0.030
-0.055
-0.031
0.019
-0.039
0.046
-0.075
-0.008
0.000
-0.077
-0.028
0.065
-0.008
-0.053
-0.018
-0.099
0.037
0.092
0.011
-0.023
-0.020
-0.092
-0.002
-0.089
-0.043
-0.047
0.086
-0.064
0.020
-0.004
0.010
-0.072
-0.103
-0.073
0.056
0.073
-0.034
-0.030
0.026
0.025
0.160
-0.034
-0.142
-0.021
0.000
-0.086
-0.104
0.022
-0.053
-0.032
0.166
0.090
-0.021
-0.056
0.132
-0.546
-0.325
0.219
0.326
0.185
-0.064
-0.073
-0.087
-0.091
-0.056
0.049
-0.061
-0.136
0.059
0.079
-0.004
0.039
-0.076
-0.018
-0.030
0.015
-0.012
-0.043
-0.061
-0.028
0.008
-0.028
-0.022
0.046
0.090
-0.012
0.006
-0.089
-0.047
0.129
0.054
0.112
-0.067
-0.201
-0.361
-0.136
0.188
0.198
-0.015
-0.057
0.101
-0.017
-0.152
-0.201
0.028
-0.001
-0.071
-0.001
0.115
0.054
0.149
0.043
-0.079
-0.016
-0.023
-0.055
-0.073
-0.109
-0.022
0.001
-0.045
-0.014
-0.005
-0.007
-0.045
0.007
-0.046
-0.093
-0.133
-0.015
0.064
0.095
0.052
-0.122
-0.078
0.037
-0.040
-0.094
-0.110
0.051
0.074
-0.021
-0.084
0.039
-0.010
-0.036
-0.015
-0.049
-0.005
-0.063
0.037
-0.051
-0.110
0.004
0.020
-0.003
-0.041
-0.034
0.236
-0.035
-0.401
-0.053
0.163
-0.049
-0.019
0.093
-0.020
-0.013
-0.004
0.147
-0.161
-0.028
0.041
-0.429
-0.361
0.185
0.279
0.102
0.003
-0.087
-0.018
-0.087
-0.028
-0.082
-0.107
-0.031
-0.023
0.057
0.090
-0.039
0.102
-0.062
-0.097
-0.003
0.068
0.162
-0.107
-0.067
-0.268
-0.273
-0.082
0.166
0.091
0.185
-0.047
-0.049
-0.167
-0.106
-0.089
0.088
0.052
0.061
0.027
0.107
0.063
0.086
-0.083
-0.119
0.001
-0.219
-0.033
0.057
0.166
0.024
-0.026
-0.112
-0.082
-0.009
-0.090
-0.209
-0.052
0.043
0.127
-0.006
0.018
0.015
-0.061
-0.130
0.033
0.132
0.045
-0.112
-0.043
-0.004
-0.092
0.005
0.025
0.072
-0.001
-0.121
0.001
-0.012
0.011
-0.129
-0.017
-0.037
-0.056
-0.035
0.091
0.076
-0.083
-0.035
0.008
0.034
-0.041
0.050
-0.042
-0.062
0.042
-0.043
-0.013
0.041
-0.032
-0.084
0.019
-0.098
-0.082
0.248
0.113
-0.337
-0.121
0.031
-0.180
-0.103
0.227
0.148
-0.326
0.073
0.226
0.017
-0.095
-0.109
0.006
-0.082
0.067
0.116
0.244
0.044
-0.121
-0.164
-0.336
-0.031
0.085
0.126
0.084
-0.007
-0.141
-0.146
-0.104
0.036
-0.022
-0.059
-0.068
-0.108
0.130
0.178
0.013
-0.000
-0.041
-0.072
-0.013
-0.071
-0.035
-0.023
-0.053
0.009
-0.082
0.026
-0.023
0.020
-0.005
-0.071
0.030
-0.042
-0.148
0.036
-0.008
-0.106
0.106
-0.015
0.019
0.022
-0.048
-0.090
-0.059
-0.051
-0.033
0.057
0.069
-0.072
-0.005
-0.044
-0.008
0.106
-0.054
-0.084
-0.063
-0.037
-0.123
-0.049
-0.097
-0.022
-0.124
0.007
-0.011
0.032
0.069
0.084
0.061
-0.108
-0.182
-0.087
-0.034
-0.038
0.057
-0.014
-0.061
0.092
-0.020
0.049
-0.016
-0.062
-0.075
-0.027
-0.015
0.152
0.055
-0.039
-0.084
-0.050
0.028
0.032
-0.002
-0.034
-0.097
-0.088
-0.040
0.020
-0.056
-0.016
0.009
0.034
0.080
0.005
-0.088
-0.081
0.096
-0.514
-0.011
0.169
0.213
-0.017
-0.105
-0.045
0.089
0.043
-0.232
-0.098
-0.270
-0.089
0.162
0.252
0.106
0.127
0.000
-0.167
-0.179
-0.037
0.016
0.001
0.041
-0.025
-0.040
0.050
0.083
-0.000
0.086
-0.100
-0.124
-0.002
-0.010
0.008
-0.008
0.028
-0.043
-0.067
-0.117
-0.090
-0.037
0.083
0.049
-0.022
-0.061
-0.108
0.057
-0.034
0.001
-0.076
-0.048
0.005
-0.012
0.000
-0.041
-0.139
0.004
0.061
-0.016
0.016
-0.061
0.015
-0.017
0.080
-0.161
-0.062
0.017
0.046
-0.028
0.009
0.007
-0.071
-0.019
-0.040
0.018
0.029
-0.014
-0.079
-0.021
-0.079
-0.015
-0.078
-0.059
0.052
-0.085
0.002
-0.018
-0.020
-0.013
-0.187
-0.032
-0.035
0.047
0.082
-0.076
-0.118
-0.090
0.000
0.035
0.039
0.030
-0.009
-0.038
-0.145
-0.148
0.067
0.016
0.113
0.107
0.025
-0.168
-0.253
-0.277
-0.008
0.119
0.274
0.221
0.132
-0.153
-0.264
-0.028
-0.386
-0.362
0.203
0.283
0.166
-0.009
-0.102
-0.131
-0.067
0.010
-0.032
0.109
0.228
-0.022
-0.358
-0.024
0.190
-0.069
-0.146
0.114
0.276
0.018
-0.164
-0.195
-0.126
-0.072
0.004
-0.005
-0.069
0.091
0.032
-0.049
-0.049
0.040
0.023
-0.086
-0.062
-0.020
0.006
-0.079
-0.042
0.007
-0.034
0.027
-0.004
0.073
-0.009
0.038
-0.073
-0.052
0.047
0.038
0.097
0.003
-0.133
-0.016
-0.035
0.066
0.040
-0.017
-0.026
0.047
0.017
0.032
0.023
-0.099
0.029
-0.076
0.065
0.048
-0.112
-0.049
0.022
0.005
-0.062
-0.002
-0.023
0.071
-0.048
0.009
-0.137
-0.045
-0.007
-0.027
-0.037
0.048
-0.011
-0.034
-0.013
-0.021
-0.046
-0.011
-0.005
-0.064
-0.100
-0.012
0.108
0.063
0.066
-0.076
-0.062
-0.073
0.017
0.063
-0.042
-0.062
0.025
0.128
-0.029
-0.093
-0.052
0.024
0.010
0.018
-0.039
0.021
-0.086
0.083
-0.071
-0.004
0.079
-0.418
-0.385
0.138
0.248
0.181
0.022
-0.096
-0.134
-0.089
-0.078
-0.024
-0.001
0.017
-0.083
0.122
0.148
0.181
-0.076
-0.046
-0.282
-0.184
-0.037
0.136
0.250
0.073
-0.076
-0.232
-0.173
-0.022
-0.184
0.094
-0.012
0.100
0.119
-0.005
0.056
-0.027
0.012
-0.070
-0.063
-0.073
-0.060
-0.103
-0.031
0.089
-0.015
-0.075
-0.147
-0.024
-0.137
-0.022
0.036
-0.037
-0.009
-0.058
0.015
0.031
0.049
0.013
-0.123
-0.062
-0.037
-0.077
0.023
-0.021
-0.055
0.031
-0.039
-0.070
-0.113
-0.041
0.107
0.099
-0.051
0.006
-0.101
-0.002
-0.083
0.008
0.050
-0.051
-0.062
-0.090
-0.036
-0.013
-0.023
-0.044
-0.067
0.035
0.045
0.221
-0.323
-0.245
0.149
-0.079
-0.063
0.054
0.044
0.137
-0.082
-0.165
-0.029
-0.211
-0.004
-0.021
0.079
-0.004
0.054
0.024
-0.101
-0.132
-0.217
-0.037
0.024
0.115
-0.117
-0.063
0.029
0.009
-0.026
0.101
-0.014
-0.035
-0.044
-0.182
-0.346
0.143
0.300
0.121
0.103
-0.055
-0.116
-0.298
-0.260
-0.258
0.087
0.146
0.156
0.160
0.065
-0.093
-0.097
-0.138
-0.050
-0.056
0.046
0.016
0.003
-0.003
0.062
0.019
-0.033
0.142
-0.088
-0.090
-0.135
-0.048
-0.052
0.012
-0.010
-0.172
-0.098
0.021
0.126
-0.016
-0.100
0.034
-0.046
-0.027
0.046
-0.092
-0.137
0.004
-0.048
-0.173
-0.030
0.075
0.055
0.059
-0.062
-0.008
-0.013
-0.041
-0.190
0.027
-0.002
0.063
-0.003
-0.005
-0.073
0.022
0.018
-0.013
-0.012
-0.096
-0.005
-0.003
-0.039
-0.050
-0.004
-0.117
-0.042
0.038
0.037
0.024
-0.060
0.001
-0.086
-0.101
0.138
0.051
0.032
0.008
0.114
-0.116
-0.066
-0.035
0.099
-0.536
0.003
0.224
0.162
0.128
-0.088
-0.174
-0.068
0.045
-0.205
-0.187
-0.016
0.093
-0.002
0.146
-0.026
-0.032
-0.070
-0.007
-0.024
-0.069
0.050
0.152
-0.015
-0.365
-0.142
0.186
0.045
0.185
0.193
-0.170
-0.185
-0.286
-0.053
0.099
0.126
0.134
0.006
-0.085
-0.032
-0.093
-0.024
0.022
0.017
-0.071
0.048
0.084
-0.024
0.027
-0.075
-0.105
-0.003
-0.059
-0.017
-0.052
-0.010
-0.050
-0.080
-0.011
0.020
-0.066
0.049
-0.036
-0.007
-0.027
0.039
-0.012
-0.019
-0.003
-0.032
-0.096
0.022
-0.002
-0.105
-0.040
-0.028
-0.045
0.092
0.022
0.017
-0.167
-0.122
-0.128
-0.033
0.104
0.081
0.072
-0.097
-0.021
-0.048
0.046
-0.009
-0.096
-0.063
-0.096
0.099
-0.019
0.072
0.074
-0.013
-0.063
-0.073
-0.077
-0.006
0.018
-0.034
0.037
-0.000
0.060
-0.161
-0.046
-0.128
0.102
0.089
0.153
0.037
-0.068
-0.193
0.039
-0.557
-0.171
0.262
0.270
0.203
-0.028
-0.107
-0.126
-0.175
-0.123
-0.097
0.095
0.116
0.016
-0.084
-0.007
0.127
0.053
-0.062
-0.044
-0.003
-0.009
-0.123
-0.015
-0.060
-0.077
0.026
-0.028
0.014
-0.025
0.228
0.115
-0.143
-0.229
-0.414
-0.042
0.030
0.316
0.362
-0.233
-0.405
0.071
0.041
-0.216
0.001
0.023
0.077
0.057
0.043
-0.052
-0.057
0.036
-0.057
0.036
0.011
0.019
-0.169
-0.203
0.053
0.056
0.012
0.014
-0.077
0.013
-0.063
-0.036
0.028
-0.063
-0.018
-0.068
-0.084
0.002
0.062
-0.003
0.149
-0.018
-0.126
-0.041
-0.004
-0.019
0.036
-0.074
-0.010
-0.147
0.086
-0.084
0.008
-0.017
0.012
-0.039
-0.032
0.045
0.019
-0.059
-0.016
-0.074
-0.152
-0.074
-0.041
0.072
0.006
-0.061
0.022
-0.015
-0.020
-0.073
-0.026
-0.012
0.075
-0.005
-0.091
-0.034
-0.036
0.071
0.204
0.030
-0.106
-0.071
0.121
-0.683
-0.088
0.235
0.208
0.053
-0.104
-0.079
-0.051
-0.119
-0.004
0.008
0.030
-0.034
-0.065
-0.039
0.056
0.068
0.026
-0.104
-0.093
-0.097
-0.075
0.084
-0.000
-0.105
-0.122
0.025
-0.008
-0.059
0.106
0.159
-0.051
-0.292
-0.342
-0.186
0.059
0.188
0.138
0.118
-0.094
-0.192
-0.189
-0.001
-0.054
0.108
0.228
-0.232
-0.206
0.007
0.062
0.030
0.091
0.074
0.060
-0.003
-0.167
-0.099
-0.078
-0.021
-0.079
0.035
-0.058
-0.056
0.064
0.049
0.004
-0.137
-0.104
-0.120
-0.013
0.000
-0.011
0.065
-0.034
-0.004
-0.037
-0.112
-0.034
-0.022
0.046
-0.012
0.077
-0.050
0.031
-0.019
-0.117
-0.024
-0.001
-0.003
0.018
-0.125
-0.093
-0.006
0.008
0.011
0.002
-0.021
0.039
0.050
0.052
0.032
-0.056
-0.136
-0.018
0.283
-0.593
-0.091
0.187
0.266
0.036
-0.105
-0.187
-0.104
-0.045
0.044
-0.049
0.005
0.045
-0.031
0.009
0.039
-0.086
-0.052
0.135
0.065
-0.094
-0.106
-0.048
-0.097
0.108
0.064
0.051
-0.015
-0.216
-0.060
-0.003
0.026
-0.097
0.052
-0.033
-0.058
-0.037
-0.112
0.032
-0.070
-0.005
0.033
0.053
-0.056
0.151
0.061
-0.115
-0.098
-0.302
-0.069
0.042
0.217
0.137
0.083
-0.088
-0.216
-0.125
0.054
-0.044
-0.062
0.044
0.006
-0.079
-0.058
-0.018
0.160
0.031
-0.105
0.013
-0.060
-0.120
-0.036
0.049
0.047
-0.113
0.044
0.034
-0.101
0.253
-0.159
-0.231
0.052
-0.046
-0.013
0.092
0.040
0.158
-0.157
-0.127
-0.075
0.072
-0.048
-0.080
0.108
-0.481
-0.323
0.077
0.349
0.058
0.113
-0.134
-0.036
-0.022
-0.092
-0.016
0.035
-0.021
0.058
0.037
0.031
0.041
-0.072
-0.105
0.000
0.153
-0.006
-0.035
-0.058
-0.043
-0.089
0.011
0.065
-0.128
-0.111
-0.131
-0.066
0.164
0.048
0.015
-0.069
-0.092
-0.031
-0.035
0.072
0.034
-0.094
0.037
0.028
-0.024
0.012
-0.091
-0.117
-0.055
0.045
-0.027
0.021
-0.028
-0.045
-0.114
-0.016
0.157
0.114
-0.034
-0.145
-0.312
-0.101
0.088
0.040
0.147
0.043
-0.047
-0.143
-0.046
-0.042
-0.106
0.020
-0.003
0.034
-0.030
0.062
0.023
-0.007
0.006
0.015
-0.056
-0.076
-0.026
0.010
-0.131
0.005
0.019
-0.056
0.044
-0.056
-0.035
0.008
-0.058
0.050
0.003
0.056
-0.137
0.025
-0.083
-0.093
0.010
-0.003
-0.071
-0.008
-0.091
-0.039
0.009
-0.100
-0.076
-0.016
0.021
-0.013
0.013
0.118
-0.024
-0.026
0.165
-0.512
-0.253
0.146
0.302
0.159
-0.059
-0.145
-0.064
-0.072
-0.023
-0.018
0.086
0.046
0.091
0.043
-0.084
0.023
0.032
-0.112
-0.016
-0.056
-0.015
-0.089
0.009
0.045
-0.104
0.035
-0.097
-0.013
-0.082
-0.092
0.001
0.017
0.013
0.052
-0.011
-0.040
0.003
-0.019
-0.014
0.043
0.037
0.136
-0.007
-0.344
-0.155
0.162
-0.089
0.025
0.179
-0.029
-0.024
-0.049
-0.084
-0.149
-0.039
-0.014
-0.032
0.064
-0.085
0.031
0.134
0.119
-0.147
-0.277
-0.043
-0.047
0.031
0.103
0.136
-0.120
-0.025
-0.373
-0.138
0.126
0.077
0.100
0.022
0.053
-0.129
-0.128
-0.039
0.067
-0.123
0.033
-0.011
0.005
0.116
0.023
-0.082
-0.109
-0.030
0.005
-0.037
-0.060
-0.045
-0.037
0.000
-0.030
-0.074
-0.015
-0.012
0.013
-0.043
0.059
-0.008
0.040
-0.027
-0.069
-0.192
0.008
-0.015
-0.067
-0.011
-0.090
0.043
0.157
0.050
-0.065
-0.111
0.118
-0.624
-0.126
0.246
0.241
0.103
-0.079
-0.075
-0.109
-0.117
-0.041
0.097
-0.063
-0.071
0.028
0.071
0.118
-0.023
0.059
-0.082
0.034
-0.051
0.044
-0.056
-0.019
0.047
-0.041
-0.082
-0.069
0.001
0.089
0.026
-0.035
0.056
-0.057
-0.093
-0.037
-0.044
0.175
0.120
-0.096
-0.145
0.014
-0.067
-0.040
-0.046
0.005
-0.042
-0.021
-0.028
0.023
-0.067
-0.052
-0.056
-0.052
-0.023
-0.011
-0.026
0.018
0.006
0.012
-0.079
0.025
-0.013
0.075
-0.105
0.070
-0.105
-0.108
-0.009
0.155
0.183
-0.071
-0.220
-0.283
-0.188
0.113
0.116
0.166
0.035
-0.060
-0.104
-0.045
-0.161
-0.085
0.044
-0.083
0.080
0.090
-0.032
-0.008
-0.020
0.078
0.048
-0.056
-0.017
-0.138
-0.062
0.004
-0.043
-0.057
-0.031
0.024
-0.012
0.020
0.141
-0.021
-0.117
0.071
-0.151
-0.391
0.081
0.400
0.158
0.004
-0.176
-0.188
-0.078
0.005
0.083
0.001
-0.084
0.057
0.076
0.084
-0.084
-0.083
0.010
-0.110
0.001
0.141
-0.103
0.048
-0.116
-0.009
-0.034
0.084
-0.032
0.053
0.013
0.001
-0.038
-0.022
0.046
-0.007
-0.077
-0.141
0.025
0.098
0.038
-0.024
0.110
-0.091
0.078
0.087
-0.381
-0.179
0.176
0.042
-0.043
0.182
0.071
0.059
-0.024
-0.155
-0.024
-0.015
-0.066
0.011
-0.096
0.038
0.085
0.072
-0.094
0.040
0.018
-0.060
0.062
0.013
-0.121
-0.103
-0.129
-0.081
0.048
0.085
-0.040
-0.002
-0.045
-0.129
-0.114
0.036
0.113
-0.052
-0.035
-0.063
-0.019
-0.009
0.139
0.217
-0.015
-0.240
-0.308
-0.262
-0.044
0.134
0.176
0.092
0.085
0.080
-0.121
-0.276
0.032
-0.466
-0.347
0.253
0.295
0.199
0.084
0.005
-0.076
-0.185
-0.120
0.009
-0.036
0.109
0.010
-0.048
-0.024
0.075
-0.009
-0.152
0.090
0.014
-0.056
-0.113
-0.101
-0.065
0.127
-0.077
-0.129
-0.004
0.028
-0.054
0.021
0.134
-0.059
-0.234
-0.108
-0.115
-0.021
0.036
0.113
-0.074
-0.082
-0.010
-0.018
-0.124
0.020
-0.057
-0.018
-0.054
-0.040
-0.007
0.041
0.047
0.011
-0.013
-0.022
0.014
-0.073
-0.031
0.088
-0.127
-0.074
0.035
0.065
0.006
-0.048
-0.059
0.037
-0.094
0.009
-0.050
0.041
-0.086
-0.059
0.005
0.039
0.010
-0.119
-0.003
-0.011
-0.109
-0.012
0.024
0.055
-0.066
0.019
-0.077
-0.056
-0.032
-0.080
-0.001
0.051
0.067
-0.024
-0.126
-0.065
0.065
-0.021
0.075
-0.066
-0.106
0.158
-0.332
-0.339
0.163
0.282
0.138
-0.010
-0.136
-0.086
0.019
-0.013
-0.043
-0.039
-0.095
0.055
0.101
0.181
0.114
0.023
-0.131
-0.304
-0.279
0.004
0.081
0.121
0.155
-0.067
-0.064
-0.170
-0.045
0.023
0.084
-0.008
0.025
-0.004
-0.080
-0.020
-0.065
-0.002
0.000
0.067
0.066
-0.023
-0.007
0.046
-0.115
-0.230
-0.055
-0.024
0.000
-0.039
0.057
0.009
-0.006
0.075
-0.004
-0.052
0.087
-0.052
-0.053
-0.044
-0.023
0.016
-0.021
0.027
0.000
0.032
-0.059
-0.025
-0.118
-0.079
-0.053
0.051
-0.009
0.001
-0.038
-0.085
-0.018
-0.033
0.040
-0.022
0.031
-0.091
-0.040
-0.040
-0.041
0.018
-0.011
0.020
0.040
-0.002
-0.157
-0.041
0.004
-0.065
-0.052
-0.001
-0.022
0.022
0.001
0.003
-0.007
0.030
-0.023
0.000
-0.063
-0.099
-0.043
-0.030
0.024
0.005
0.115
0.085
-0.107
-0.144
0.058
-0.421
-0.341
0.087
0.223
0.164
0.084
-0.087
-0.172
-0.020
-0.064
-0.071
0.021
0.086
-0.068
0.048
-0.083
-0.006
-0.025
-0.004
-0.062
-0.095
-0.019
-0.064
-0.114
0.003
-0.017
0.010
-0.060
0.022
0.149
0.054
0.034
-0.068
-0.122
-0.053
0.037
-0.017
-0.057
-0.038
-0.117
-0.086
0.174
0.152
-0.035
-0.183
-0.220
-0.248
-0.053
0.053
0.214
0.119
0.050
-0.036
-0.132
-0.103
-0.082
0.083
0.048
-0.033
-0.047
-0.079
0.106
0.038
-0.019
0.026
-0.055
-0.100
-0.097
-0.050
0.078
0.015
0.062
-0.080
-0.122
-0.115
0.072
0.039
-0.095
0.142
-0.121
0.000
0.023
-0.096
-0.055
-0.030
-0.049
-0.025
0.028
-0.033
-0.084
0.035
-0.073
0.007
0.160
-0.042
-0.042
-0.049
-0.005
0.043
-0.018
-0.083
0.021
0.059
0.065
-0.078
-0.065
-0.106
-0.019
-0.001
-0.023
-0.025
-0.081
-0.020
0.005
0.000
-0.088
0.009
-0.058
-0.088
0.078
0.079
-0.031
-0.086
-0.108
0.137
-0.078
-0.349
0.246
0.131
0.020
-0.102
-0.059
-0.095
-0.035
-0.084
-0.030
0.145
0.050
-0.057
0.049
0.023
-0.007
-0.095
-0.066
-0.087
0.021
-0.107
0.045
-0.013
-0.071
-0.007
-0.151
-0.081
-0.060
0.093
0.068
0.004
-0.011
-0.003
-0.085
0.046
0.027
-0.009
-0.004
-0.049
-0.049
-0.006
-0.052
-0.002
-0.027
0.088
0.085
-0.171
-0.194
-0.260
-0.110
0.114
0.207
0.136
0.013
-0.042
-0.066
-0.139
-0.110
-0.054
0.133
-0.052
0.007
0.032
0.136
-0.078
-0.153
0.034
0.021
0.084
-0.006
-0.013
-0.051
0.003
-0.061
-0.027
-0.023
-0.142
-0.044
0.038
0.002
0.008
0.022
0.007
-0.070
0.030
-0.019
-0.039
0.024
0.036
-0.074
0.042
-0.031
-0.059
-0.063
0.060
-0.033
0.047
-0.016
0.017
0.016
-0.004
0.029
-0.135
-0.059
-0.047
0.002
0.081
-0.115
-0.001
-0.031
-0.082
0.009
0.005
-0.055
0.032
-0.088
0.037
0.068
-0.009
-0.086
-0.039
0.046
-0.011
0.138
-0.025
-0.078
0.106
0.002
-0.182
-0.188
0.110
0.014
-0.416
0.136
0.194
0.075
-0.082
-0.075
-0.076
-0.096
0.037
-0.073
0.033
0.010
0.032
0.077
0.049
-0.057
-0.007
0.111
0.003
0.033
-0.159
-0.090
-0.154
-0.028
-0.050
0.020
0.002
-0.013
-0.038
-0.060
0.028
-0.004
-0.081
0.023
-0.094
0.003
-0.044
0.000
0.032
-0.007
-0.095
0.057
-0.018
-0.047
-0.060
0.021
0.042
0.018
-0.017
-0.071
-0.037
0.061
0.010
-0.053
-0.026
-0.066
0.083
0.133
-0.085
-0.155
-0.247
-0.131
0.061
0.044
0.193
0.058
-0.093
-0.028
-0.144
-0.065
0.022
-0.029
-0.021
0.001
0.011
0.055
0.052
-0.051
-0.016
0.017
-0.074
-0.069
0.120
-0.043
0.007
0.023
-0.064
-0.106
-0.044
-0.032
-0.028
0.088
-0.130
0.100
-0.011
-0.011
-0.075
-0.069
-0.078
-0.072
-0.049
0.004
-0.038
-0.006
0.020
-0.067
0.009
-0.108
-0.131
0.006
-0.002
0.055
0.005
0.005
0.009
0.041
-0.017
0.008
-0.011
0.046
0.124
-0.519
-0.091
0.126
0.177
0.178
0.041
-0.110
-0.137
-0.069
-0.028
0.036
-0.004
-0.106
-0.024
0.002
0.039
0.101
0.011
-0.094
-0.106
-0.023
0.006
-0.005
-0.045
-0.094
-0.039
-0.012
-0.060
0.035
0.036
0.006
-0.009
-0.011
-0.126
-0.078
0.000
0.006
0.036
0.027
0.004
-0.019
-0.081
0.058
-0.045
-0.212
0.004
0.029
-0.044
-0.044
-0.006
-0.006
0.038
0.066
-0.063
-0.006
-0.104
0.102
-0.050
-0.007
-0.012
0.001
-0.052
0.004
0.022
-0.029
0.053
0.172
0.081
-0.250
-0.237
-0.186
-0.065
0.011
0.163
0.119
0.173
-0.062
-0.164
-0.155
-0.069
0.057
-0.050
-0.058
0.076
0.061
0.094
-0.029
-0.061
-0.042
-0.087
-0.069
0.003
-0.021
-0.014
0.029
-0.074
0.063
0.027
-0.101
-0.089
-0.089
0.008
0.014
-0.013
0.011
0.033
0.096
-0.013
-0.011
-0.087
0.003
0.017
0.033
0.026
-0.020
0.044
-0.004
-0.150
0.128
-0.086
-0.538
0.097
0.233
0.278
0.019
-0.205
-0.103
-0.153
-0.015
0.060
0.043
-0.007
0.069
0.009
0.072
0.017
0.005
0.094
-0.045
0.047
-0.135
-0.005
-0.051
0.050
-0.008
-0.083
-0.052
-0.059
-0.051
-0.007
-0.029
-0.047
0.121
-0.025
0.040
-0.067
-0.130
0.007
0.037
0.078
0.010
-0.042
-0.008
-0.071
0.115
0.026
-0.090
-0.025
-0.041
0.037
0.074
-0.053
0.052
-0.093
-0.066
-0.008
-0.022
0.015
-0.086
-0.031
-0.110
0.053
0.065
-0.027
0.000
0.008
-0.067
-0.007
-0.029
0.011
-0.005
-0.092
-0.054
0.019
-0.009
0.006
-0.034
0.021
0.031
-0.051
-0.011
-0.023
0.050
-0.025
-0.030
0.056
0.008
0.000
-0.128
-0.073
-0.133
0.017
0.093
0.205
0.107
-0.117
-0.251
-0.291
-0.188
0.072
0.143
0.039
0.061
-0.057
-0.023
-0.063
-0.029
-0.057
-0.021
-0.052
0.008
-0.043
0.051
0.010
-0.004
-0.059
-0.050
-0.006
-0.053
0.011
0.088
-0.228
-0.097
0.197
-0.472
-0.217
0.249
0.139
0.118
-0.121
-0.159
-0.113
0.024
-0.070
0.105
-0.041
0.057
-0.024
-0.039
0.101
-0.011
0.074
-0.093
-0.096
-0.031
-0.011
0.007
-0.126
-0.170
-0.004
0.102
-0.055
-0.039
-0.046
0.067
-0.143
-0.042
-0.077
-0.031
-0.053
0.067
-0.040
-0.008
0.057
-0.151
-0.175
-0.135
0.034
-0.050
0.053
0.089
-0.049
0.025
-0.018
-0.008
0.054
0.045
-0.057
-0.005
-0.042
-0.037
-0.035
-0.041
-0.016
0.057
-0.026
-0.073
-0.015
-0.061
-0.041
0.008
-0.041
-0.035
-0.062
-0.031
0.088
0.060
-0.014
-0.128
-0.025
-0.001
-0.097
0.007
-0.044
0.024
-0.058
0.008
0.011
0.060
-0.113
-0.057
-0.050
-0.011
-0.066
-0.030
0.022
0.118
-0.059
-0.055
-0.002
0.052
-0.055
-0.009
-0.034
-0.034
-0.017
0.078
0.082
-0.071
-0.217
-0.342
-0.125
0.020
0.059
0.194
0.182
0.012
-0.138
-0.125
-0.193
-0.109
0.082
0.135
0.131
-0.050
0.023
-0.080
-0.054
0.025
-0.051
-0.003
-0.090
-0.003
-0.013
0.069
0.088
-0.023
-0.254
-0.111
-0.149
-0.456
0.063
0.347
0.130
0.071
-0.141
-0.114
-0.140
-0.059
-0.118
-0.017
0.126
0.003
-0.052
0.079
0.016
0.039
-0.021
-0.024
-0.125
-0.044
-0.078
-0.037
0.055
-0.051
0.014
-0.052
-0.035
-0.009
-0.050
-0.097
-0.123
0.049
0.107
0.060
-0.006
-0.077
-0.060
-0.019
-0.001
-0.002
-0.074
0.048
-0.017
0.016
-0.033
0.006
0.055
-0.012
-0.028
-0.084
-0.079
0.009
-0.009
-0.010
-0.015
0.047
-0.006
-0.113
-0.046
0.088
-0.044
-0.142
0.007
0.003
0.053
0.072
0.009
-0.074
0.024
0.060
-0.024
-0.145
-0.122
0.005
0.005
0.016
-0.043
-0.037
0.000
0.010
-0.026
0.096
-0.014
-0.116
-0.115
0.063
0.024
0.002
-0.042
0.004
-0.026
0.096
-0.003
-0.006
-0.023
-0.176
-0.001
0.024
0.045
0.007
-0.093
-0.101
-0.104
-0.042
-0.008
0.063
0.009
-0.045
-0.097
-0.061
0.035
0.090
0.008
-0.067
0.021
0.202
0.182
-0.105
-0.188
-0.303
-0.231
0.245
0.177
0.139
0.098
-0.533
-0.363
0.070
0.219
0.130
0.038
-0.046
-0.018
-0.112
-0.073
-0.008
0.045
-0.019
-0.095
0.040
-0.029
0.046
-0.052
-0.083
0.007
0.040
-0.093
-0.062
-0.068
-0.048
-0.032
0.027
0.101
-0.027
-0.141
-0.147
-0.019
-0.034
0.023
-0.013
-0.017
-0.076
-0.027
-0.048
0.044
0.032
0.009
-0.107
0.118
-0.034
-0.065
0.020
-0.065
-0.044
0.057
0.020
-0.028
-0.118
-0.060
0.082
0.091
-0.063
-0.085
-0.054
-0.105
-0.026
-0.030
0.014
-0.103
-0.031
-0.010
-0.084
0.033
-0.017
-0.080
-0.043
-0.020
0.008
0.068
0.095
-0.061
-0.068
-0.068
-0.066
0.013
-0.118
0.007
-0.096
0.044
-0.029
0.033
0.008
-0.141
-0.135
-0.023
0.077
0.046
-0.021
-0.042
0.036
-0.106
0.043
0.051
-0.032
-0.007
-0.048
0.068
-0.045
-0.038
0.117
-0.077
-0.034
-0.013
-0.071
-0.110
-0.051
-0.045
0.005
0.017
-0.115
-0.047
0.033
0.013
0.022
-0.008
-0.044
-0.069
-0.012
-0.042
0.083
-0.089
-0.025
-0.056
0.048
0.273
0.225
-0.160
-0.049
-0.699
-0.560
0.080
0.521
0.362
0.115
-0.152
-0.156
-0.227
-0.212
0.022
-0.023
0.128
0.042
0.056
0.010
0.093
0.000
-0.053
-0.066
-0.076
0.009
-0.047
-0.070
0.055
-0.077
-0.173
-0.082
-0.026
-0.040
0.026
-0.008
-0.107
0.022
-0.029
-0.063
0.083
-0.033
-0.013
-0.019
0.050
0.028
-0.114
-0.104
0.033
-0.043
-0.129
-0.075
-0.056
-0.018
0.038
0.075
0.034
-0.100
0.003
-0.007
0.019
-0.095
-0.001
0.007
0.014
0.019
0.045
-0.032
0.032
-0.017
-0.038
-0.058
-0.121
-0.048
0.033
0.069
0.009
-0.137
-0.035
-0.109
-0.008
0.013
-0.058
0.034
0.075
-0.021
-0.026
-0.089
-0.101
0.060
-0.037
-0.052
-0.022
-0.051
0.086
0.030
-0.042
-0.024
0.065
0.000
-0.079
-0.045
-0.058
0.015
0.059
-0.023
-0.071
0.026
-0.048
-0.044
0.060
0.027
-0.052
-0.108
-0.059
0.021
0.083
0.006
-0.038
-0.075
-0.054
0.032
-0.002
-0.021
-0.102
-0.030
0.026
-0.064
-0.027
0.030
0.043
-0.075
-0.073
0.145
-0.594
-0.182
0.238
0.198
0.131
-0.020
-0.106
-0.096
0.007
0.079
0.109
-0.119
-0.162
-0.194
0.058
0.174
0.166
0.082
-0.006
-0.106
-0.111
-0.149
-0.104
0.012
-0.007
-0.079
-0.012
-0.021
-0.026
0.046
0.045
-0.052
0.015
-0.027
0.009
0.032
-0.124
0.030
-0.006
-0.043
-0.120
-0.003
0.044
0.078
0.118
-0.104
-0.037
0.036
-0.062
-0.049
0.016
-0.041
-0.050
0.055
0.112
0.149
-0.060
-0.022
-0.092
-0.108
-0.041
0.044
-0.035
-0.042
0.050
-0.028
-0.048
-0.042
-0.025
-0.046
-0.030
-0.076
0.038
-0.037
0.009
0.006
0.028
0.025
-0.019
-0.048
0.002
-0.072
0.009
-0.021
-0.017
0.040
-0.013
-0.001
-0.077
-0.023
0.041
-0.080
-0.076
0.005
-0.046
0.033
-0.068
-0.103
-0.182
0.051
0.025
0.016
-0.030
0.084
-0.024
-0.039
-0.065
0.001
0.038
-0.081
-0.021
-0.094
0.068
-0.061
-0.016
-0.064
-0.111
-0.013
-0.027
-0.032
0.041
-0.039
-0.123
0.016
0.037
0.087
-0.058
-0.210
-0.086
0.264
-0.541
-0.157
0.254
0.156
0.016
-0.087
-0.079
0.020
-0.054
-0.159
-0.013
-0.037
-0.009
0.056
0.068
-0.033
0.063
-0.027
-0.061
-0.138
-0.148
0.035
-0.031
-0.015
-0.003
0.055
0.040
-0.089
-0.080
0.002
0.052
0.147
-0.201
-0.184
-0.217
-0.028
0.101
0.122
0.103
0.025
-0.017
-0.117
-0.131
-0.071
-0.006
0.005
0.131
0.029
0.021
0.011
0.013
-0.037
-0.014
0.016
-0.040
-0.098
-0.129
-0.047
0.008
0.039
-0.035
-0.068
0.062
-0.140
0.054
-0.052
-0.054
-0.012
-0.022
0.051
-0.014
-0.069
-0.049
-0.033
0.053
-0.009
0.056
-0.020
-0.046
-0.007
0.073
-0.057
-0.105
-0.057
0.016
-0.072
0.066
0.043
-0.010
-0.116
0.054
-0.048
0.003
-0.135
-0.113
0.036
0.029
0.105
0.004
-0.043
-0.070
-0.025
-0.047
-0.078
-0.035
-0.065
-0.038
0.065
0.112
-0.071
-0.049
0.026
0.001
-0.028
-0.120
-0.056
-0.038
-0.023
0.058
0.107
-0.009
-0.090
-0.020
0.000
0.012
-0.036
-0.014
0.027
-0.019
-0.052
0.059
0.019
-0.052
-0.002
-0.011
0.004
-0.090
-0.136
0.218
-0.249
-0.498
0.034
0.327
0.174
0.070
-0.092
-0.108
-0.018
-0.024
-0.168
0.010
0.001
-0.086
0.034
-0.021
-0.045
-0.064
0.020
0.091
-0.071
-0.044
-0.021
-0.072
0.066
-0.097
-0.043
-0.049
0.115
-0.047
-0.006
0.079
-0.059
-0.166
-0.054
-0.029
0.000
0.026
0.097
-0.049
-0.043
-0.110
-0.096
-0.155
-0.066
0.031
0.140
0.285
-0.005
-0.072
-0.260
-0.361
0.026
0.132
0.108
0.039
-0.009
-0.146
-0.052
-0.017
-0.066
-0.013
0.021
-0.014
-0.082
-0.026
-0.103
0.057
-0.046
0.010
0.012
-0.070
-0.069
-0.017
0.046
-0.098
-0.015
-0.019
-0.056
-0.011
-0.049
-0.002
-0.020
-0.048
-0.084
-0.011
0.028
0.017
0.019
-0.014
0.058
-0.104
0.009
-0.058
0.031
-0.019
-0.004
-0.043
0.025
0.016
-0.011
0.019
0.044
-0.043
-0.060
-0.091
-0.034
-0.011
0.013
-0.002
0.062
0.030
-0.099
0.048
-0.068
-0.083
-0.055
-0.043
-0.030
0.052
0.059
-0.092
0.009
0.015
0.020
-0.071
0.011
-0.059
0.068
0.089
-0.024
-0.167
0.157
-0.318
-0.320
0.051
0.222
0.178
0.093
-0.055
-0.026
-0.052
-0.078
-0.101
-0.009
0.053
0.017
0.013
0.049
-0.021
-0.068
-0.073
0.006
-0.069
-0.033
0.009
-0.006
-0.066
-0.069
0.103
0.029
0.042
-0.028
-0.096
-0.013
-0.035
-0.053
0.059
-0.018
0.004
-0.093
0.008
0.020
0.027
-0.017
-0.137
-0.106
-0.083
0.088
0.031
0.001
-0.078
-0.017
0.075
-0.021
-0.087
0.090
0.182
-0.016
-0.099
-0.233
-0.247
0.087
0.086
0.142
0.174
-0.010
-0.225
-0.136
-0.041
-0.034
0.040
-0.088
-0.015
0.007
0.017
-0.065
0.138
0.098
-0.081
-0.023
-0.009
-0.034
-0.052
-0.078
0.011
-0.001
-0.127
-0.074
-0.032
0.046
0.056
-0.116
-0.080
-0.016
0.111
0.035
-0.095
-0.095
-0.064
-0.030
0.045
0.041
-0.027
0.119
-0.042
-0.055
-0.026
-0.076
-0.117
-0.039
0.067
0.114
-0.015
0.044
-0.059
0.045
-0.023
-0.045
-0.110
-0.001
-0.019
0.052
-0.050
-0.115
-0.075
0.034
0.027
-0.013
0.042
-0.178
-0.033
-0.123
-0.069
0.083
0.057
0.068
0.006
-0.031
-0.110
0.035
0.074
0.089
-0.075
0.037
-0.433
-0.404
0.143
0.273
0.241
0.036
-0.105
-0.094
-0.182
-0.089
0.023
0.071
-0.008
0.140
0.014
-0.055
0.100
0.026
-0.081
-0.008
-0.023
-0.094
0.020
-0.022
-0.090
0.027
0.025
-0.002
-0.068
-0.091
-0.089
-0.127
-0.036
0.056
0.050
-0.015
-0.025
-0.057
0.024
-0.043
0.013
0.037
-0.029
-0.034
-0.025
-0.031
0.074
-0.083
-0.060
-0.036
-0.003
0.084
0.016
-0.032
0.022
-0.069
-0.108
0.000
-0.035
0.016
-0.036
0.031
-0.078
-0.023
0.028
0.175
-0.006
-0.170
-0.353
-0.217
0.047
0.120
0.189
0.022
-0.127
-0.065
-0.187
-0.071
-0.027
0.037
-0.066
0.025
0.046
0.075
-0.005
-0.026
0.014
-0.006
-0.061
-0.013
-0.080
0.024
0.000
-0.068
-0.127
0.019
-0.073
-0.076
-0.042
-0.052
0.055
-0.035
0.014
-0.075
-0.065
0.017
0.008
-0.001
-0.078
0.059
-0.022
-0.087
0.019
0.057
-0.017
0.013
-0.023
-0.089
-0.050
0.011
-0.031
0.030
0.053
0.000
-0.132
-0.055
-0.017
-0.130
0.012
0.127
-0.056
-0.020
-0.016
-0.020
-0.133
-0.155
0.020
0.028
-0.009
0.015
0.106
-0.042
-0.130
-0.014
0.054
-0.025
0.001
-0.043
0.070
0.094
0.055
-0.122
-0.079
-0.017
-0.080
-0.490
0.205
0.221
0.177
0.002
-0.098
-0.166
-0.019
-0.076
-0.042
0.032
0.012
-0.016
0.061
0.052
0.025
-0.086
-0.002
-0.012
-0.075
0.072
-0.037
-0.018
-0.085
-0.127
-0.126
0.090
0.024
-0.086
-0.058
-0.025
0.018
-0.022
-0.062
-0.002
-0.015
-0.003
-0.016
0.013
0.016
-0.139
-0.123
-0.042
0.033
0.090
0.045
-0.071
0.047
0.023
-0.039
-0.083
-0.072
0.074
-0.060
-0.084
0.009
0.110
0.204
-0.041
-0.165
-0.238
-0.282
0.001
0.238
0.153
0.055
-0.051
-0.112
-0.124
-0.090
-0.043
-0.068
0.084
0.067
-0.060
-0.000
0.069
0.065
-0.045
-0.058
0.034
-0.141
0.094
-0.075
-0.034
-0.119
-0.035
0.098
0.047
-0.074
-0.037
0.020
-0.134
0.020
-0.115
0.039
0.103
-0.053
-0.076
-0.092
-0.020
-0.009
0.066
0.026
-0.027
-0.106
-0.148
0.076
-0.021
0.045
0.098
0.021
-0.042
-0.134
0.026
-0.025
-0.085
0.075
-0.053
-0.052
0.011
0.002
0.016
-0.092
-0.115
-0.041
-0.067
0.016
-0.055
-0.058
-0.033
0.105
0.012
-0.050
-0.192
-0.162
-0.032
0.038
0.073
0.057
0.013
-0.084
0.174
-0.585
-0.302
0.216
0.219
0.046
-0.028
-0.068
-0.151
-0.111
-0.061
0.013
0.070
0.063
-0.033
0.122
-0.099
0.021
-0.072
-0.006
-0.062
0.020
-0.069
-0.017
-0.053
0.042
0.015
-0.137
-0.081
-0.088
-0.106
0.045
-0.041
0.032
0.133
0.013
-0.072
-0.054
-0.048
-0.007
-0.077
-0.017
0.001
-0.027
-0.050
-0.029
0.034
-0.037
-0.128
-0.068
0.062
0.021
-0.012
0.018
-0.037
-0.023
-0.015
-0.047
-0.074
-0.037
0.005
0.055
0.039
-0.012
-0.077
0.025
-0.014
-0.044
0.022
0.053
-0.125
-0.130
0.220
0.169
0.037
-0.098
-0.315
-0.301
0.087
0.125
0.127
0.058
0.041
-0.108
-0.134
-0.092
-0.108
-0.014
-0.009
-0.010
0.027
0.081
0.063
0.023
0.009
-0.112
-0.050
0.000
-0.034
0.006
-0.051
-0.118
-0.027
0.026
-0.145
0.106
0.012
-0.001
-0.078
-0.034
-0.064
0.016
-0.001
-0.013
-0.069
-0.061
-0.050
-0.018
-0.026
-0.106
-0.039
0.010
-0.063
0.011
0.019
0.073
-0.061
-0.117
-0.057
-0.054
-0.036
0.079
-0.095
0.002
-0.001
-0.029
0.022
-0.078
-0.013
-0.034
-0.072
0.035
0.062
-0.011
-0.055
-0.080
-0.023
-0.060
-0.008
0.008
0.150
0.122
-0.120
-0.129
0.085
-0.438
-0.335
0.174
0.212
0.186
-0.070
-0.104
-0.212
-0.060
0.001
-0.067
-0.071
-0.017
0.136
0.091
-0.004
-0.122
-0.031
-0.042
0.014
0.029
0.035
0.051
0.000
-0.233
-0.060
-0.011
0.059
0.053
-0.019
-0.068
-0.105
-0.105
-0.000
0.058
0.147
0.020
-0.093
-0.053
-0.032
0.102
-0.126
-0.045
-0.017
-0.070
0.067
0.006
-0.031
0.049
-0.036
-0.020
-0.080
-0.070
-0.042
-0.089
-0.050
0.043
0.032
-0.109
-0.017
0.057
0.170
-0.033
-0.164
-0.357
-0.243
0.007
0.167
0.248
0.071
0.032
-0.091
-0.082
-0.064
-0.014
0.022
-0.032
0.217
0.009
-0.075
-0.071
-0.012
-0.031
0.035
-0.041
-0.074
0.023
-0.057
-0.112
-0.044
0.045
-0.023
-0.092
-0.082
0.033
-0.056
-0.065
-0.072
-0.096
-0.048
0.065
0.052
0.025
-0.073
-0.056
-0.035
0.017
-0.004
-0.017
-0.101
-0.016
-0.043
0.043
0.021
-0.054
-0.092
0.002
-0.044
-0.060
-0.090
0.040
-0.035
0.057
-0.011
-0.024
-0.027
0.006
-0.026
-0.012
0.011
0.086
-0.030
-0.025
0.040
-0.002
-0.034
-0.057
-0.022
-0.041
-0.149
-0.025
-0.106
0.023
0.066
-0.010
-0.026
-0.016
0.049
0.017
-0.092
-0.073
-0.072
-0.073
0.095
0.075
-0.019
0.021
0.017
-0.023
0.029
-0.021
-0.048
-0.035
-0.040
-0.104
0.063
-0.036
0.143
0.052
-0.080
0.001
0.057
-0.605
0.024
0.266
0.089
0.125
-0.040
-0.072
-0.036
0.014
-0.031
-0.032
-0.076
-0.112
-0.069
0.008
0.194
-0.038
-0.006
-0.028
-0.075
-0.004
0.027
-0.053
-0.006
-0.067
-0.044
-0.036
-0.003
0.006
0.041
-0.087
-0.052
0.010
0.012
0.020
-0.037
-0.031
-0.092
-0.040
0.029
0.082
-0.100
0.013
0.095
0.078
0.022
-0.148
-0.314
-0.290
0.000
0.206
0.142
0.116
-0.006
-0.079
-0.170
-0.134
-0.006
-0.034
0.012
0.040
-0.006
0.077
0.025
0.017
-0.088
-0.144
-0.109
0.046
-0.073
-0.024
0.047
-0.144
-0.021
0.002
-0.091
-0.045
0.036
-0.065
-0.006
-0.087
-0.044
0.025
0.024
0.047
-0.052
-0.028
0.029
-0.052
-0.126
0.005
-0.043
0.056
0.070
0.029
-0.090
-0.030
-0.021
0.084
-0.084
0.006
-0.031
-0.080
-0.039
-0.001
-0.001
-0.043
-0.020
0.017
0.041
-0.063
0.003
-0.022
-0.072
-0.117
0.079
-0.108
-0.051
-0.019
0.030
0.000
-0.007
-0.033
-0.137
-0.019
-0.059
-0.051
0.032
0.054
-0.068
0.022
0.034
-0.047
-0.016
-0.085
-0.016
0.049
0.027
-0.064
-0.021
-0.046
-0.069
0.035
0.002
-0.110
-0.070
0.020
0.027
0.031
0.003
-0.080
-0.088
0.033
0.010
-0.038
0.080
0.198
-0.010
-0.113
-0.190
0.058
-0.605
-0.258
0.420
0.367
0.120
-0.076
-0.125
-0.182
-0.134
-0.092
0.072
0.067
0.017
0.094
0.068
-0.028
0.028
-0.032
-0.022
-0.039
0.050
0.088
0.057
-0.217
-0.258
-0.333
0.000
0.016
0.169
0.157
0.029
-0.072
-0.220
-0.160
0.046
0.023
0.026
0.012
0.116
-0.039
-0.037
-0.057
-0.021
0.051
-0.056
-0.034
-0.059
-0.026
0.032
-0.011
-0.119
0.042
0.025
0.086
0.004
-0.093
-0.054
-0.088
-0.051
0.107
0.066
-0.045
-0.059
-0.000
0.039
-0.099
-0.007
0.020
-0.035
0.048
-0.103
-0.048
-0.002
-0.092
-0.112
0.019
-0.026
-0.047
-0.072
0.065
-0.114
-0.059
-0.057
0.046
-0.058
-0.061
-0.100
0.008
0.118
-0.003
-0.003
-0.042
-0.012
0.078
-0.056
-0.062
-0.047
0.080
0.065
-0.042
0.016
-0.041
-0.000
-0.084
-0.003
-0.056
-0.003
-0.096
-0.121
-0.034
0.130
0.040
-0.119
-0.011
-0.042
0.091
0.053
-0.123
0.024
-0.035
-0.383
-0.025
0.248
0.075
0.050
-0.112
-0.107
-0.060
-0.021
-0.071
-0.049
-0.088
0.038
0.086
0.020
0.059
-0.068
0.075
0.007
-0.016
-0.093
0.046
0.099
0.036
-0.037
-0.127
-0.011
-0.091
-0.015
0.013
0.020
-0.106
-0.091
-0.034
-0.001
-0.021
-0.113
0.074
-0.001
0.012
0.196
0.110
-0.144
-0.098
-0.380
-0.199
0.128
0.281
0.078
0.058
-0.066
-0.099
-0.162
-0.050
0.028
-0.149
0.031
0.021
-0.021
0.096
-0.005
0.074
-0.027
-0.034
-0.070
-0.012
-0.064
0.027
-0.022
0.021
-0.006
-0.043
0.005
-0.038
-0.117
0.009
0.049
0.000
-0.060
-0.029
0.012
-0.068
0.011
-0.069
0.037
0.018
-0.057
-0.017
-0.075
-0.093
0.046
-0.062
-0.010
-0.113
0.015
0.057
-0.016
-0.029
-0.066
-0.032
-0.001
-0.009
-0.005
0.030
-0.056
-0.047
0.187
0.060
-0.044
-0.068
0.005
-0.182
-0.046
0.022
-0.009
0.003
0.080
-0.063
-0.011
-0.133
-0.096
0.018
0.104
0.029
0.001
-0.002
-0.016
0.036
-0.043
-0.031
-0.090
0.064
0.027
0.026
0.031
-0.009
0.022
-0.028
-0.069
-0.020
-0.042
0.022
0.012
-0.024
-0.035
-0.009
-0.007
-0.103
0.011
-0.051
-0.135
-0.022
0.083
0.034
-0.007
-0.002
0.006
-0.117
-0.025
0.034
-0.457
0.083
0.309
0.192
-0.011
-0.072
-0.041
-0.138
-0.116
0.039
-0.032
0.018
-0.033
0.021
0.144
0.055
-0.081
-0.067
-0.050
-0.064
0.109
0.238
0.159
-0.198
-0.231
-0.270
-0.194
0.123
0.145
0.261
0.026
-0.101
-0.180
-0.117
-0.170
-0.070
0.017
-0.001
0.117
0.143
0.014
-0.010
-0.065
-0.107
0.065
-0.020
-0.063
0.013
-0.059
-0.128
-0.102
-0.037
0.021
-0.009
-0.064
-0.012
-0.042
0.020
-0.099
-0.079
0.066
0.051
-0.090
0.058
-0.017
-0.032
-0.031
-0.063
0.032
0.031
-0.014
-0.022
0.039
-0.050
0.054
-0.095
-0.071
0.040
0.013
0.108
-0.134
-0.026
-0.087
0.067
-0.068
-0.109
-0.021
0.070
-0.023
0.093
0.041
-0.045
-0.206
-0.159
-0.116
-0.009
0.138
0.031
-0.003
-0.017
-0.099
-0.049
-0.038
0.007
-0.017
-0.145
-0.021
-0.002
0.041
-0.014
0.068
0.000
-0.030
-0.118
-0.025
0.005
0.007
0.022
-0.041
-0.054
-0.002
-0.078
-0.081
0.056
0.079
0.009
-0.031
0.057
-0.020
-0.080
-0.010
-0.050
0.043
-0.046
-0.090
-0.105
-0.061
0.137
0.002
0.006
-0.013
0.028
-0.118
-0.002
-0.070
-0.123
0.039
0.111
0.108
-0.123
-0.116
0.156
-0.472
-0.279
0.132
0.262
0.093
0.044
-0.079
-0.167
-0.153
-0.018
0.032
-0.006
0.095
0.041
0.161
0.147
-0.022
-0.223
-0.332
-0.083
0.069
0.144
0.002
0.012
0.004
-0.038
-0.154
-0.186
-0.136
0.067
0.003
0.106
0.085
-0.031
-0.053
0.039
-0.023
-0.013
0.001
-0.038
-0.052
-0.038
0.013
-0.019
0.023
-0.011
-0.085
-0.101
0.041
-0.007
-0.050
0.011
-0.014
-0.052
0.042
-0.091
0.049
-0.165
-0.074
-0.020
0.058
0.060
-0.069
-0.035
0.000
-0.104
-0.016
-0.144
0.023
0.092
0.049
-0.016
-0.025
-0.083
-0.064
-0.049
0.003
0.043
0.086
-0.010
-0.021
-0.096
-0.017
0.007
0.033
-0.065
-0.023
-0.003
0.023
-0.108
0.035
-0.044
0.021
-0.018
0.028
-0.045
0.018
-0.044
-0.014
-0.121
-0.003
-0.115
-0.025
0.087
-0.002
0.020
0.044
0.019
-0.189
-0.046
-0.079
-0.016
-0.050
-0.055
0.039
0.050
-0.010
-0.009
0.016
-0.076
0.093
0.005
-0.088
-0.026
-0.008
-0.058
-0.059
-0.074
-0.036
0.075
-0.049
-0.027
-0.030
0.004
-0.020
-0.143
-0.050
0.055
-0.018
0.045
-0.029
-0.062
-0.007
0.045
-0.042
0.040
-0.005
-0.021
-0.142
-0.063
0.017
0.006
-0.034
-0.003
0.054
0.070
0.050
-0.118
-0.175
0.048
-0.442
-0.141
0.175
0.286
0.063
-0.008
-0.187
-0.165
-0.177
0.004
-0.025
-0.020
-0.079
0.031
-0.041
0.013
0.048
0.022
-0.100
-0.012
-0.042
0.089
-0.085
-0.096
0.039
-0.034
-0.011
0.025
0.129
0.186
-0.073
-0.222
-0.267
-0.242
0.048
0.190
0.096
0.062
-0.003
-0.155
-0.130
-0.087
-0.028
0.105
0.086
0.040
-0.101
-0.075
-0.117
0.070
-0.096
0.078
-0.024
-0.018
-0.086
0.023
-0.049
-0.074
-0.162
-0.034
0.038
0.141
0.023
0.007
-0.046
-0.099
-0.060
-0.057
0.013
-0.014
-0.020
0.001
-0.017
-0.078
0.040
-0.046
0.013
-0.000
-0.053
-0.037
0.017
-0.032
0.051
-0.026
-0.052
-0.046
-0.047
-0.038
0.015
0.049
0.016
-0.035
-0.136
-0.174
-0.078
-0.016
0.000
0.037
-0.038
0.041
-0.013
-0.010
-0.027
-0.022
-0.038
-0.052
0.074
-0.103
-0.028
-0.159
0.014
0.032
-0.051
0.049
-0.023
-0.044
-0.004
-0.118
0.070
-0.124
-0.072
0.071
-0.062
0.029
-0.025
-0.048
0.031
-0.008
-0.071
-0.084
-0.073
0.033
-0.093
-0.041
-0.016
0.016
-0.065
-0.105
0.020
0.040
0.182
-0.004
-0.133
-0.142
0.049
-0.482
0.027
0.302
0.206
0.129
-0.139
-0.194
-0.139
-0.009
0.007
0.038
-0.080
0.027
-0.036
0.059
0.012
0.028
0.037
0.034
-0.032
-0.190
-0.013
-0.009
-0.058
0.068
-0.012
-0.078
-0.109
-0.082
-0.016
0.045
0.035
0.056
-0.058
0.000
-0.024
0.009
-0.035
-0.022
0.079
0.133
-0.055
-0.025
-0.058
-0.062
-0.015
0.225
0.089
-0.173
-0.208
-0.292
-0.103
0.080
0.257
0.112
-0.070
0.023
0.013
-0.196
-0.128
-0.051
0.065
0.007
-0.041
0.019
0.044
0.028
0.071
-0.055
-0.090
-0.010
-0.025
0.005
0.008
-0.023
-0.055
-0.137
-0.042
-0.064
0.085
-0.054
-0.032
0.022
0.041
0.049
-0.095
-0.234
0.024
-0.088
-0.096
0.078
0.038
0.081
-0.028
-0.043
-0.073
-0.044
-0.063
0.019
-0.057
0.029
-0.069
-0.069
-0.004
-0.028
0.017
-0.001
-0.003
-0.057
-0.128
0.003
-0.047
-0.010
-0.005
0.111
-0.030
-0.080
-0.044
-0.015
-0.083
0.055
-0.018
0.005
0.022
-0.069
-0.031
-0.034
-0.084
-0.078
-0.082
-0.060
0.082
0.048
-0.030
-0.032
-0.015
-0.006
-0.094
-0.094
-0.078
0.021
0.005
-0.003
-0.057
0.039
0.108
-0.032
-0.085
0.016
0.003
0.007
-0.092
-0.049
0.024
0.095
0.066
0.039
-0.194
-0.057
0.021
-0.560
0.028
0.345
0.197
0.087
-0.134
-0.144
-0.203
-0.024
-0.057
-0.026
0.052
0.114
0.023
0.050
0.026
-0.038
-0.019
-0.007
-0.028
0.023
-0.070
0.118
-0.011
0.003
-0.110
-0.116
-0.020
0.078
-0.021
-0.049
-0.150
-0.010
-0.006
0.026
-0.077
-0.122
0.019
0.024
-0.101
0.042
-0.003
-0.101
0.036
-0.021
0.087
0.009
0.069
-0.136
-0.085
0.036
0.015
-0.101
-0.110
0.039
-0.061
-0.009
0.021
0.028
-0.067
-0.049
-0.021
-0.059
0.056
0.039
0.205
0.027
-0.228
-0.221
-0.238
0.026
0.133
0.078
0.159
0.027
-0.126
-0.116
-0.132
-0.020
-0.035
-0.002
0.125
0.013
-0.053
-0.065
0.033
0.021
0.002
-0.085
-0.053
0.045
-0.089
0.001
-0.028
-0.133
-0.033
0.059
0.103
0.038
-0.108
-0.076
-0.079
0.095
-0.044
-0.039
0.021
0.016
0.007
-0.016
-0.093
-0.006
-0.021
0.001
-0.006
-0.039
-0.096
-0.089
0.012
0.047
-0.088
-0.003
0.085
-0.021
0.001
-0.043
0.004
-0.083
0.047
-0.012
0.036
0.036
0.004
-0.014
-0.106
-0.081
-0.145
0.107
0.121
-0.053
0.067
-0.125
-0.123
-0.013
0.077
0.016
-0.005
-0.000
-0.031
-0.094
0.044
-0.038
-0.010
-0.084
-0.019
-0.043
0.116
0.024
0.048
-0.061
-0.065
-0.149
-0.116
0.010
-0.029
-0.021
0.022
-0.014
0.124
0.110
-0.047
-0.046
-0.081
-0.567
-0.001
0.349
0.218
0.044
-0.139
-0.196
-0.053
-0.077
-0.027
-0.064
0.000
0.060
-0.034
0.042
0.053
0.031
-0.031
-0.048
0.051
-0.075
-0.071
-0.075
-0.049
0.026
-0.110
-0.044
0.013
-0.013
0.025
0.065
-0.010
-0.020
0.068
-0.027
-0.093
-0.008
0.020
0.071
0.005
-0.119
0.026
-0.062
-0.047
0.041
-0.057
-0.031
-0.060
-0.020
-0.082
0.027
0.005
-0.043
-0.037
-0.026
-0.004
0.016
0.003
0.003
-0.030
0.004
-0.019
-0.013
0.012
-0.014
-0.007
-0.075
-0.066
0.099
0.059
-0.079
-0.031
-0.021
-0.115
-0.009
0.025
-0.135
-0.041
-0.004
0.012
-0.003
-0.104
-0.061
-0.006
0.060
0.040
-0.056
0.030
0.001
-0.006
0.028
-0.081
0.119
0.155
-0.158
-0.075
-0.290
-0.242
0.049
0.046
0.210
0.104
0.073
-0.173
-0.174
-0.089
-0.035
-0.040
0.046
-0.015
0.060
0.032
-0.057
0.026
-0.045
-0.104
0.015
0.025
-0.090
0.005
-0.073
-0.012
-0.032
-0.045
0.064
-0.086
-0.029
-0.138
-0.053
0.058
0.021
-0.018
-0.030
-0.029
0.016
-0.082
0.007
0.017
-0.041
-0.082
-0.034
-0.005
-0.025
-0.106
-0.053
-0.005
0.099
0.002
-0.104
-0.058
-0.020
-0.008
-0.039
-0.027
-0.049
-0.001
0.006
0.184
0.068
-0.166
-0.138
0.115
-0.518
-0.073
0.297
0.242
0.074
0.035
-0.068
-0.051
-0.180
-0.186
-0.018
0.094
0.090
-0.020
0.095
0.032
-0.054
-0.020
-0.110
-0.049
-0.113
0.040
-0.014
-0.072
-0.017
-0.101
-0.008
-0.058
0.061
-0.045
-0.044
-0.008
0.047
-0.110
-0.006
-0.056
0.040
0.020
-0.116
-0.042
-0.050
-0.049
0.006
-0.031
0.021
-0.011
-0.077
-0.034
-0.016
0.101
-0.018
-0.080
-0.078
-0.045
-0.068
-0.058
-0.015
0.121
-0.010
0.077
-0.061
-0.079
-0.144
-0.079
0.037
-0.010
0.084
0.066
0.027
0.033
0.057
0.014
-0.099
-0.039
-0.020
-0.070
0.009
-0.104
-0.035
-0.000
-0.117
0.101
-0.088
-0.100
0.034
-0.071
-0.069
-0.058
0.016
-0.022
0.017
-0.052
-0.081
0.096
-0.000
-0.018
-0.105
-0.040
-0.018
-0.049
-0.059
0.074
-0.031
-0.095
0.038
-0.098
0.075
-0.000
-0.126
0.098
-0.078
0.036
-0.010
-0.044
-0.047
-0.142
0.054
0.170
0.161
-0.059
-0.199
-0.370
-0.182
0.145
0.229
0.120
0.113
0.001
-0.137
-0.199
-0.017
0.006
-0.101
-0.057
-0.059
0.016
0.105
0.043
0.059
-0.123
-0.017
0.008
-0.082
-0.098
-0.055
0.031
-0.051
-0.150
-0.089
0.058
0.041
0.068
-0.079
-0.056
-0.006
-0.110
-0.084
-0.096
0.031
-0.009
-0.017
0.063
0.121
0.083
-0.115
-0.220
0.259
-0.507
-0.280
0.198
0.280
0.146
0.014
-0.097
-0.136
-0.138
-0.085
0.032
0.032
0.084
0.025
0.097
0.045
-0.012
-0.019
-0.017
-0.111
-0.098
-0.014
-0.004
0.014
-0.035
0.050
0.015
-0.013
0.039
-0.097
-0.023
-0.006
-0.077
-0.120
0.018
-0.011
-0.002
-0.050
0.055
-0.019
0.066
-0.099
-0.140
0.044
0.001
-0.048
-0.062
-0.030
-0.020
0.054
0.079
-0.134
-0.048
0.023
-0.047
0.043
0.039
0.042
-0.048
-0.094
0.006
-0.014
0.043
-0.004
-0.042
-0.094
0.024
0.051
0.018
-0.019
-0.027
-0.047
-0.139
-0.032
-0.073
0.027
-0.075
0.098
0.091
0.012
-0.077
-0.122
-0.067
-0.031
-0.088
-0.011
0.068
0.054
-0.056
-0.002
-0.090
-0.014
0.026
-0.129
0.040
0.085
-0.065
-0.038
-0.117
0.001
0.019
-0.011
-0.089
-0.092
0.011
0.086
0.018
-0.152
-0.092
-0.078
-0.042
-0.031
0.051
0.046
0.082
-0.003
-0.056
-0.033
-0.005
0.020
-0.034
0.060
-0.030
-0.024
-0.018
-0.039
-0.072
-0.015
0.129
-0.033
-0.112
-0.088
0.040
0.015
0.042
-0.024
0.001
-0.044
0.032
-0.079
-0.058
-0.037
0.043
-0.011
-0.010
-0.103
0.001
0.152
-0.046
-0.154
-0.240
-0.179
0.110
0.115
0.122
0.073
-0.043
-0.065
-0.171
-0.031
0.124
-0.067
0.085
0.110
-0.015
0.081
0.165
-0.576
-0.204
0.238
0.169
-0.001
0.086
-0.092
-0.124
-0.129
-0.117
-0.161
-0.043
0.118
0.053
0.046
0.063
0.014
-0.069
-0.025
0.079
-0.051
-0.128
-0.037
0.046
-0.151
-0.048
0.038
-0.037
-0.028
-0.037
0.026
-0.031
0.017
-0.108
0.000
0.019
0.060
0.061
0.017
-0.124
-0.100
-0.046
0.008
0.032
-0.107
0.053
-0.145
-0.004
0.049
-0.004
-0.072
-0.018
-0.017
0.059
0.011
-0.094
-0.128
0.068
0.061
-0.037
-0.025
0.039
-0.013
-0.066
-0.007
-0.049
-0.115
-0.032
-0.032
-0.027
-0.031
-0.083
0.020
0.052
-0.078
-0.120
-0.036
0.061
0.141
0.013
-0.003
-0.030
-0.040
-0.055
0.005
0.056
0.019
-0.016
-0.022
-0.067
-0.041
-0.031
-0.051
-0.061
-0.069
-0.083
-0.025
-0.034
0.039
0.058
-0.056
-0.006
-0.031
-0.052
-0.056
-0.032
0.139
0.024
-0.117
-0.049
-0.052
-0.091
-0.038
0.022
0.068
-0.128
-0.144
-0.129
-0.080
0.078
-0.074
0.128
0.031
-0.079
0.130
-0.029
-0.055
-0.033
-0.072
-0.095
0.078
0.080
0.100
-0.136
-0.068
-0.010
0.004
-0.052
-0.017
0.106
-0.027
-0.016
-0.016
-0.112
-0.079
-0.038
0.005
-0.073
0.090
-0.043
-0.024
-0.120
0.035
-0.050
-0.038
-0.028
-0.063
-0.005
-0.028
-0.003
-0.111
-0.050
0.013
0.183
0.020
-0.067
0.078
-0.397
-0.326
0.109
0.211
0.033
0.104
0.012
-0.171
-0.024
-0.068
0.084
-0.073
0.079
-0.013
-0.003
0.049
0.048
-0.020
-0.004
-0.048
-0.070
0.039
-0.028
-0.031
-0.001
-0.042
-0.088
-0.041
0.019
-0.018
-0.089
-0.001
0.077
-0.038
0.028
-0.065
-0.003
0.036
-0.157
-0.035
-0.126
-0.057
-0.017
0.010
0.008
-0.098
0.006
0.078
0.101
0.120
-0.192
-0.152
-0.195
-0.027
0.051
0.149
0.085
-0.101
-0.070
-0.102
-0.075
-0.020
-0.015
0.026
0.044
-0.129
0.016
0.039
0.081
-0.024
0.014
-0.066
0.076
0.038
-0.009
-0.049
-0.099
-0.040
0.028
0.045
-0.092
-0.029
-0.065
-0.080
-0.011
-0.078
-0.066
-0.076
0.014
0.093
0.061
-0.077
0.010
-0.072
0.036
0.045
-0.104
-0.120
0.024
-0.037
0.017
0.022
-0.097
-0.002
-0.004
0.005
-0.032
-0.116
0.035
-0.084
0.075
-0.013
0.008
-0.016
-0.090
-0.006
-0.048
-0.040
-0.054
-0.020
0.047
0.092
0.015
0.006
-0.013
-0.080
-0.059
-0.019
0.046
-0.027
-0.083
-0.030
-0.091
-0.001
0.081
0.004
-0.038
-0.064
-0.055
-0.056
-0.001
0.023
0.007
-0.004
-0.055
-0.059
-0.081
0.022
-0.044
-0.111
-0.071
0.025
0.001
-0.068
-0.052
0.022
0.025
-0.060
-0.062
0.099
0.114
0.007
-0.235
-0.043
0.179
-0.523
-0.027
0.184
0.253
-0.016
-0.127
-0.155
-0.030
-0.024
-0.044
0.053
-0.040
0.066
0.020
-0.005
-0.039
0.035
0.093
-0.049
-0.001
-0.134
-0.078
0.028
-0.070
-0.025
-0.071
0.030
0.033
-0.043
0.041
-0.113
-0.124
0.044
-0.071
-0.094
0.017
0.027
-0.019
-0.048
-0.029
-0.139
0.000
0.036
-0.073
-0.043
0.043
0.016
-0.025
0.139
-0.118
-0.022
0.095
-0.098
-0.076
0.003
0.051
-0.046
-0.059
0.049
-0.054
0.016
0.111
0.001
-0.064
-0.074
-0.230
0.062
-0.038
0.012
0.058
-0.017
-0.087
-0.005
-0.070
-0.040
0.001
-0.022
-0.095
-0.126
0.015
0.038
0.021
-0.092
-0.061
-0.060
-0.004
0.085
-0.008
0.003
-0.136
0.015
0.056
0.083
0.004
0.003
-0.064
-0.048
0.011
-0.159
-0.023
0.098
-0.039
0.041
-0.070
0.108
0.000
-0.175
-0.355
-0.282
0.040
0.120
0.113
0.152
0.064
-0.133
-0.093
-0.095
-0.067
-0.013
-0.019
0.013
0.107
-0.003
0.081
0.055
-0.016
-0.080
-0.077
-0.092
0.042
0.001
0.023
-0.078
-0.063
-0.048
0.036
0.004
-0.093
-0.027
0.036
0.010
0.018
-0.058
0.029
0.053
-0.059
-0.013
0.037
0.013
-0.003
0.064
0.023
0.026
-0.059
0.049
-0.084
-0.139
-0.035
0.039
-0.021
0.038
-0.039
-0.099
-0.037
-0.036
0.082
-0.001
0.041
0.032
-0.093
-0.078
-0.027
0.058
0.013
0.123
0.006
-0.090
-0.103
0.038
-0.067
-0.061
-0.026
-0.016
0.051
0.120
0.028
-0.037
-0.066
-0.048
0.020
-0.069
-0.034
-0.004
-0.016
0.168
0.179
-0.156
-0.079
-0.068
-0.018
-0.527
0.165
0.260
0.149
0.085
-0.060
-0.200
-0.212
-0.068
-0.031
0.093
0.105
0.045
-0.013
-0.022
-0.018
-0.002
-0.061
-0.032
-0.055
0.055
-0.028
-0.045
-0.047
-0.073
-0.050
0.011
0.012
-0.065
0.064
-0.087
-0.089
-0.069
-0.025
0.017
-0.019
0.026
-0.032
0.004
0.012
0.005
-0.012
-0.133
-0.031
-0.052
0.055
0.008
0.060
-0.034
-0.019
-0.039
-0.055
0.036
-0.001
0.021
-0.081
-0.050
-0.004
0.061
-0.109
-0.048
0.051
-0.015
-0.018
-0.046
-0.100
-0.011
0.061
0.089
-0.038
0.066
-0.128
-0.176
0.001
0.072
0.015
-0.008
-0.009
-0.063
-0.010
0.059
0.042
0.015
-0.024
-0.148
-0.057
0.030
0.122
0.055
0.012
-0.051
-0.028
-0.055
-0.035
0.033
-0.080
-0.043
-0.033
0.026
-0.132
-0.008
0.066
0.014
-0.048
-0.109
-0.008
-0.002
-0.010
0.063
-0.033
0.029
0.089
0.020
0.004
-0.111
0.091
-0.059
-0.064
-0.041
-0.053
0.011
-0.052
0.035
0.017
0.051
0.077
-0.155
-0.075
0.030
0.006
-0.152
0.111
-0.019
0.006
-0.024
-0.059
0.004
-0.035
0.066
-0.086
-0.121
0.005
-0.057
0.023
0.052
0.010
0.034
-0.027
-0.046
0.021
-0.089
0.018
-0.048
-0.037
-0.142
0.035
0.054
-0.162
-0.027
-0.053
0.027
-0.007
-0.107
-0.026
0.067
0.004
-0.088
0.058
0.144
0.090
-0.197
-0.062
-0.327
0.005
0.028
0.162
0.121
0.025
-0.147
-0.039
-0.036
-0.067
-0.090
-0.089
-0.062
0.026
0.006
0.039
0.014
-0.028
0.033
-0.056
0.011
0.008
-0.041
-0.121
-0.051
-0.043
0.055
-0.112
0.046
0.001
-0.040
0.098
0.011
-0.016
-0.079
-0.054
-0.029
-0.085
0.022
0.057
-0.071
0.038
-0.004
-0.049
0.024
0.044
-0.048
-0.049
-0.075
-0.081
0.022
-0.076
0.040
-0.019
-0.007
0.129
0.046
-0.010
-0.156
-0.047
0.198
-0.556
-0.034
0.149
0.237
0.003
-0.018
-0.173
-0.023
-0.073
-0.039
-0.040
-0.002
0.216
0.002
-0.083
0.115
0.007
-0.085
-0.019
0.035
-0.092
0.070
-0.038
0.051
-0.029
0.005
-0.156
-0.058
-0.049
0.040
-0.003
-0.088
0.104
-0.080
0.004
-0.065
-0.123
-0.070
-0.036
0.060
0.070
-0.085
0.017
0.064
-0.004
-0.092
-0.073
-0.010
-0.015
-0.022
0.007
-0.028
-0.041
-0.060
-0.081
0.009
0.006
0.111
-0.022
-0.102
-0.067
-0.020
-0.041
-0.051
0.001
-0.008
0.000
0.127
0.070
-0.044
-0.073
-0.173
-0.007
-0.013
-0.008
-0.002
0.007
-0.058
0.074
-0.075
0.009
0.000
-0.093
-0.061
-0.093
0.027
-0.048
-0.040
-0.070
-0.079
0.050
-0.075
0.014
0.148
0.006
-0.007
-0.017
-0.134
-0.094
-0.053
-0.056
-0.046
-0.029
0.040
-0.010
-0.039
-0.017
-0.075
0.149
-0.093
-0.093
-0.061
0.013
0.007
-0.038
0.036
-0.046
-0.021
-0.026
-0.005
-0.021
0.047
0.013
-0.091
0.023
-0.033
0.070
-0.085
-0.039
-0.014
-0.042
-0.004
-0.007
-0.112
-0.051
0.005
0.043
-0.023
-0.073
-0.020
0.065
0.009
0.025
-0.062
-0.225
-0.249
-0.130
0.043
0.175
0.110
0.156
0.031
-0.189
-0.124
-0.065
-0.066
-0.009
0.023
0.077
-0.002
-0.005
-0.103
-0.041
-0.009
0.049
-0.002
0.025
-0.079
-0.118
0.034
0.114
0.084
-0.059
-0.029
-0.090
-0.049
-0.040
0.049
-0.010
-0.001
0.066
-0.010
0.007
-0.085
-0.121
-0.082
0.076
-0.073
-0.073
0.065
0.043
-0.049
-0.017
0.072
-0.084
0.016
-0.015
-0.085
-0.026
0.212
0.124
-0.196
0.026
-0.519
-0.240
0.154
0.278
0.173
0.017
-0.084
-0.148
0.005
-0.091
-0.066
-0.012
-0.087
0.027
0.040
-0.058
0.038
0.031
0.036
0.039
-0.056
-0.137
-0.002
-0.065
0.022
-0.103
0.024
0.053
-0.005
0.004
0.060
0.018
-0.069
-0.034
-0.051
-0.047
-0.047
-0.012
0.038
-0.141
-0.100
-0.150
-0.088
0.068
0.003
0.027
-0.093
-0.038
-0.020
-0.153
0.129
-0.040
-0.065
0.015
0.068
-0.104
-0.132
-0.017
0.054
0.097
-0.071
-0.030
-0.029
-0.102
0.099
-0.002
-0.042
-0.056
0.032
-0.058
-0.069
0.018
-0.015
-0.063
-0.003
-0.165
0.070
0.007
0.000
-0.101
-0.019
0.057
-0.111
-0.044
-0.055
0.021
0.059
0.052
-0.052
0.032
-0.051
-0.056
-0.016
-0.092
0.003
-0.004
-0.021
-0.006
0.007
-0.017
-0.061
-0.083
0.070
-0.021
0.060
-0.027
0.079
-0.073
-0.008
0.000
-0.081
-0.013
-0.054
-0.042
-0.075
0.068
0.022
-0.016
-0.102
-0.115
-0.117
0.013
0.041
0.021
-0.023
-0.118
-0.106
0.052
-0.031
0.010
0.016
0.014
-0.068
-0.027
0.036
0.083
0.216
0.042
-0.180
-0.238
-0.276
-0.203
0.155
0.113
0.103
0.233
0.037
-0.235
-0.223
0.041
-0.490
-0.281
0.263
0.308
0.143
-0.004
-0.009
-0.106
-0.059
-0.123
-0.038
-0.005
0.088
0.110
-0.125
0.015
-0.108
-0.002
-0.132
-0.091
-0.043
0.003
-0.072
-0.055
0.037
-0.076
-0.014
0.032
0.037
0.049
-0.091
-0.097
-0.160
0.008
0.033
-0.020
0.071
-0.039
-0.073
0.012
-0.064
-0.097
0.034
0.075
-0.077
-0.015
-0.032
-0.028
0.015
0.091
-0.031
0.043
0.038
-0.082
-0.068
0.014
0.024
-0.061
-0.154
-0.057
0.077
0.013
-0.007
-0.044
-0.090
0.013
-0.047
0.019
0.069
-0.077
-0.058
0.042
-0.001
-0.018
0.047
0.001
-0.039
0.030
-0.082
-0.111
-0.079
0.019
0.158
0.057
-0.001
-0.002
-0.066
-0.035
-0.021
-0.001
-0.041
-0.114
0.044
-0.043
0.001
-0.040
-0.028
0.018
-0.042
-0.058
-0.092
-0.070
-0.067
-0.001
0.039
-0.047
0.013
-0.069
0.023
0.035
-0.074
0.053
0.049
0.083
0.006
-0.018
-0.120
-0.070
0.013
0.014
0.010
0.055
-0.106
-0.019
0.047
-0.059
0.009
-0.077
0.008
0.064
-0.076
0.064
-0.138
-0.086
-0.062
-0.009
0.106
0.018
-0.044
-0.105
-0.009
-0.089
0.010
-0.053
-0.006
-0.068
-0.064
0.079
0.007
0.251
0.038
0.031
-0.044
-0.047
-0.041
-0.100
-0.047
0.001
0.085
-0.042
0.074
-0.096
0.003
0.058
-0.076
-0.136
0.056
0.169
-0.533
-0.204
0.393
0.423
0.014
-0.185
-0.411
-0.295
0.089
0.060
0.177
0.128
-0.072
0.054
-0.171
-0.121
0.040
-0.058
0.101
0.133
0.055
-0.004
0.064
-0.052
-0.028
0.073
0.032
-0.014
-0.227
0.002
-0.040
-0.010
-0.138
-0.004
0.084
-0.030
-0.067
0.036
-0.056
0.010
-0.082
-0.032
0.033
-0.006
0.043
-0.075
-0.015
0.010
0.009
-0.007
-0.040
-0.027
-0.075
-0.073
-0.050
0.036
-0.028
0.022
-0.023
-0.021
-0.121
0.046
-0.017
0.048
-0.048
-0.081
-0.070
-0.010
0.002
0.135
-0.079
-0.101
-0.032
-0.033
0.002
0.023
0.088
-0.053
-0.050
0.019
-0.005
-0.004
-0.044
-0.008
0.127
-0.062
-0.046
-0.062
-0.030
-0.082
0.000
0.004
0.022
-0.049
-0.040
-0.015
-0.064
-0.017
-0.041
0.076
-0.030
0.016
-0.038
0.020
-0.146
-0.018
0.027
0.038
-0.036
-0.044
-0.040
0.004
-0.030
-0.092
-0.149
0.042
-0.030
0.058
0.034
0.098
-0.002
-0.136
-0.046
0.041
0.054
-0.009
-0.075
-0.078
0.078
-0.051
0.021
-0.012
-0.025
-0.038
-0.013
-0.031
-0.066
-0.023
-0.071
-0.058
0.026
0.080
-0.030
-0.059
0.005
0.009
-0.055
-0.083
-0.081
0.062
0.013
-0.028
-0.064
-0.013
-0.043
-0.018
-0.052
-0.061
-0.001
0.070
-0.024
0.023
-0.077
-0.036
-0.086
-0.083
0.075
0.059
-0.098
-0.052
-0.039
0.044
0.087
-0.063
-0.040
-0.010
-0.038
-0.142
0.038
-0.047
0.120
0.012
0.065
-0.218
0.009
-0.018
0.058
-0.071
-0.075
-0.016
-0.085
-0.025
-0.028
0.010
-0.030
-0.101
0.023
0.112
-0.074
-0.046
0.126
-0.078
-0.007
-0.056
-0.029
-0.052
0.148
0.023
-0.175
0.010
-0.083
-0.495
0.096
0.259
0.185
0.063
-0.155
-0.146
-0.057
0.004
-0.044
-0.037
-0.003
0.075
-0.031
-0.043
0.005
-0.062
0.008
0.052
0.176
0.086
-0.011
-0.149
-0.334
-0.228
-0.000
0.133
0.238
0.179
-0.054
-0.102
-0.049
-0.150
-0.080
-0.017
-0.100
0.001
0.047
0.102
-0.052
-0.104
0.105
0.033
0.028
-0.048
-0.047
-0.031
-0.013
-0.066
-0.022
0.119
0.095
-0.122
-0.088
-0.065
0.002
-0.091
-0.033
-0.028
0.001
0.036
-0.088
-0.031
-0.032
-0.094
-0.030
-0.021
0.025
0.093
-0.037
-0.054
-0.088
-0.004
0.087
0.011
0.049
0.000
-0.087
-0.018
-0.053
0.032
-0.074
-0.061
-0.016
-0.078
0.009
-0.013
0.035
0.020
-0.066
-0.062
-0.046
0.007
0.026
-0.070
0.028
-0.056
-0.080
-0.037
-0.105
-0.001
0.022
0.078
-0.066
-0.054
-0.023
-0.043
-0.022
0.058
0.064
-0.026
-0.111
0.007
-0.056
0.006
0.043
-0.026
0.021
0.130
-0.105
-0.149
-0.066
-0.112
0.041
-0.034
0.094
-0.082
-0.055
-0.032
0.079
0.025
0.037
-0.036
-0.070
-0.021
0.013
0.092
-0.013
-0.135
-0.030
0.087
-0.277
-0.315
0.175
0.206
0.018
0.034
-0.054
-0.161
-0.015
0.004
-0.070
0.059
0.051
0.117
-0.052
-0.067
0.025
-0.076
0.019
0.042
-0.045
-0.073
0.040
-0.193
0.048
-0.030
0.060
-0.159
-0.043
0.138
0.064
-0.142
-0.130
-0.319
-0.211
0.104
0.196
0.033
-0.018
0.018
-0.027
-0.059
-0.121
-0.084
0.013
0.085
0.018
-0.048
-0.008
0.099
0.028
-0.081
-0.092
-0.074
-0.012
0.121
0.007
-0.117
-0.100
-0.052
-0.036
-0.035
-0.022
-0.121
-0.101
-0.037
0.003
-0.009
0.007
0.003
-0.110
-0.013
0.012
0.037
-0.109
-0.083
-0.023
-0.004
0.018
-0.122
-0.018
-0.047
0.015
-0.012
-0.078
-0.053
-0.045
-0.038
-0.074
-0.076
0.022
-0.001
-0.094
0.046
-0.113
0.054
-0.125
0.001
0.010
0.015
-0.083
-0.007
0.126
-0.103
-0.069
-0.034
-0.027
-0.070
0.019
0.068
0.050
0.001
-0.019
-0.097
-0.060
-0.068
-0.027
-0.068
0.040
-0.000
-0.000
-0.097
-0.011
-0.096
0.037
-0.019
-0.047
-0.044
0.086
-0.007
-0.018
-0.079
-0.046
-0.080
-0.006
-0.025
-0.111
-0.019
-0.060
-0.012
-0.070
-0.031
0.074
0.011
-0.011
-0.056
-0.086
0.020
0.038
-0.109
-0.211
-0.027
0.092
-0.199
-0.098
0.188
0.159
-0.042
-0.084
-0.019
-0.141
-0.010
-0.003
-0.016
-0.028
-0.085
0.063
0.124
0.027
-0.032
-0.053
-0.030
-0.092
0.004
-0.041
0.069
0.019
0.083
0.096
-0.124
-0.050
-0.385
-0.070
0.123
0.134
0.115
-0.081
-0.015
-0.058
-0.185
-0.163
-0.063
-0.054
0.088
0.051
0.003
-0.003
-0.066
-0.082
0.092
0.061
-0.061
-0.032
0.020
-0.028
-0.165
-0.042
0.024
0.052
0.119
-0.036
-0.196
-0.109
-0.046
-0.008
0.085
0.003
-0.024
-0.013
0.031
-0.139
-0.102
-0.024
0.084
0.006
-0.001
0.006
-0.056
-0.018
0.051
-0.007
0.026
-0.052
-0.028
-0.122
-0.161
0.028
0.022
-0.016
0.045
-0.059
-0.038
-0.078
-0.133
-0.009
-0.029
0.070
0.021
-0.107
-0.018
0.015
-0.009
-0.141
-0.059
0.035
0.011
-0.015
0.122
-0.049
-0.001
-0.099
-0.102
-0.055
0.072
0.031
0.014
-0.050
-0.095
-0.135
-0.084
-0.030
-0.008
-0.055
0.010
0.049
-0.015
0.006
-0.015
-0.032
-0.038
-0.128
-0.053
-0.019
0.024
0.018
-0.005
-0.016
0.064
-0.044
-0.052
-0.153
-0.005
-0.015
0.027
-0.019
-0.043
-0.029
-0.025
0.005
0.024
0.013
-0.080
0.076
-0.071
-0.014
-0.011
-0.015
0.016
-0.148
0.003
0.104
-0.092
-0.050
-0.027
-0.027
0.040
0.019
-0.033
0.043
0.076
0.037
-0.214
0.103
-0.515
-0.281
0.236
0.311
0.201
-0.050
-0.186
-0.244
-0.098
0.078
0.009
-0.003
0.033
-0.020
-0.051
-0.031
0.006
-0.037
-0.009
0.013
0.017
-0.015
-0.072
-0.056
-0.006
-0.065
0.033
0.037
-0.166
-0.049
-0.028
0.098
0.239
0.002
-0.123
-0.288
-0.335
-0.050
0.139
0.165
0.044
0.141
-0.095
-0.170
-0.059
-0.127
0.038
0.009
0.025
0.116
-0.002
-0.038
-0.055
0.014
0.018
-0.001
0.030
-0.056
-0.109
-0.030
-0.018
-0.068
-0.052
0.016
-0.090
-0.015
0.047
0.089
-0.058
-0.120
-0.009
-0.005
0.031
0.047
-0.019
-0.048
0.017
0.031
-0.004
0.014
0.051
-0.052
-0.034
0.035
0.027
-0.068
-0.008
0.027
-0.065
-0.032
0.069
-0.035
-0.012
0.003
0.123
-0.032
-0.108
-0.013
-0.022
0.026
-0.005
0.126
-0.112
-0.121
-0.001
-0.028
0.052
-0.081
-0.038
0.076
0.088
-0.055
-0.130
-0.064
0.145
0.011
0.114
-0.016
-0.072
-0.128
-0.014
0.020
-0.014
0.010
0.160
0.002
-0.043
-0.047
-0.080
-0.024
0.092
-0.006
-0.093
-0.012
-0.003
0.039
-0.020
-0.055
0.101
-0.041
-0.068
-0.051
-0.077
-0.138
0.125
0.071
0.066
-0.033
-0.122
-0.124
-0.169
0.007
0.087
0.079
-0.014
-0.038
-0.089
-0.019
0.026
-0.010
0.064
0.011
-0.121
-0.102
0.023
-0.013
0.019
-0.019
-0.011
-0.052
-0.062
0.012
-0.074
0.041
0.008
-0.032
-0.073
-0.117
-0.057
0.048
-0.038
0.031
0.001
-0.070
0.121
0.109
-0.038
-0.150
-0.021
-0.208
-0.445
0.162
0.274
0.108
-0.033
-0.089
-0.127
-0.083
-0.045
0.013
-0.032
0.134
-0.022
0.056
-0.053
-0.118
0.017
-0.013
0.149
-0.033
-0.013
-0.002
-0.100
-0.103
-0.076
-0.045
0.005
0.031
0.083
0.074
0.009
-0.070
-0.146
-0.036
-0.069
-0.016
-0.003
0.079
-0.004
-0.038
0.054
-0.006
-0.058
0.065
0.005
-0.125
-0.194
-0.270
0.053
0.175
0.263
0.101
-0.005
-0.135
-0.122
-0.085
-0.061
-0.008
0.026
-0.014
0.089
0.086
0.048
0.000
-0.006
-0.096
-0.004
-0.090
-0.001
-0.013
-0.020
-0.105
0.009
-0.120
-0.016
0.052
-0.116
-0.050
-0.013
0.051
0.027
0.019
0.133
-0.024
0.047
-0.121
-0.058
-0.062
-0.028
-0.042
0.127
0.024
-0.049
-0.094
0.054
0.023
-0.043
-0.003
-0.074
-0.097
-0.078
-0.023
-0.070
0.015
0.078
-0.058
-0.005
-0.108
-0.032
0.081
-0.084
-0.083
-0.005
-0.010
-0.007
-0.015
0.101
-0.005
-0.079
-0.053
-0.008
-0.127
-0.020
-0.021
0.031
0.006
-0.057
0.100
-0.080
0.019
-0.049
-0.019
-0.088
-0.020
-0.126
-0.098
-0.034
0.032
0.053
-0.050
0.087
0.075
-0.045
-0.146
-0.023
-0.354
-0.186
0.235
0.272
0.144
-0.067
-0.059
-0.125
-0.144
-0.051
-0.082
-0.027
-0.004
0.112
-0.018
0.025
-0.044
-0.047
0.012
0.096
-0.069
-0.097
-0.017
-0.035
-0.059
-0.053
-0.008
-0.005
-0.016
-0.054
0.008
0.084
-0.056
-0.069
-0.037
-0.003
-0.036
-0.080
-0.047
-0.056
0.000
0.006
-0.058
-0.053
-0.083
0.093
0.016
-0.034
-0.129
-0.051
-0.047
0.043
0.023
0.010
-0.011
-0.131
-0.030
-0.098
0.119
0.021
0.005
-0.082
0.026
0.044
0.019
-0.020
-0.007
-0.069
-0.060
-0.010
-0.017
-0.027
-0.008
-0.042
0.009
-0.059
-0.004
-0.036
-0.027
-0.072
0.045
0.023
-0.025
-0.098
0.028
-0.003
-0.113
-0.073
0.036
0.027
-0.079
-0.024
0.005
0.024
0.174
0.119
-0.104
-0.214
-0.383
-0.168
0.107
0.256
0.124
0.001
-0.077
-0.097
-0.076
-0.021
-0.040
-0.070
-0.063
-0.026
0.059
0.106
0.179
0.093
0.098
-0.211
-0.139
-0.118
-0.026
0.032
0.061
0.018
-0.023
-0.024
-0.005
-0.008
-0.008
-0.057
-0.083
0.004
-0.090
-0.065
0.070
0.064
-0.059
-0.061
-0.038
0.012
0.024
0.107
0.180
0.047
-0.233
-0.147
-0.081
-0.375
0.046
0.277
0.223
0.018
-0.082
-0.118
-0.060
-0.059
0.048
0.013
-0.120
0.048
0.015
0.086
-0.062
0.014
0.072
-0.068
0.002
-0.054
-0.203
0.023
-0.006
0.060
-0.103
0.068
-0.084
-0.041
-0.014
-0.072
-0.003
0.017
-0.039
0.050
0.089
-0.044
-0.060
-0.134
-0.038
0.134
-0.066
-0.029
-0.134
-0.026
0.011
-0.040
-0.001
0.039
-0.092
-0.008
0.008
0.014
-0.025
-0.076
0.004
-0.014
-0.032
0.023
-0.018
-0.012
-0.085
-0.034
-0.010
0.013
-0.085
-0.074
-0.009
0.011
0.025
0.002
-0.013
-0.106
-0.077
0.022
-0.070
-0.046
-0.039
0.065
-0.079
-0.102
-0.022
0.118
-0.092
-0.124
0.079
-0.064
0.042
-0.099
-0.065
-0.101
-0.075
0.113
0.027
0.042
-0.109
-0.067
-0.098
-0.033
0.060
0.066
-0.020
-0.069
0.033
0.013
-0.036
-0.012
-0.099
-0.063
0.058
-0.001
0.048
0.005
-0.049
-0.053
0.020
-0.042
-0.003
0.030
-0.031
0.016
0.002
0.018
-0.007
-0.055
-0.005
-0.087
-0.033
-0.014
0.015
-0.002
-0.024
0.033
0.030
-0.176
-0.025
0.110
0.095
-0.069
-0.136
-0.374
-0.082
0.114
0.216
0.140
-0.032
0.005
-0.096
-0.066
-0.106
-0.005
0.093
0.142
0.022
-0.032
0.065
0.074
-0.005
-0.032
-0.020
0.134
-0.586
-0.064
0.241
0.147
-0.007
-0.076
-0.001
-0.156
-0.193
0.013
-0.069
-0.060
0.099
-0.046
-0.018
0.057
0.068
-0.000
-0.126
-0.037
0.021
-0.035
-0.061
0.045
-0.048
-0.037
0.033
0.006
-0.075
-0.059
-0.011
0.004
0.046
0.037
-0.010
-0.045
-0.021
-0.083
-0.099
0.043
-0.065
0.014
0.036
-0.062
-0.023
-0.057
0.023
-0.005
0.025
-0.069
-0.037
0.004
0.004
-0.053
-0.033
0.057
-0.079
0.060
-0.084
-0.001
0.071
0.056
-0.169
-0.025
-0.138
-0.052
0.017
0.052
-0.024
0.009
-0.073
-0.002
-0.075
-0.104
0.082
0.003
-0.072
0.016
-0.009
-0.099
0.005
-0.050
0.050
-0.178
-0.076
0.132
0.047
-0.117
0.001
-0.029
-0.104
-0.059
0.068
0.108
0.080
-0.053
-0.032
-0.088
0.001
0.006
0.004
-0.027
-0.056
0.096
-0.060
-0.004
-0.119
0.085
-0.050
-0.018
-0.088
-0.121
-0.024
-0.064
-0.051
-0.020
-0.048
-0.026
0.035
0.077
-0.186
-0.064
-0.013
-0.012
-0.027
-0.025
0.068
-0.023
0.105
-0.007
-0.137
0.016
0.072
-0.406
-0.396
0.194
0.241
0.088
-0.071
-0.185
-0.089
-0.118
0.031
0.071
-0.061
0.042
0.055
-0.035
-0.073
-0.070
0.110
-0.022
0.047
0.016
0.024
-0.021
-0.002
-0.019
0.003
-0.095
-0.068
-0.010
-0.082
0.163
0.156
-0.001
-0.170
-0.213
-0.327
-0.018
0.073
0.165
0.123
0.084
-0.111
-0.086
-0.138
-0.049
0.012
-0.037
0.028
-0.036
0.016
0.024
-0.006
0.006
-0.002
-0.059
-0.059
-0.050
-0.009
-0.048
-0.057
-0.050
0.023
0.001
-0.033
-0.024
-0.064
0.033
0.015
0.013
0.035
-0.083
-0.025
-0.058
-0.023
-0.029
-0.001
0.003
-0.054
-0.096
-0.098
0.045
-0.003
-0.041
0.006
-0.092
-0.012
-0.013
-0.049
-0.004
-0.036
-0.034
-0.049
-0.102
-0.041
0.024
-0.031
-0.023
-0.008
-0.106
-0.035
0.082
-0.112
-0.063
0.000
0.065
-0.131
-0.089
0.020
0.055
-0.039
-0.109
-0.127
-0.053
0.008
0.016
0.028
-0.052
-0.043
-0.045
0.014
-0.083
-0.013
-0.000
-0.016
-0.101
-0.059
-0.010
0.076
-0.060
0.107
0.021
-0.033
-0.065
-0.063
-0.012
-0.026
-0.021
0.003
0.044
-0.127
-0.023
-0.022
-0.014
-0.037
-0.084
-0.008
-0.013
-0.025
0.001
0.025
-0.068
-0.001
0.044
0.135
-0.088
-0.052
0.134
-0.645
-0.010
0.139
0.238
0.125
0.021
-0.147
-0.043
-0.170
-0.039
-0.034
0.067
0.139
-0.061
-0.125
0.129
0.082
0.037
0.089
-0.077
-0.042
-0.118
-0.052
-0.012
-0.043
0.073
-0.048
-0.042
-0.024
-0.013
-0.092
-0.072
0.055
-0.118
0.024
-0.000
0.012
0.029
-0.005
-0.131
0.027
0.014
-0.080
-0.012
-0.104
-0.122
0.078
0.028
0.030
-0.082
-0.003
0.267
0.063
-0.122
-0.104
-0.332
-0.176
-0.065
0.285
0.233
0.104
-0.038
-0.164
-0.102
-0.171
-0.102
-0.033
0.001
0.047
0.058
0.002
0.038
0.027
0.065
-0.042
0.010
-0.157
-0.072
-0.014
-0.007
0.034
-0.015
-0.087
0.006
0.040
-0.069
-0.040
-0.065
-0.049
0.002
0.065
-0.028
0.056
-0.022
-0.072
-0.009
-0.084
-0.043
0.040
-0.061
-0.051
-0.113
-0.023
0.034
0.205
-0.100
-0.061
-0.071
0.050
-0.024
-0.134
0.083
0.085
-0.026
-0.082
0.023
-0.054
0.018
0.010
-0.015
0.043
-0.047
0.008
-0.132
-0.063
-0.025
-0.083
0.079
0.029
-0.026
-0.016
-0.097
-0.064
-0.061
0.042
0.084
0.123
0.015
-0.168
0.064
-0.597
-0.122
0.219
0.232
0.183
-0.004
-0.093
-0.208
-0.092
-0.037
0.091
-0.073
0.048
-0.026
0.003
-0.007
-0.111
0.127
0.012
-0.042
-0.018
-0.060
-0.059
0.056
0.028
-0.152
0.001
-0.051
-0.037
0.022
-0.063
0.006
-0.038
-0.068
-0.009
-0.028
-0.071
0.016
0.032
0.075
0.000
-0.084
-0.089
0.033
-0.096
-0.102
0.014
-0.074
0.045
-0.080
-0.002
-0.047
0.004
0.020
-0.037
0.030
0.080
-0.090
-0.086
-0.063
0.060
0.005
-0.046
-0.027
-0.113
-0.118
0.096
0.081
-0.082
-0.079
-0.096
-0.111
-0.009
0.080
0.057
0.007
0.016
0.000
-0.009
-0.128
-0.089
-0.158
0.020
-0.020
0.036
0.003
0.138
0.150
-0.119
-0.218
-0.274
-0.309
0.102
0.315
0.167
0.035
-0.022
-0.179
-0.108
0.008
-0.065
-0.072
-0.047
0.055
0.050
-0.062
0.037
-0.002
0.060
-0.084
-0.038
-0.123
-0.050
0.120
-0.084
-0.090
-0.080
-0.002
-0.028
-0.055
-0.005
-0.026
0.034
0.022
-0.006
0.051
-0.052
-0.083
0.034
-0.039
-0.029
0.012
-0.094
0.054
0.026
-0.054
0.026
0.044
-0.093
-0.008
0.012
-0.066
-0.016
-0.027
0.040
-0.040
-0.049
-0.018
-0.040
-0.038
-0.014
-0.065
0.043
-0.022
-0.017
-0.077
-0.076
-0.030
0.094
-0.052
-0.090
-0.006
-0.102
-0.015
0.052
0.049
0.062
0.030
0.017
-0.070
0.133
-0.507
-0.216
0.110
0.324
0.211
0.088
-0.195
-0.170
-0.085
0.045
-0.134
-0.007
0.106
0.125
-0.011
-0.027
0.002
-0.016
-0.094
-0.026
-0.094
-0.079
-0.027
0.034
-0.018
-0.114
-0.120
-0.038
0.001
0.003
-0.074
-0.056
0.044
0.052
-0.014
-0.061
-0.011
-0.058
0.012
0.051
-0.092
-0.102
-0.011
0.033
0.027
0.019
0.048
-0.002
0.002
-0.057
0.046
-0.104
-0.020
-0.062
0.039
0.089
-0.018
-0.016
-0.030
0.033
-0.103
-0.081
-0.036
-0.010
0.076
-0.017
0.063
-0.059
0.045
-0.043
-0.078
0.017
-0.036
-0.001
0.013
-0.053
-0.089
-0.065
-0.024
-0.065
0.050
0.078
-0.006
-0.064
0.046
-0.027
0.027
-0.099
-0.089
-0.056
0.042
-0.017
0.026
0.019
-0.027
0.027
-0.059
-0.096
0.016
-0.024
0.065
-0.047
-0.069
0.039
-0.088
0.063
0.007
0.081
-0.028
0.045
-0.031
-0.043
-0.037
0.153
0.114
-0.057
-0.159
-0.365
-0.091
0.107
0.283
0.187
-0.001
-0.040
-0.161
0.080
-0.044
-0.037
-0.014
-0.309
-0.381
0.090
0.260
0.270
0.076
-0.074
-0.148
-0.093
0.027
-0.052
-0.112
0.006
0.009
0.045
0.076
-0.052
-0.021
0.001
-0.082
-0.001
-0.120
-0.037
-0.034
-0.014
-0.016
-0.102
0.012
-0.037
0.060
0.015
-0.071
-0.046
0.065
0.014
-0.049
0.092
0.038
-0.027
-0.011
0.041
-0.089
-0.049
-0.041
-0.089
0.003
0.036
0.054
0.000
-0.077
-0.069
-0.085
0.006
-0.035
-0.051
-0.022
-0.009
0.065
-0.056
-0.061
-0.004
0.004
-0.087
0.027
-0.014
0.069
-0.071
-0.044
0.015
-0.074
0.077
-0.073
-0.037
-0.013
0.023
-0.070
-0.088
0.019
0.057
-0.080
-0.027
-0.005
0.012
0.036
-0.034
-0.020
-0.064
0.074
-0.024
-0.024
-0.007
-0.188
0.029
-0.018
-0.095
0.076
0.067
0.029
-0.011
-0.030
-0.069
-0.019
-0.116
-0.082
-0.013
0.028
0.014
-0.033
-0.064
-0.073
-0.002
-0.015
0.071
-0.014
0.015
-0.118
-0.074
-0.063
-0.113
-0.027
0.026
0.108
0.059
0.021
-0.069
-0.059
0.068
-0.085
0.077
0.003
0.030
-0.096
-0.027
-0.018
0.017
0.010
-0.063
-0.131
0.071
-0.020
-0.026
-0.090
0.042
-0.084
-0.104
-0.002
0.001
-0.033
0.000
0.108
0.204
0.042
-0.242
-0.137
-0.205
-0.053
-0.061
0.226
0.051
-0.452
-0.023
0.270
0.148
0.035
-0.067
-0.152
-0.154
-0.127
0.033
-0.013
0.144
0.097
0.074
-0.042
-0.045
-0.045
0.116
-0.076
-0.128
-0.068
0.046
0.176
-0.089
-0.120
-0.050
-0.056
0.001
0.046
-0.050
-0.079
-0.014
-0.015
-0.071
0.027
-0.007
-0.114
-0.044
-0.011
0.015
0.110
-0.035
0.011
0.030
-0.113
-0.085
-0.000
-0.037
0.006
-0.015
0.003
-0.149
-0.140
-0.013
0.041
0.092
0.030
-0.067
-0.094
-0.045
-0.009
0.015
-0.068
-0.008
-0.051
-0.029
0.023
-0.060
0.066
-0.083
0.025
-0.124
-0.072
-0.020
-0.053
-0.008
-0.052
0.016
-0.096
-0.016
0.050
0.020
-0.067
-0.087
0.034
-0.097
0.096
-0.000
0.103
-0.009
0.039
-0.078
-0.152
0.021
-0.028
-0.073
-0.096
-0.052
0.052
0.009
-0.044
-0.172
0.016
-0.039
-0.023
-0.073
0.034
0.013
0.032
-0.051
0.002
0.052
-0.096
0.039
-0.105
0.047
0.034
-0.038
0.079
0.144
-0.140
-0.043
-0.147
-0.012
0.007
-0.004
0.003
-0.075
0.019
-0.044
-0.090
0.047
0.039
0.080
-0.033
-0.049
-0.077
0.052
-0.077
-0.005
0.015
0.033
0.097
-0.128
-0.046
0.011
-0.053
-0.014
0.002
0.019
-0.059
-0.064
0.033
0.032
-0.002
-0.038
-0.079
-0.137
0.001
-0.044
-0.003
0.059
0.023
-0.086
-0.043
-0.100
-0.030
0.039
-0.029
0.027
-0.025
0.123
0.012
-0.090
-0.081
0.141
-0.306
-0.362
0.145
0.185
0.056
-0.021
-0.001
-0.033
-0.088
0.073
0.027
-0.024
-0.209
-0.258
0.040
0.117
0.176
0.074
0.052
-0.110
-0.265
-0.054
-0.083
-0.084
0.040
0.005
0.087
-0.029
0.040
0.092
0.037
0.068
-0.093
-0.123
-0.121
-0.017
-0.006
0.011
0.026
-0.116
-0.077
-0.044
-0.034
-0.040
-0.025
0.017
0.058
-0.066
-0.022
-0.028
-0.026
0.016
0.031
0.015
-0.079
0.057
0.036
-0.089
0.012
0.033
-0.016
-0.109
-0.068
0.055
0.026
-0.058
-0.074
-0.014
0.059
0.102
-0.023
-0.113
-0.091
0.002
0.053
0.045
-0.034
0.031
-0.070
-0.082
0.012
-0.026
-0.022
0.124
-0.052
-0.028
-0.008
-0.030
-0.024
0.078
-0.011
0.018
-0.071
0.025
0.015
-0.020
-0.045
-0.096
0.062
-0.093
-0.063
-0.004
0.002
-0.067
0.034
0.078
-0.075
-0.143
-0.107
0.044
-0.007
-0.024
0.045
0.003
-0.021
-0.003
-0.057
-0.094
0.009
0.023
-0.079
-0.063
0.000
0.076
-0.048
0.000
-0.101
0.093
0.024
0.059
-0.072
-0.029
0.049
0.168
-0.062
-0.141
-0.322
-0.021
0.002
0.104
0.207
-0.015
-0.136
0.000
-0.591
-0.249
0.200
0.215
0.180
-0.017
0.052
-0.041
-0.042
-0.094
-0.001
-0.014
-0.027
0.010
0.020
0.006
-0.037
-0.062
0.089
-0.067
-0.058
0.040
-0.000
-0.024
-0.001
-0.100
-0.046
0.001
-0.075
-0.023
0.033
-0.027
0.056
0.001
-0.141
-0.135
0.023
-0.094
-0.045
0.085
-0.033
-0.055
-0.084
-0.005
-0.022
0.007
0.000
0.018
-0.018
0.016
-0.053
-0.097
0.012
0.061
-0.001
0.005
-0.077
0.012
0.033
-0.099
-0.109
-0.059
0.096
0.030
-0.042
0.027
-0.036
0.087
0.142
-0.054
-0.094
-0.113
-0.146
-0.021
0.049
0.154
0.060
-0.063
-0.004
-0.143
-0.038
-0.028
-0.124
-0.011
0.000
0.055
-0.042
0.066
-0.001
-0.016
-0.195
-0.055
0.056
0.067
0.044
0.004
0.082
-0.099
-0.041
-0.002
-0.028
-0.018
-0.046
-0.036
-0.041
0.059
0.024
-0.026
-0.065
-0.055
-0.020
-0.019
-0.038
-0.065
-0.080
-0.045
0.006
0.020
-0.072
0.054
0.049
0.019
-0.059
-0.022
-0.049
0.062
0.041
-0.038
-0.020
0.011
0.037
0.016
-0.029
-0.056
-0.013
-0.065
0.051
0.031
-0.016
-0.001
-0.040
0.030
0.036
-0.052
-0.112
0.065
0.290
-0.601
-0.149
-0.049
0.015
0.066
0.144
-0.017
-0.038
-0.173
0.002
-0.162
-0.018
0.020
-0.073
0.061
-0.020
0.021
0.008
0.082
0.116
0.038
-0.019
-0.157
-0.068
-0.086
-0.017
0.010
0.021
-0.046
-0.014
-0.018
-0.035
-0.070
0.022
-0.041
-0.001
-0.008
0.016
0.013
0.013
-0.012
-0.135
-0.062
0.042
-0.003
0.086
-0.065
-0.115
-0.066
0.047
-0.033
-0.004
-0.143
-0.021
-0.078
0.049
-0.036
-0.022
-0.016
-0.016
-0.002
0.036
-0.039
-0.004
0.042
0.089
-0.137
-0.033
0.024
-0.076
-0.018
0.008
0.015
-0.001
0.067
0.008
-0.090
-0.150
-0.093
-0.021
-0.041
-0.020
-0.027
-0.123
0.036
-0.039
-0.070
-0.018
-0.019
-0.070
-0.043
0.055
0.031
0.014
0.080
-0.062
-0.113
-0.027
-0.017
-0.013
0.085
0.005
-0.001
-0.093
-0.022
0.068
-0.071
0.002
-0.023
-0.016
-0.063
-0.038
-0.106
-0.078
-0.044
-0.006
0.056
-0.029
-0.074
0.013
-0.024
-0.039
-0.130
-0.029
-0.048
0.120
0.146
-0.135
-0.219
-0.296
-0.107
0.043
0.164
0.168
0.006
-0.051
-0.133
-0.100
-0.099
-0.051
-0.046
0.066
0.018
0.013
0.019
-0.002
0.056
0.038
-0.101
-0.069
-0.043
-0.028
0.012
0.033
-0.054
-0.076
-0.112
-0.042
-0.021
0.001
0.040
-0.060
-0.059
-0.059
-0.007
0.089
0.119
-0.031
-0.078
0.124
-0.534
-0.382
0.161
0.265
0.086
-0.033
-0.063
-0.180
-0.147
-0.041
-0.026
-0.054
0.015
0.049
0.059
0.050
-0.003
0.033
0.135
-0.094
-0.092
-0.171
-0.044
0.055
0.062
0.045
-0.020
-0.119
-0.151
-0.019
-0.046
0.102
0.042
-0.030
-0.092
-0.066
0.073
0.055
-0.101
-0.088
0.074
-0.032
-0.057
0.045
-0.060
-0.073
-0.019
0.016
0.008
-0.014
0.029
-0.042
-0.051
-0.034
0.005
-0.072
-0.026
-0.008
-0.034
0.023
-0.019
-0.029
0.007
0.069
-0.043
-0.179
0.019
-0.068
-0.001
0.064
0.023
0.020
0.004
-0.007
0.048
-0.046
-0.129
-0.099
0.005
0.155
0.004
0.035
-0.070
-0.052
-0.020
-0.163
-0.031
0.047
-0.044
0.030
0.016
-0.026
0.009
-0.011
-0.022
-0.092
0.013
-0.042
-0.079
0.003
-0.038
-0.012
-0.011
0.037
0.200
-0.049
-0.188
-0.198
-0.333
-0.032
0.221
0.046
0.257
-0.038
-0.086
-0.150
-0.069
-0.106
-0.061
-0.023
-0.046
0.102
-0.023
0.053
0.031
0.026
-0.051
-0.071
0.119
-0.097
-0.015
-0.030
0.028
-0.083
-0.042
-0.072
-0.013
-0.064
-0.072
-0.030
-0.004
-0.003
-0.005
0.056
0.003
-0.021
-0.097
-0.025
0.101
-0.012
-0.081
0.005
0.030
-0.090
-0.062
0.016
0.035
0.046
-0.070
0.033
0.065
-0.571
-0.211
0.184
0.321
-0.012
-0.059
0.046
-0.069
-0.147
-0.048
-0.046
0.035
-0.019
0.053
0.087
0.034
0.025
-0.015
-0.065
0.065
-0.084
0.013
-0.025
-0.047
-0.155
0.014
0.042
0.036
0.019
-0.025
-0.069
-0.059
0.007
0.044
-0.025
-0.033
-0.058
-0.119
0.009
0.033
-0.022
0.086
0.038
-0.016
-0.024
-0.076
-0.061
-0.059
-0.082
-0.011
-0.071
0.054
0.028
0.039
-0.061
-0.054
-0.041
-0.029
-0.124
-0.027
-0.010
0.047
0.002
-0.022
-0.007
-0.056
-0.061
0.047
-0.088
-0.013
-0.035
-0.082
-0.053
0.044
0.059
0.141
-0.016
-0.125
-0.077
0.116
0.011
-0.112
-0.009
0.027
-0.023
-0.053
-0.079
-0.093
0.030
-0.070
-0.035
0.075
-0.090
-0.121
0.040
0.045
-0.053
0.042
-0.019
0.038
-0.041
0.017
-0.016
0.145
-0.021
-0.150
-0.053
-0.264
-0.163
0.122
0.180
0.043
0.083
-0.027
-0.081
-0.111
-0.129
0.036
-0.052
0.088
0.029
0.010
0.012
-0.000
-0.025
-0.001
-0.040
0.011
-0.046
-0.022
0.017
-0.078
0.011
0.081
-0.084
0.015
-0.010
0.052
-0.109
0.041
-0.051
-0.045
-0.109
0.018
0.093
0.019
0.046
-0.137
-0.077
0.011
-0.033
-0.040
-0.044
-0.023
0.052
0.022
-0.006
-0.024
-0.045
0.006
0.001
0.043
-0.012
0.004
0.016
0.030
-0.005
-0.095
0.005
0.112
-0.074
-0.077
0.203
-0.517
-0.212
0.159
0.234
0.105
-0.072
-0.033
-0.071
-0.068
-0.045
-0.127
-0.080
0.110
0.034
0.085
-0.049
-0.083
-0.060
-0.041
-0.005
-0.054
-0.043
-0.056
0.056
-0.007
-0.004
-0.028
0.054
-0.073
0.065
-0.115
0.039
-0.006
0.080
0.061
0.014
-0.029
-0.056
-0.150
-0.021
0.022
0.016
-0.009
0.026
0.008
-0.068
-0.003
-0.008
0.070
-0.068
-0.020
-0.085
-0.021
0.009
0.047
-0.048
0.008
-0.117
0.067
-0.032
-0.118
-0.042
-0.048
0.065
-0.011
-0.045
-0.079
0.017
-0.095
-0.020
0.070
0.035
-0.002
-0.082
-0.054
-0.035
0.028
0.005
-0.064
-0.085
0.032
-0.004
0.033
0.019
0.042
0.049
-0.061
-0.063
-0.026
-0.113
0.174
0.196
0.105
-0.173
-0.159
-0.391
-0.085
0.166
0.053
0.044
-0.082
-0.099
-0.158
-0.095
0.079
-0.103
-0.028
-0.073
0.116
0.002
0.026
0.079
0.037
-0.008
-0.040
-0.088
-0.068
0.008
-0.088
-0.070
-0.001
0.023
-0.045
-0.169
-0.004
-0.098
0.075
0.101
0.065
0.022
-0.105
-0.139
-0.039
-0.031
0.059
0.029
-0.053
-0.000
-0.142
-0.006
-0.029
0.029
0.069
-0.037
-0.172
-0.051
-0.014
0.035
0.039
0.021
-0.091
-0.057
-0.000
0.076
-0.056
-0.073
-0.092
0.048
0.097
0.054
0.010
-0.125
-0.107
-0.023
0.099
0.026
-0.062
-0.002
-0.058
-0.041
-0.067
-0.047
0.026
0.122
-0.057
-0.027
-0.003
0.055
-0.046
-0.075
-0.000
0.035
0.036
0.002
0.094
-0.021
-0.127
0.005
0.116
-0.525
-0.250
0.185
0.305
0.103
0.018
-0.117
-0.179
-0.094
-0.060
0.004
-0.013
-0.012
-0.018
0.034
-0.002
0.019
0.047
-0.114
-0.059
-0.044
-0.048
0.033
0.094
0.002
-0.027
0.008
-0.066
-0.013
-0.045
0.092
0.013
0.004
-0.030
-0.079
0.006
0.011
-0.018
-0.053
-0.052
-0.039
0.073
-0.071
0.064
0.008
-0.033
0.009
-0.089
-0.053
-0.071
0.039
0.016
0.053
0.036
-0.136
-0.108
-0.065
0.046
-0.070
-0.002
-0.083
0.021
-0.048
-0.020
0.015
-0.064
-0.043
-0.022
-0.015
0.019
0.059
-0.004
0.071
0.004
-0.047
0.023
0.003
-0.063
-0.117
-0.065
-0.057
0.058
0.004
0.052
-0.029
-0.055
0.025
0.101
-0.053
-0.133
-0.108
-0.053
-0.021
0.011
-0.013
0.023
0.037
-0.044
-0.081
-0.118
0.057
0.043
0.145
0.116
-0.120
-0.204
-0.372
-0.025
0.165
0.116
0.166
0.054
-0.031
-0.100
-0.059
-0.163
-0.110
-0.008
0.095
0.057
-0.072
0.041
-0.036
-0.106
0.012
-0.034
0.019
-0.134
-0.048
-0.061
-0.049
0.040
-0.019
0.009
0.054
0.016
-0.144
-0.028
0.053
0.022
0.045
0.044
0.033
-0.026
0.003
-0.111
-0.011
-0.067
0.022
0.011
-0.087
-0.050
0.111
-0.047
-0.026
-0.007
-0.023
-0.034
-0.071
0.030
0.021
-0.034
-0.019
-0.009
-0.046
-0.010
0.013
-0.059
-0.061
-0.035
0.056
0.021
-0.075
0.027
-0.015
-0.179
0.033
0.010
0.016
0.092
-0.102
0.009
-0.019
-0.026
-0.089
-0.037
0.103
-0.008
0.079
-0.034
-0.050
0.112
-0.515
-0.048
0.249
0.169
0.047
-0.052
-0.099
-0.039
-0.083
-0.080
0.005
-0.029
-0.041
0.006
0.001
0.038
0.020
0.029
0.017
-0.069
-0.187
-0.016
0.023
-0.003
-0.025
0.033
-0.035
0.036
-0.029
0.033
-0.053
-0.033
-0.049
-0.006
0.022
-0.032
-0.116
0.049
-0.023
-0.067
0.041
-0.034
-0.016
-0.017
0.102
-0.067
-0.098
-0.085
0.020
0.091
0.070
-0.027
-0.144
-0.033
-0.044
0.024
0.014
-0.001
-0.060
0.068
0.035
-0.059
0.049
-0.115
-0.076
0.047
0.069
-0.020
-0.023
-0.062
-0.035
0.013
0.003
0.036
-0.052
0.007
-0.009
-0.100
-0.015
0.009
-0.019
-0.031
-0.045
-0.014
-0.055
-0.022
0.144
0.147
-0.039
-0.236
-0.335
-0.223
-0.005
0.230
0.093
0.055
-0.028
-0.062
-0.160
-0.032
-0.016
-0.011
-0.033
-0.021
0.030
0.042
0.054
0.002
-0.063
0.032
0.027
-0.068
-0.038
-0.050
0.036
-0.095
-0.032
-0.034
-0.071
-0.025
0.034
0.000
-0.012
-0.116
0.003
0.028
-0.025
-0.019
-0.074
-0.068
-0.015
0.032
-0.005
-0.075
-0.027
-0.005
-0.047
-0.011
-0.039
-0.001
-0.101
0.018
0.038
-0.053
-0.062
0.047
0.011
0.089
0.006
-0.108
-0.170
-0.123
0.025
0.040
0.007
0.048
0.011
-0.062
-0.057
-0.065
0.017
-0.002
-0.001
0.026
0.002
0.038
-0.062
0.044
-0.059
-0.032
-0.076
0.063
-0.043
0.050
0.068
0.000
-0.127
-0.058
-0.051
-0.062
-0.016
0.007
-0.026
0.051
-0.012
-0.040
-0.101
-0.087
-0.055
0.028
0.011
0.052
-0.106
-0.037
-0.055
0.108
-0.134
0.025
0.156
-0.041
-0.051
-0.072
0.015
-0.099
0.061
-0.036
-0.070
-0.003
-0.069
-0.004
0.003
0.061
0.075
0.094
-0.035
-0.181
-0.020
0.065
-0.541
-0.031
0.259
0.170
0.091
0.045
-0.096
-0.175
-0.075
0.026
0.021
0.087
-0.022
-0.061
-0.098
-0.056
0.030
-0.019
-0.022
0.021
-0.015
-0.101
-0.055
-0.094
0.057
-0.053
0.038
0.091
-0.044
-0.065
0.018
0.044
-0.002
0.013
-0.058
-0.016
-0.027
-0.038
0.050
0.083
-0.095
-0.130
0.020
-0.070
0.014
0.040
-0.020
-0.040
-0.071
-0.001
-0.016
-0.024
-0.105
0.021
0.056
0.009
-0.043
-0.016
-0.045
0.156
0.161
-0.174
-0.087
-0.331
-0.167
0.193
0.175
0.118
0.041
-0.057
-0.105
-0.191
-0.105
-0.043
-0.063
0.074
0.014
-0.002
0.002
0.007
0.051
0.047
-0.065
-0.015
-0.056
-0.021
0.011
-0.046
-0.094
0.015
-0.047
0.119
-0.030
-0.025
-0.031
-0.090
-0.112
0.068
-0.014
-0.056
-0.042
-0.044
0.015
-0.050
-0.181
-0.079
-0.013
0.055
-0.022
-0.084
-0.041
0.030
-0.001
0.010
0.132
0.014
-0.146
0.039
-0.036
-0.135
-0.019
-0.075
0.038
0.100
-0.003
-0.024
-0.123
-0.010
-0.025
-0.050
-0.016
0.069
0.026
0.002
-0.060
-0.015
-0.064
-0.038
0.014
-0.016
0.054
-0.130
-0.029
-0.088
-0.070
-0.107
0.020
0.033
0.028
-0.007
-0.143
0.079
0.018
-0.019
-0.033
-0.037
0.009
-0.035
-0.014
-0.054
-0.039
-0.035
0.060
-0.020
0.020
-0.090
-0.080
0.039
0.078
0.016
-0.147
-0.086
-0.041
-0.032
0.053
-0.016
-0.092
0.010
-0.111
0.002
-0.057
-0.003
-0.055
0.065
-0.025
-0.002
-0.028
-0.083
-0.019
0.073
0.018
-0.008
0.014
0.007
-0.012
-0.090
-0.014
0.009
-0.025
-0.000
-0.075
-0.036
0.009
-0.079
0.029
0.079
0.008
0.016
-0.084
-0.141
-0.020
-0.045
0.041
0.038
-0.040
0.035
-0.062
-0.011
0.003
-0.134
-0.042
0.031
0.034
-0.027
-0.043
-0.020
-0.068
-0.037
0.001
-0.102
0.104
0.175
0.024
-0.130
0.156
-0.589
-0.175
0.111
0.196
0.202
0.142
-0.167
-0.155
-0.121
-0.037
-0.059
0.022
0.222
0.149
0.093
-0.151
-0.209
-0.263
0.052
0.134
0.122
0.081
-0.052
-0.187
-0.149
-0.079
-0.045
-0.054
0.019
0.039
0.049
0.036
0.087
-0.054
-0.033
-0.052
-0.128
0.024
0.015
-0.004
-0.111
-0.021
-0.005
0.078
-0.019
-0.077
-0.102
-0.056
-0.094
-0.008
0.090
0.075
-0.040
-0.076
-0.070
-0.052
-0.043
0.117
0.034
-0.047
-0.094
-0.082
0.111
-0.074
-0.002
0.016
0.039
-0.097
-0.065
0.088
0.074
-0.092
-0.062
-0.044
-0.127
-0.056
0.002
0.013
0.121
-0.100
-0.017
-0.092
-0.061
0.035
-0.035
0.012
-0.069
0.049
-0.060
-0.069
-0.081
0.042
0.090
0.011
-0.079
-0.075
-0.106
0.047
0.010
0.032
0.053
0.001
-0.043
-0.085
-0.038
-0.018
-0.072
0.013
0.018
-0.130
0.024
-0.004
0.002
0.004
0.037
0.010
0.042
-0.041
-0.102
-0.068
-0.041
-0.033
0.032
0.102
-0.003
0.009
-0.079
-0.150
-0.004
-0.005
0.116
-0.029
0.039
-0.128
-0.061
-0.053
0.058
0.036
-0.043
0.044
0.005
-0.134
-0.023
-0.040
-0.001
-0.118
-0.086
-0.051
-0.065
-0.018
0.046
0.074
-0.091
0.095
-0.007
0.019
-0.039
-0.058
-0.048
0.010
-0.001
-0.059
0.024
0.010
-0.067
0.001
-0.070
-0.023
-0.045
-0.011
-0.057
-0.061
0.061
-0.056
-0.015
-0.001
0.046
0.033
-0.110
-0.007
-0.104
0.095
0.099
-0.060
-0.076
-0.031
-0.041
0.024
-0.085
-0.004
-0.077
-0.114
0.009
0.031
0.038
-0.021
-0.072
-0.026
0.010
0.062
-0.001
0.003
-0.026
-0.077
0.051
-0.004
-0.054
-0.010
0.013
0.012
-0.153
-0.011
0.041
-0.025
0.077
-0.020
-0.142
-0.059
0.023
-0.010
0.043
0.055
-0.061
0.079
0.096
-0.004
-0.141
-0.174
-0.277
-0.081
0.162
0.204
0.009
0.095
0.017
-0.180
-0.166
-0.058
0.083
0.007
0.035
0.026
0.055
0.022
-0.004
0.017
-0.004
-0.034
0.054
0.081
-0.010
-0.091
-0.140
-0.051
0.007
0.058
-0.063
-0.065
0.009
-0.076
0.096
-0.024
0.005
-0.067
0.013
-0.053
-0.003
-0.060
-0.005
-0.007
-0.041
0.119
0.060
0.039
-0.104
-0.066
0.026
-0.045
-0.052
-0.065
0.022
0.131
-0.070
-0.208
0.079
0.174
-0.612
-0.140
0.181
0.308
0.049
-0.072
-0.160
-0.118
-0.000
-0.028
-0.030
-0.041
-0.047
0.016
0.074
0.023
0.054
0.008
-0.015
-0.073
-0.041
-0.158
-0.042
-0.028
0.037
-0.040
-0.031
0.051
0.017
0.015
-0.088
0.013
0.050
-0.092
-0.122
0.027
0.028
-0.012
-0.057
0.002
0.021
-0.047
-0.017
-0.109
-0.028
-0.020
0.039
-0.005
-0.061
-0.146
-0.019
-0.037
0.116
-0.061
0.029
-0.057
-0.023
0.062
-0.051
-0.062
-0.026
-0.076
-0.007
0.088
-0.069
0.085
-0.036
-0.018
-0.104
0.019
0.084
0.005
-0.122
-0.032
0.023
0.058
-0.020
-0.115
-0.121
-0.031
0.010
-0.056
0.074
0.009
-0.081
-0.128
0.072
-0.011
-0.024
-0.102
-0.117
-0.069
0.019
-0.018
-0.038
0.074
0.084
-0.073
0.042
-0.007
0.015
-0.138
0.047
0.041
-0.033
0.015
0.004
-0.095
-0.040
-0.059
0.030
-0.020
-0.042
0.055
-0.128
-0.088
-0.066
-0.091
0.021
-0.075
0.015
0.019
-0.012
-0.023
-0.069
-0.001
0.012
0.005
0.021
0.058
-0.098
0.020
-0.125
-0.076
-0.141
0.014
0.045
0.051
0.063
0.133
-0.097
-0.207
-0.121
-0.306
-0.033
0.186
0.173
0.067
0.043
-0.088
-0.091
-0.059
-0.086
-0.082
0.109
-0.065
-0.024
-0.062
-0.000
0.046
-0.085
0.105
-0.044
-0.032
-0.062
-0.050
-0.008
-0.120
-0.041
0.086
-0.015
-0.067
-0.051
0.077
-0.043
-0.052
-0.013
-0.081
-0.077
-0.106
0.119
0.156
-0.058
-0.101
-0.028
-0.010
-0.001
-0.107
0.007
0.054
-0.069
-0.101
-0.007
-0.032
-0.007
-0.025
0.035
-0.012
-0.087
-0.070
-0.072
-0.000
-0.211
-0.028
0.192
0.071
-0.001
-0.142
-0.041
-0.248
-0.439
0.075
0.350
0.185
0.050
-0.086
-0.097
-0.053
-0.074
0.054
0.043
0.076
-0.076
-0.039
-0.009
-0.009
0.018
-0.050
0.013
-0.030
-0.109
-0.020
-0.095
-0.036
-0.039
-0.009
0.006
-0.048
0.018
-0.061
0.061
-0.039
-0.118
0.064
-0.026
-0.007
-0.040
-0.111
0.004
-0.015
0.012
0.041
0.000
-0.051
-0.009
-0.006
0.041
0.027
0.042
0.076
-0.043
-0.120
-0.051
0.023
0.043
-0.059
-0.026
-0.091
0.068
-0.059
0.036
0.055
-0.012
-0.042
-0.097
0.018
-0.074
0.008
0.015
0.080
0.034
-0.029
-0.049
-0.029
-0.037
-0.063
-0.107
-0.012
0.040
-0.008
0.012
-0.083
-0.016
0.073
-0.050
-0.003
0.040
-0.087
0.006
-0.001
-0.052
0.065
-0.015
-0.103
-0.015
-0.003
-0.080
-0.007
0.002
-0.003
0.040
-0.035
-0.055
-0.032
0.003
-0.069
-0.019
-0.058
0.046
0.020
-0.009
-0.078
-0.021
-0.018
0.049
0.139
0.049
-0.126
-0.257
-0.381
0.007
0.138
0.169
0.152
-0.084
-0.131
-0.121
-0.081
-0.143
-0.036
0.019
0.061
0.084
0.044
0.097
-0.030
-0.045
-0.081
0.074
0.033
-0.083
0.001
0.036
-0.042
-0.115
-0.027
-0.020
0.005
-0.017
-0.013
-0.048
-0.086
0.036
0.066
-0.061
-0.083
-0.080
-0.099
0.018
0.005
-0.074
-0.006
0.016
-0.036
-0.088
-0.005
0.083
0.104
-0.081
-0.040
0.145
-0.572
-0.254
0.134
0.326
0.221
0.062
-0.142
-0.170
-0.076
-0.064
-0.044
0.078
0.034
-0.063
0.078
0.089
0.127
-0.070
0.033
-0.169
-0.076
0.002
-0.099
-0.021
0.100
-0.065
-0.074
-0.030
-0.035
-0.088
0.004
-0.000
-0.091
0.013
-0.083
-0.013
-0.005
0.073
-0.057
-0.087
0.025
0.018
-0.000
-0.040
-0.040
-0.093
-0.002
0.055
0.019
-0.009
-0.076
0.035
-0.075
0.007
-0.019
0.086
0.009
0.039
-0.124
-0.062
-0.060
-0.047
-0.037
0.038
-0.020
0.051
-0.039
-0.052
-0.068
0.020
0.002
-0.052
-0.013
-0.020
0.012
0.021
-0.122
0.046
0.153
0.091
-0.143
-0.245
-0.325
-0.041
0.114
0.161
0.112
0.061
0.030
-0.228
-0.169
0.009
-0.015
-0.008
-0.007
0.022
0.103
0.027
-0.073
0.059
0.006
0.007
-0.094
-0.056
-0.029
-0.004
-0.086
-0.087
-0.106
0.068
0.007
-0.027
-0.053
-0.102
-0.027
0.034
-0.004
-0.023
0.010
0.025
-0.009
-0.019
-0.094
-0.091
0.054
-0.058
-0.009
-0.049
-0.016
-0.020
-0.074
0.031
-0.010
-0.090
-0.011
-0.047
-0.026
0.054
-0.058
0.010
-0.002
-0.099
-0.013
-0.083
-0.096
-0.036
0.052
-0.019
-0.041
0.061
-0.006
-0.026
-0.064
0.008
-0.034
0.010
-0.067
0.021
-0.000
0.022
-0.114
0.028
-0.029
-0.004
-0.095
0.033
-0.039
-0.005
-0.093
-0.077
-0.145
0.041
0.029
-0.010
-0.003
-0.005
-0.030
-0.117
-0.078
-0.030
0.028
-0.042
-0.042
0.032
-0.012
-0.062
0.001
-0.049
-0.074
0.045
-0.007
0.054
-0.131
0.066
-0.034
-0.103
0.006
-0.043
0.013
0.013
0.056
-0.029
0.173
-0.016
-0.108
0.031
0.102
-0.569
-0.029
0.110
0.194
0.076
0.036
-0.059
-0.139
-0.083
-0.025
0.031
0.026
0.001
-0.110
0.048
0.130
-0.020
0.002
-0.030
-0.054
-0.018
-0.099
-0.065
-0.015
-0.050
0.032
0.163
-0.014
-0.140
-0.283
-0.193
-0.058
0.077
0.115
0.148
0.113
-0.073
-0.152
-0.044
0.001
-0.133
-0.030
0.046
0.111
-0.045
-0.018
-0.023
-0.015
0.089
-0.032
-0.059
0.048
-0.108
-0.072
-0.040
-0.017
-0.043
-0.091
0.017
0.015
0.018
-0.008
-0.004
0.064
-0.074
-0.004
-0.057
0.015
0.020
-0.113
0.046
0.015
0.005
-0.030
-0.064
-0.024
0.053
-0.002
0.034
-0.146
-0.028
-0.102
-0.020
-0.034
-0.018
-0.044
-0.039
-0.113
-0.049
0.025
-0.003
0.023
0.011
-0.100
-0.055
0.027
0.035
-0.023
-0.027
-0.049
0.055
-0.035
-0.056
0.006
-0.007
-0.048
0.050
-0.024
0.014
-0.002
0.047
0.023
0.071
-0.023
0.015
-0.022
-0.103
0.086
-0.074
0.155
0.046
-0.048
-0.018
-0.020
-0.106
-0.041
0.036
-0.025
-0.091
-0.061
-0.045
0.016
-0.009
-0.064
0.001
-0.079
0.026
-0.035
-0.145
0.023
-0.026
0.064
0.051
0.032
-0.075
-0.068
0.028
0.077
-0.062
-0.092
-0.044
-0.046
-0.026
-0.002
0.055
-0.035
-0.049
-0.015
0.019
-0.117
0.101
0.067
-0.061
-0.078
0.049
0.134
-0.014
-0.010
0.194
0.099
-0.099
-0.293
-0.376
-0.103
0.219
0.100
0.106
0.050
-0.080
-0.066
-0.098
-0.107
-0.153
-0.050
-0.041
0.062
0.032
0.024
-0.098
-0.015
0.003
0.016
0.031
-0.081
-0.018
0.128
0.008
-0.192
-0.112
0.207
-0.477
-0.223
0.250
0.170
0.087
-0.016
-0.093
-0.103
-0.177
0.021
0.060
0.046
-0.065
0.053
0.074
0.050
-0.035
-0.011
-0.047
-0.059
0.019
-0.014
0.009
-0.126
-0.060
0.029
0.043
0.090
-0.104
-0.104
-0.039
0.008
-0.098
-0.013
0.048
0.034
0.002
-0.089
-0.017
-0.032
-0.113
0.015
-0.056
-0.118
0.039
-0.050
-0.050
-0.003
0.026
-0.031
-0.048
-0.062
-0.072
-0.003
0.115
0.057
-0.061
-0.082
-0.090
-0.002
-0.027
0.030
0.050
-0.087
-0.007
-0.069
0.080
-0.065
-0.056
0.025
-0.093
-0.068
0.035
0.039
0.061
-0.047
-0.052
-0.170
-0.049
0.012
0.126
0.004
-0.164
-0.079
-0.006
-0.042
