-0.097
0.095
-0.085
0.004
-0.092
-0.046
-0.126
0.019
-0.140
-0.664
-1.813
0.365
2.192
3.212
1.675
-2.602
0.765
2.294
-2.155
2.356
3.742
4.061
3.308
-0.707
-3.590
-3.562
-2.113
0.307
2.530
3.716
4.011
4.010
3.704
2.987
1.696
0.560
-0.533
-1.331
-1.807
-2.015
-2.026
-1.806
-1.195
-0.895
-0.589
-0.154
0.215
0.421
0.709
0.890
0.720
0.816
0.903
0.672
0.934
0.740
0.713
0.754
0.739
0.772
0.915
0.851
0.923
0.846
0.922
0.894
0.901
0.910
0.776
0.747
0.730
0.808
0.532
0.403
-0.207
-1.956
-1.281
1.510
2.033
1.283
0.314
-0.133
-0.360
-0.592
-0.234
0.166
0.301
0.341
0.401
0.355
0.339
0.045
-0.038
-0.191
-0.409
-0.648
-0.611
-0.617
-0.732
-0.582
-0.677
-0.505
-0.491
-0.331
-0.422
-0.451
-0.330
-0.375
-0.431
-0.338
-0.345
-0.346
-0.290
-0.141
-0.247
-0.420
-0.241
-0.175
-0.138
-0.230
0.014
-0.100
0.119
-0.016
-0.112
-0.017
0.023
0.092
0.087
-0.025
-0.004
-0.832
-3.167
-3.902
-4.012
2.339
-0.448
-2.858
1.747
4.189
4.827
0.214
-2.922
-3.813
-2.530
2.429
4.263
4.660
4.631
4.457
4.233
4.027
3.796
3.053
0.159
-2.838
-4.727
-5.319
-5.330
-5.154
-4.491
-3.421
-2.336
-1.148
-0.242
0.584
1.009
1.141
1.224
1.004
0.808
0.570
0.376
0.234
0.089
-0.005
-0.142
0.101
-0.002
0.084
0.239
0.180
0.250
0.202
0.154
0.315
0.226
0.244
0.226
0.326
0.170
0.083
0.058
0.138
0.042
0.018
0.030
0.001
-0.035
-0.096
-0.034
-0.161
-0.086
-0.169
-0.210
-0.239
-0.102
-0.243
-0.256
-0.217
-0.271
-0.388
-0.304
-0.207
-0.281
-0.427
-0.320
-0.235
-0.302
-0.460
-0.328
-0.269
-0.168
-0.360
-0.290
-0.282
-0.229
-0.158
-0.242
-0.244
-0.106
-0.265
-0.106
-0.091
-0.162
-0.171
-0.079
-0.048
-0.016
-0.067
-0.100
-0.121
0.125
-0.063
0.096
0.096
0.030
0.069
0.177
0.165
0.237
0.025
0.116
0.121
0.092
0.133
0.184
0.193
0.162
0.095
0.204
0.234
0.170
0.125
0.169
-0.001
0.205
0.181
0.063
0.170
0.152
0.090
-0.077
0.060
0.061
0.155
-0.009
0.052
0.149
0.042
-0.054
-0.152
-0.008
0.012
0.050
0.094
0.009
-0.128
-0.158
-0.042
-0.005
-0.059
0.055
-0.096
-0.072
-0.037
-0.115
0.027
-0.145
-0.129
0.021
0.002
0.004
-0.012
-0.001
-0.041
-0.111
-0.027
-0.070
-0.023
-0.038
-0.195
0.076
-0.002
-0.105
-0.003
-0.108
-0.095
0.034
0.003
-0.080
-0.046
-0.049
0.027
-0.234
-0.077
0.060
-0.075
-0.512
-0.373
-0.193
-0.193
-0.331
-0.198
0.327
0.221
0.054
-0.242
-0.241
-0.079
-0.020
0.285
0.370
0.337
0.320
0.149
0.197
0.089
0.054
0.261
0.252
0.019
-0.077
-0.065
-0.044
-0.016
-0.111
-0.022
0.103
-0.138
-0.079
-0.164
-0.028
0.101
-0.034
-0.029
-0.180
-0.171
-0.123
-0.086
0.120
-0.020
-0.025
0.020
0.122
0.044
-0.049
0.024
-0.132
-0.049
0.155
0.219
0.094
0.011
0.134
0.111
0.048
0.061
-0.064
-0.042
-0.060
0.096
0.188
0.149
0.181
0.134
0.210
0.184
0.078
0.122
0.101
0.171
0.221
0.050
0.187
0.102
-0.017
0.123
0.092
-0.031
0.107
0.015
-0.175
0.126
-0.049
-0.048
-0.040
-0.133
-0.019
-0.078
-0.235
-0.004
-0.021
-0.005
-0.029
0.031
0.037
-0.095
-0.142
-0.133
-0.111
0.056
0.044
0.029
0.014
0.043
0.028
0.162
0.283
0.202
0.206
0.252
0.103
0.070
0.044
0.203
0.249
0.273
0.216
0.100
0.073
-0.201
-0.118
-0.094
-0.080
-0.103
-0.099
-0.140
-0.089
-0.046
-0.039
0.020
-0.216
-0.184
-1.005
-1.926
-1.808
-0.499
3.188
4.246
4.448
1.840
-2.530
-3.184
-2.043
-0.649
0.824
2.065
3.126
3.586
3.563
0.315
2.888
3.447
2.031
0.359
-1.218
-1.995
-2.439
-1.929
-1.367
-0.709
-0.288
0.112
0.172
0.336
0.489
0.313
0.361
0.317
0.543
0.527
0.248
0.099
-0.117
0.101
-0.185
-2.897
-3.601
1.407
4.186
4.970
3.489
-1.761
-3.347
-3.749
-3.723
1.331
4.266
5.078
5.172
5.031
3.780
-0.734
2.934
3.966
4.148
4.092
2.919
-2.071
-4.364
-4.956
-3.666
-0.344
2.699
3.796
4.011
3.976
3.866
1.311
-1.765
2.020
3.171
2.852
-1.756
-4.338
-4.975
-4.940
-3.783
-1.886
0.138
2.562
3.655
3.960
3.619
2.989
2.061
1.298
0.643
-0.025
-0.434
-0.582
-0.575
-0.487
-0.355
-0.034
0.204
0.353
0.524
0.795
0.860
0.870
0.952
0.826
0.699
0.765
0.816
0.566
-1.951
-1.636
3.339
4.757
1.300
-2.414
2.099
4.135
4.601
2.681
-1.627
-3.729
-3.813
-0.029
3.188
4.063
4.181
4.039
1.992
-2.294
-2.935
0.268
2.476
2.398
0.464
-1.628
-3.179
-3.530
-3.070
-2.094
-1.182
-0.069
0.586
1.254
1.486
1.440
1.270
1.003
0.567
0.100
-0.034
-0.273
-0.401
-0.323
-0.412
-0.182
-0.100
-0.081
0.271
0.171
0.427
0.644
0.587
0.647
0.604
0.624
0.650
0.629
0.595
0.553
0.561
0.546
0.642
0.578
0.594
0.479
0.365
0.577
0.541
0.491
0.281
0.356
0.412
0.330
0.238
0.326
0.330
0.041
0.039
0.129
0.093
0.098
0.092
-0.032
-0.045
-0.040
-0.096
-0.194
-0.250
-0.159
-0.030
-0.176
-0.272
-0.183
-0.262
-0.082
-0.346
-0.246
-0.314
-0.168
-0.141
-0.208
-0.235
-0.118
-0.207
-0.295
-0.149
-0.056
-0.146
-0.135
-0.156
0.008
-0.017
-0.056
-0.050
-0.050
-0.022
0.042
-0.087
0.123
0.089
0.005
0.136
-0.004
-0.114
0.134
0.168
0.259
0.083
-0.089
0.067
0.115
0.177
0.086
0.093
0.036
0.079
0.083
0.143
0.085
0.187
0.044
-0.083
0.043
0.008
-0.102
0.101
-0.009
-0.157
-0.018
0.007
0.036
0.069
0.041
-0.008
0.138
-0.110
-0.069
-0.109
-0.061
0.161
-0.031
-0.154
-0.042
0.002
-0.131
-0.089
-0.081
0.051
-0.093
0.026
-0.041
-0.161
0.011
0.040
0.055
0.144
0.096
-0.030
0.009
0.009
-0.031
0.209
0.102
0.095
0.022
-0.113
0.074
0.159
0.186
0.142
-0.045
0.143
0.171
0.074
0.084
-0.023
0.088
0.157
0.167
0.099
0.002
0.071
-0.009
0.120
0.099
0.096
0.001
0.102
0.057
-0.006
-0.039
0.056
0.106
-0.037
-0.019
0.081
-0.124
-0.090
-0.098
0.005
-0.047
-0.169
0.011
-0.093
-0.007
-0.069
-0.106
-0.021
-0.010
-0.055
-0.032
-0.119
0.033
-0.075
0.021
-0.094
-0.068
-0.121
-0.027
0.016
-0.135
0.015
-0.013
-0.053
-0.016
0.045
-0.078
-0.061
0.004
0.023
0.002
0.075
-0.045
0.040
0.147
0.061
0.043
-0.018
0.230
0.094
0.098
0.026
0.138
0.081
0.052
0.129
0.070
0.009
0.118
0.132
0.017
0.052
0.040
0.054
0.064
-0.002
0.048
0.025
0.117
0.180
-0.033
0.054
0.008
0.031
0.007
0.063
0.022
0.030
0.051
0.038
-0.114
-0.088
0.017
-0.056
0.107
0.033
-0.091
0.097
-0.017
-0.034
-0.008
-0.020
0.026
0.027
0.131
-0.036
-0.070
0.049
-0.145
0.056
0.043
-0.108
-0.072
0.059
0.034
0.046
-0.048
-0.175
0.016
-0.054
0.043
-0.013
-0.003
0.042
-0.084
-0.065
0.116
0.010
-0.026
0.042
0.019
0.053
0.010
0.019
-0.028
0.097
-0.009
0.119
-0.041
-0.002
0.185
0.074
-0.039
-0.020
0.053
0.139
-0.060
0.054
0.017
-0.002
0.063
0.020
0.142
0.011
0.110
-0.006
0.061
0.015
-0.037
-0.055
0.036
-0.019
0.141
-0.055
0.126
0.039
-0.097
-0.039
-0.016
0.041
0.143
0.072
-0.023
0.038
0.045
0.015
0.003
-0.045
-0.051
0.011
0.157
0.020
-0.059
0.051
-0.131
0.144
0.009
0.014
0.090
-0.043
-0.003
-0.015
0.039
-0.042
0.083
-0.040
0.004
-0.025
0.054
0.091
-0.060
0.063
-0.080
0.010
-0.000
0.044
-0.003
0.089
-0.021
0.012
-0.172
0.064
0.099
0.079
0.042
-0.063
0.028
0.035
0.000
-0.038
0.125
-0.022
0.043
0.081
-0.156
0.026
0.063
0.111
0.054
0.019
-0.038
-0.076
-0.082
-0.051
0.091
0.139
-0.028
0.177
-0.066
-0.122
0.059
0.087
0.053
-0.039
0.010
0.079
0.020
0.097
0.024
0.145
0.042
0.111
-0.065
-0.040
-0.017
-0.058
-0.070
0.069
0.057
-0.011
0.040
-0.030
0.042
0.011
0.047
-0.019
0.059
0.062
0.059
0.085
-0.020
0.049
0.156
-0.075
0.032
0.045
-0.003
0.064
-0.059
0.024
0.043
-0.025
0.067
0.029
-0.015
-0.045
0.083
0.024
-0.013
0.020
0.010
0.027
0.118
0.047
-0.097
-0.113
0.087
0.096
0.071
0.012
-0.041
-0.068
-0.052
0.018
0.009
0.038
0.059
0.003
-0.019
0.114
-0.035
0.127
-0.078
0.064
-0.008
0.100
0.146
0.039
0.065
0.079
0.012
0.087
0.044
-0.052
-0.049
0.122
0.013
-0.070
0.046
0.108
0.058
0.048
-0.012
0.010
0.044
-0.086
-0.062
0.055
-0.041
-0.038
0.003
0.070
0.106
-0.077
-0.010
0.069
0.112
0.145
0.037
-0.013
-0.018
0.050
0.090
0.029
-0.007
-0.088
0.205
0.087
-0.020
-0.026
-0.027
0.028
0.111
-0.044
-0.014
0.052
0.039
0.140
-0.124
0.050
0.053
-0.010
0.050
-0.084
0.077
0.104
0.035
-0.020
0.063
-0.058
0.114
0.139
0.026
0.022
-0.118
0.052
0.039
0.017
-0.011
0.039
0.040
0.034
0.096
0.047
-0.031
0.010
-0.014
0.046
0.079
-0.007
0.075
-0.010
-0.070
0.033
-0.039
0.018
0.112
0.094
0.072
-0.022
-0.011
-0.075
-0.039
0.086
-0.030
0.167
0.005
-0.033
0.126
0.065
-0.192
-0.014
0.016
-0.088
0.011
0.129
0.063
0.093
0.111
-0.078
0.094
-0.028
-0.008
-0.002
0.113
0.171
0.001
0.057
-0.111
0.129
0.053
0.047
-0.031
0.002
0.138
0.073
-0.032
-0.052
0.127
0.010
-0.060
-0.043
0.047
0.037
0.052
0.052
0.042
0.008
-0.050
0.052
0.025
0.089
0.001
-0.051
-0.074
0.142
0.113
0.049
-0.011
-0.043
-0.060
0.125
-0.016
0.120
0.044
0.038
-0.005
-0.015
0.088
0.094
-0.023
0.049
-0.141
0.024
0.023
0.069
0.084
-0.150
0.061
0.093
-0.170
-0.011
0.050
-0.006
0.017
0.059
0.115
0.004
-0.054
0.048
0.011
-0.044
0.087
0.056
-0.039
0.032
0.040
0.035
0.031
-0.009
0.098
-0.005
-0.026
0.017
-0.052
0.040
0.196
0.015
-0.039
-0.054
-0.183
0.087
-0.053
0.122
0.035
0.002
-0.005
0.015
0.019
-0.048
0.012
-0.002
0.125
0.062
-0.085
-0.018
0.063
0.043
-0.186
-0.031
0.143
0.073
0.057
-0.065
0.035
-0.029
0.002
0.020
0.079
-0.004
-0.060
0.059
0.110
-0.071
-0.032
-0.033
0.153
-0.125
-0.054
0.016
-0.005
0.036
-0.017
0.030
0.078
0.106
0.026
0.004
0.075
0.032
-0.006
-0.010
-0.002
0.083
-0.033
0.010
0.026
-0.000
0.065
0.078
-0.038
0.020
0.039
0.073
0.002
0.077
-0.115
-0.047
0.026
0.018
0.156
-0.025
-0.009
0.009
0.091
0.113
0.079
0.000
0.028
-0.057
-0.163
0.050
0.050
0.045
0.013
-0.012
0.024
-0.039
-0.123
0.174
0.112
-0.008
-0.061
0.028
0.012
0.207
0.069
-0.099
0.055
0.008
0.186
0.072
-0.049
-0.028
-0.006
0.032
0.061
0.044
0.041
-0.011
-0.078
0.047
0.061
0.144
0.047
-0.009
0.021
-0.013
0.101
-0.017
-0.007
-0.082
-0.085
0.143
0.089
-0.124
0.019
0.072
0.047
0.105
0.012
0.104
-0.161
0.037
0.089
0.036
0.077
0.019
0.048
-0.026
-0.096
0.039
0.072
-0.061
0.070
0.122
0.003
-0.023
0.016
-0.029
-0.049
-0.054
0.010
-0.017
0.143
0.167
0.006
-0.077
-0.005
0.022
0.065
0.005
-0.019
0.119
0.102
0.026
-0.065
-0.028
0.135
0.063
-0.053
0.040
-0.125
-0.065
0.106
0.129
0.090
-0.035
0.052
0.078
-0.026
-0.063
0.008
0.089
0.007
-0.005
0.050
0.040
-0.012
-0.005
0.017
-0.029
0.061
0.053
0.046
-0.005
0.005
0.036
-0.046
0.014
0.171
-0.003
0.072
0.025
-0.020
0.138
-0.063
0.028
-0.085
0.070
0.109
0.042
-0.129
0.048
-0.029
0.068
0.113
0.026
0.036
0.006
0.017
0.105
0.128
-0.112
-0.049
0.091
0.011
0.009
0.043
-0.004
-0.096
0.011
0.069
0.099
0.003
0.112
0.022
-0.157
0.073
0.134
-0.011
-0.048
0.136
-0.039
-0.093
0.033
0.107
0.017
0.080
-0.028
0.061
-0.088
-0.122
0.067
0.137
0.079
-0.126
-0.009
-0.077
0.062
0.147
0.089
-0.033
-0.002
0.037
0.024
-0.140
0.035
-0.009
-0.037
0.054
0.089
0.042
0.062
0.047
0.090
-0.045
-0.006
0.003
-0.088
0.001
-0.070
-0.075
0.037
0.087
0.105
0.063
-0.078
0.042
0.011
0.037
0.036
-0.047
-0.017
0.039
0.008
0.161
0.005
-0.025
0.039
-0.033
0.016
0.057
-0.033
0.143
0.084
-0.085
0.059
-0.014
0.104
0.107
0.028
0.038
-0.047
-0.020
-0.088
0.042
-0.054
-0.027
0.132
0.079
-0.001
0.092
0.063
-0.041
0.011
0.042
0.092
-0.005
-0.015
0.055
0.018
-0.015
0.087
0.040
0.002
-0.011
-0.038
0.020
-0.033
0.087
0.019
0.162
0.021
-0.093
0.024
0.007
0.033
-0.024
0.144
0.077
0.002
-0.131
0.060
0.097
0.105
0.020
-0.041
0.050
0.034
-0.055
0.031
0.075
-0.103
0.020
-0.018
0.042
0.178
0.057
-0.065
-0.012
-0.041
-0.061
0.068
0.129
0.005
0.001
0.002
-0.129
0.045
0.087
0.023
0.075
0.036
0.007
0.044
-0.008
0.084
0.070
-0.001
-0.068
-0.014
-0.064
0.072
0.090
-0.055
0.010
-0.139
0.146
-0.005
-0.039
0.027
0.049
-0.019
0.047
0.053
0.043
-0.002
-0.039
-0.038
0.099
-0.084
0.044
0.112
0.100
-0.011
0.073
0.146
0.058
0.045
-0.092
-0.124
0.100
0.081
-0.004
-0.050
0.096
-0.005
0.055
-0.092
0.057
0.001
-0.015
0.010
0.213
0.064
-0.122
-0.032
0.093
-0.038
0.071
-0.016
0.041
0.075
0.077
0.183
-0.008
-0.112
-0.035
0.023
0.086
0.034
0.085
0.134
-0.023
-0.057
0.050
0.051
0.108
0.036
-0.038
-0.032
0.017
0.018
0.033
0.179
-0.025
-0.021
-0.003
0.045
0.034
0.032
0.104
-0.051
0.074
-0.004
0.040
-0.056
0.026
-0.083
-0.039
0.064
0.017
0.046
0.025
0.123
-0.024
0.034
0.054
0.147
0.015
-0.085
0.041
0.115
-0.003
0.103
0.052
-0.048
-0.035
-0.134
0.054
0.103
0.119
0.055
-0.158
-0.001
0.016
-0.037
0.069
0.056
0.032
0.028
0.003
0.005
0.147
-0.006
0.054
-0.061
-0.017
0.042
0.007
0.062
0.094
0.017
-0.004
-0.049
0.078
-0.072
-0.043
0.067
-0.079
0.002
0.065
-0.022
-0.026
-0.014
0.177
-0.027
-0.082
-0.052
0.018
0.044
-0.041
0.003
0.099
0.072
-0.007
-0.018
-0.016
-0.029
0.006
0.055
0.055
-0.050
0.074
-0.072
0.093
0.005
-0.001
-0.017
0.028
0.140
0.024
-0.028
-0.018
-0.053
0.008
0.093
-0.069
-0.050
0.120
0.032
-0.047
0.086
0.109
0.020
-0.081
-0.079
0.050
-0.006
0.090
0.150
-0.010
-0.005
0.025
-0.019
-0.046
0.071
0.004
0.020
0.013
0.005
0.048
0.092
-0.054
-0.080
0.016
-0.009
0.087
-0.111
-0.136
0.041
0.123
0.136
-0.058
0.039
0.088
0.054
-0.020
-0.051
0.131
0.102
0.031
-0.075
-0.024
0.114
-0.047
-0.059
-0.066
0.038
0.005
0.083
0.076
-0.061
0.073
0.058
0.068
0.039
0.001
-0.017
0.074
0.077
0.173
0.007
0.109
0.051
0.004
-0.002
0.027
-0.148
0.025
-0.017
0.063
0.034
0.063
-0.051
0.014
0.073
-0.096
-0.059
0.064
0.087
0.056
-0.129
-0.047
0.148
0.011
0.072
0.042
-0.065
0.142
0.131
-0.093
-0.074
0.071
0.052
0.083
-0.030
-0.049
-0.015
0.089
0.143
-0.040
-0.073
0.026
-0.026
0.045
0.102
-0.024
0.077
0.113
-0.078
-0.037
-0.006
-0.069
0.080
0.008
0.144
0.061
-0.016
0.016
-0.082
-0.055
0.095
0.202
0.057
0.049
0.025
-0.019
0.087
-0.071
-0.119
0.050
0.067
0.151
0.088
-0.246
-0.005
0.172
0.063
-0.141
0.075
0.017
-0.161
0.023
-0.024
0.032
0.086
0.062
0.062
-0.094
0.044
0.036
-0.056
-0.084
0.064
0.203
0.070
-0.044
0.098
0.010
0.011
0.033
0.030
-0.100
0.041
0.053
0.077
0.027
0.001
0.076
-0.053
-0.080
0.057
0.154
0.034
-0.048
0.001
0.098
0.135
-0.038
-0.035
0.078
-0.003
-0.015
-0.022
0.009
0.023
-0.040
0.079
0.069
-0.020
0.035
0.004
-0.068
0.051
0.190
0.008
0.030
0.002
0.005
0.026
-0.012
0.075
-0.010
0.021
-0.040
0.195
-0.026
-0.024
0.051
-0.056
0.014
0.055
0.069
0.040
0.075
0.029
-0.071
0.012
-0.007
0.089
0.055
-0.049
-0.041
-0.048
0.075
0.120
0.090
-0.063
-0.021
0.041
-0.013
0.029
0.052
0.019
0.014
0.057
0.049
0.050
0.051
-0.147
0.036
0.038
-0.020
0.088
0.013
-0.026
0.101
0.151
-0.011
-0.052
0.077
0.150
-0.053
-0.111
-0.105
0.046
0.048
0.155
0.053
-0.053
0.014
-0.077
0.081
0.134
0.034
-0.057
-0.025
-0.077
0.050
0.039
0.014
0.066
-0.053
0.008
0.143
-0.062
-0.021
0.070
0.035
0.085
0.015
-0.038
-0.097
0.014
0.066
0.025
-0.007
-0.019
0.134
-0.006
-0.038
0.107
0.104
-0.078
0.032
0.091
-0.002
0.005
-0.100
0.032
-0.027
0.032
-0.069
0.128
0.125
0.003
-0.066
-0.037
-0.008
0.151
0.057
-0.015
-0.055
0.012
-0.014
0.073
0.027
-0.056
0.019
-0.052
0.020
0.113
-0.099
0.147
0.078
-0.037
0.086
-0.019
-0.050
-0.036
0.023
0.051
0.011
0.059
0.058
0.002
-0.045
0.053
-0.070
-0.038
0.130
0.053
0.036
-0.126
0.109
-0.033
-0.091
0.061
0.121
-0.006
-0.004
-0.070
-0.050
-0.095
-0.096
0.170
0.044
-0.057
0.092
0.039
-0.031
0.030
-0.064
0.077
0.017
0.030
-0.136
0.008
0.118
0.124
0.056
0.196
-0.186
-0.005
0.090
0.053
-0.096
0.040
0.021
0.071
-0.049
-0.043
-0.067
0.071
0.051
0.003
0.027
-0.054
-0.001
0.068
-0.031
-0.035
0.142
0.055
-0.068
-0.003
0.051
0.049
0.021
0.109
0.012
0.080
0.057
-0.139
-0.014
-0.006
-0.059
0.063
-0.060
-0.026
0.180
-0.030
0.022
-0.074
-0.030
0.087
0.129
0.072
-0.004
0.021
0.070
-0.032
-0.048
0.080
-0.045
0.015
0.087
-0.008
-0.090
0.022
0.251
0.024
-0.019
-0.057
0.003
0.210
0.020
-0.081
-0.013
0.050
0.042
0.016
-0.029
-0.021
-0.004
0.048
0.016
0.048
-0.054
0.065
0.037
0.034
0.086
-0.141
0.123
0.038
0.169
-0.047
0.001
-0.065
0.191
0.029
0.036
0.012
-0.113
0.031
-0.002
0.052
-0.078
-0.003
0.012
0.042
0.088
0.002
-0.062
-0.010
0.097
0.090
0.042
-0.100
0.014
0.064
0.017
0.060
-0.041
0.017
0.058
0.028
0.066
-0.018
0.000
-0.005
0.062
-0.057
-0.013
0.005
-0.014
0.068
0.071
-0.014
-0.139
-0.066
0.081
-0.012
0.002
0.005
0.043
0.092
-0.053
0.116
0.052
-0.196
0.110
0.035
0.000
0.163
-0.087
0.065
-0.011
0.033
0.173
0.007
0.106
-0.012
-0.036
0.090
-0.014
-0.007
0.114
0.035
0.017
0.028
-0.012
-0.042
-0.040
0.073
0.096
-0.114
-0.015
0.085
-0.008
-0.022
-0.010
0.063
0.094
0.042
-0.026
0.051
0.034
0.074
-0.092
-0.064
0.137
0.003
-0.010
-0.068
0.030
-0.085
0.148
0.039
0.106
-0.035
-0.074
-0.036
0.006
0.175
0.043
0.064
0.061
0.058
0.044
-0.013
-0.015
0.124
0.017
0.000
0.029
-0.116
0.168
0.017
0.003
0.086
0.091
-0.078
0.077
0.056
0.081
-0.124
0.068
0.095
-0.042
-0.040
-0.051
0.007
0.039
-0.079
-0.026
-0.072
0.164
0.031
0.115
-0.040
-0.040
0.040
0.120
-0.106
0.015
0.178
0.058
0.038
0.064
-0.008
-0.041
0.020
0.041
0.001
0.023
-0.050
-0.035
0.118
-0.028
-0.029
0.040
0.028
-0.080
0.067
-0.011
0.074
-0.048
0.080
-0.060
0.001
0.058
0.191
-0.019
-0.039
0.028
0.050
-0.031
0.031
0.069
-0.111
0.034
0.080
0.058
0.094
0.044
-0.062
-0.034
0.035
-0.003
0.151
0.067
0.052
-0.015
-0.005
-0.091
0.075
0.113
0.110
-0.049
-0.128
0.120
0.089
0.003
-0.069
0.002
-0.031
0.078
0.062
0.004
-0.203
-0.014
0.143
-0.011
0.035
-0.011
0.052
0.094
-0.074
0.018
0.204
0.011
-0.015
0.025
0.026
-0.052
0.046
0.213
-0.051
-0.046
-0.055
0.053
0.124
-0.024
-0.120
0.056
0.083
-0.063
0.055
-0.018
-0.101
0.071
0.137
0.021
-0.089
0.105
-0.006
-0.010
0.087
0.062
0.034
-0.104
-0.072
0.120
0.009
0.019
0.237
-0.108
-0.107
0.011
0.046
0.072
-0.047
0.105
0.004
0.020
-0.026
-0.064
-0.046
0.019
-0.046
0.247
0.111
-0.053
0.070
-0.141
0.040
0.197
0.079
-0.051
-0.004
-0.052
0.039
0.020
-0.082
0.146
0.034
-0.139
-0.047
0.082
-0.039
0.013
0.072
0.022
0.030
-0.023
-0.004
-0.113
0.043
0.062
-0.150
0.031
0.129
0.159
0.074
-0.021
-0.041
0.013
0.058
-0.012
0.025
0.021
0.067
-0.012
0.129
0.037
-0.101
0.052
0.119
-0.102
0.016
0.068
0.081
0.037
-0.068
-0.020
0.003
0.013
0.036
0.028
0.117
-0.009
-0.007
-0.084
0.132
-0.017
-0.020
-0.004
0.059
0.028
0.060
-0.028
-0.005
0.001
0.019
0.090
0.018
0.027
0.109
0.006
-0.081
0.088
0.034
0.108
0.130
-0.108
-0.058
-0.044
0.095
0.126
0.144
-0.074
-0.068
0.064
0.072
0.023
0.061
0.031
0.016
-0.148
-0.015
0.063
-0.145
0.076
0.139
0.110
0.089
0.068
-0.017
-0.139
-0.006
0.130
-0.033
-0.069
0.000
0.121
0.142
0.025
0.043
0.084
0.030
0.028
-0.077
-0.059
0.029
0.002
0.100
0.096
0.042
0.008
0.033
0.142
0.014
0.020
-0.088
-0.022
-0.029
0.003
0.155
-0.076
0.088
0.083
0.006
0.033
-0.080
0.037
-0.025
0.064
0.052
0.027
-0.081
0.113
-0.028
-0.013
0.089
0.015
0.019
-0.069
0.070
0.111
0.034
-0.048
0.033
0.000
0.059
0.109
0.022
0.021
-0.034
0.030
0.063
-0.135
0.181
-0.106
0.045
0.112
0.087
-0.030
-0.065
0.033
-0.023
0.086
0.048
0.159
-0.044
-0.068
-0.027
0.037
0.073
-0.071
0.112
0.038
0.046
-0.001
-0.049
-0.010
0.047
0.059
0.001
0.041
-0.085
0.032
0.067
0.021
-0.088
-0.025
0.014
0.069
0.128
0.099
0.017
-0.070
-0.059
0.047
0.164
0.119
-0.034
0.047
-0.059
-0.099
0.033
-0.038
-0.086
0.111
0.190
0.058
-0.072
0.083
0.048
-0.030
-0.023
-0.048
0.167
0.080
0.037
-0.063
-0.069
0.066
0.022
-0.026
0.136
-0.033
-0.005
-0.106
0.065
0.073
-0.026
0.068
0.051
-0.079
-0.028
-0.013
0.039
0.138
0.066
0.106
-0.050
-0.036
0.062
0.009
-0.039
0.147
-0.033
0.039
0.020
0.076
0.005
0.076
-0.098
0.082
0.055
-0.036
0.004
0.031
0.072
0.081
0.130
0.021
-0.071
0.013
-0.010
0.019
0.237
0.037
-0.069
-0.123
0.035
0.063
-0.012
0.154
0.042
0.029
-0.017
-0.046
-0.049
0.072
0.134
-0.003
0.016
0.049
-0.035
0.027
-0.082
-0.007
0.092
-0.046
-0.088
0.202
0.205
-0.047
-0.102
-0.070
0.161
0.046
0.046
0.038
0.095
-0.023
-0.083
0.051
0.104
-0.010
0.045
-0.018
-0.097
-0.014
0.073
0.052
-0.062
0.057
0.027
0.108
-0.040
0.111
-0.075
0.058
0.037
-0.003
-0.135
0.144
0.009
0.014
-0.013
0.009
0.050
0.057
-0.117
-0.009
0.097
0.104
0.068
0.042
-0.010
0.028
-0.026
-0.052
0.038
0.051
-0.064
0.055
0.070
-0.029
-0.008
0.367
-0.142
-0.441
0.836
1.266
0.411
0.236
-1.071
-2.555
0.021
2.440
2.179
-1.139
-1.903
-0.868
0.042
0.352
0.213
-0.016
-0.140
-0.208
-0.061
-0.037
0.175
0.148
0.300
0.327
0.450
0.293
0.202
0.283
0.409
0.203
0.303
0.378
0.449
0.718
0.450
0.299
0.164
0.170
0.262
0.286
0.196
0.224
0.212
0.261
0.043
-0.334
-1.282
-0.504
0.258
0.405
0.194
-0.210
-0.345
-0.214
-0.221
-0.055
0.046
0.229
0.282
0.356
0.342
0.275
0.269
0.071
0.014
0.130
0.276
0.170
-2.264
-3.048
2.423
4.138
4.554
2.701
-0.951
-3.081
-3.227
-1.984
-0.217
1.617
2.966
3.710
3.931
3.389
2.698
1.673
0.817
-0.207
-0.764
-1.368
-1.517
-1.558
-1.416
-1.294
-1.420
-0.648
-0.212
0.127
0.072
0.256
0.103
0.311
0.132
0.267
0.395
0.237
0.235
0.374
0.377
0.301
0.270
0.354
0.345
0.384
0.283
0.398
0.311
0.412
0.349
0.337
0.386
0.339
0.300
0.391
0.301
-1.509
-3.356
2.134
4.116
4.599
1.820
-1.960
-3.720
-4.122
-2.648
0.367
2.459
3.752
4.112
3.901
3.286
2.475
1.502
0.477
-0.379
-1.010
-1.406
-1.536
-1.601
-1.736
-1.398
-1.244
-0.913
-0.712
-0.446
-0.146
-0.097
0.144
0.116
0.003
0.069
0.187
0.004
-0.134
0.103
0.062
0.136
0.285
0.252
0.322
0.211
-0.104
-0.385
-0.639
-0.451
-0.222
-0.462
-0.659
-0.913
-1.174
-1.212
-0.748
-0.122
-0.222
-0.553
-0.433
0.101
0.447
0.671
0.638
0.916
0.855
0.986
1.078
1.158
1.122
1.197
0.871
0.700
0.649
0.432
-0.326
-2.874
-4.388
-1.303
2.415
3.049
1.860
-0.017
-1.986
-1.510
0.170
0.853
-2.386
-0.474
2.181
2.709
2.003
1.108
0.392
-0.067
-0.388
-0.568
-0.612
-0.648
-0.697
-0.720
-0.703
-0.757
-0.590
-0.544
-0.526
-0.248
-0.288
-0.108
0.115
0.106
0.284
0.337
0.411
0.418
0.519
0.677
0.589
0.827
0.633
0.738
0.828
0.748
0.806
0.903
0.659
0.810
0.815
0.834
0.712
0.681
0.634
0.705
0.687
0.560
0.588
0.495
0.357
0.304
-0.466
-2.047
-1.177
1.733
2.074
1.088
0.246
-0.397
-0.656
-0.516
-0.228
-0.012
0.286
0.301
0.460
0.232
0.222
0.109
-0.164
-0.353
-0.346
-0.653
-0.549
-0.526
-0.572
-0.647
-0.524
-0.483
-0.425
-0.427
-0.318
-0.249
-0.448
-0.337
-0.089
-0.107
-0.288
-0.194
-0.167
-0.275
-0.098
-0.163
-0.237
-0.374
-2.970
-1.346
2.152
1.420
-0.483
-0.677
0.257
0.333
-0.053
-0.302
-0.167
0.128
0.441
0.914
0.910
1.322
1.383
1.217
0.844
0.493
0.241
-0.021
-0.145
-0.399
-0.452
-0.514
-0.443
-0.387
-0.320
-0.292
-0.188
-0.188
-0.158
-0.840
-0.399
-0.221
-0.269
-0.762
-1.728
-2.513
-2.544
-2.239
-3.080
-2.664
-2.154
1.492
1.131
-1.037
-0.999
0.155
0.255
0.680
1.418
2.465
2.786
2.801
2.834
2.624
2.192
2.250
1.890
1.547
1.360
1.086
0.836
0.882
0.194
-0.434
-0.676
-0.891
-0.941
-0.750
-0.524
-0.527
-0.489
-0.387
-0.614
-0.540
-0.634
-0.749
-0.808
-0.708
-0.570
-0.529
-0.325
-0.241
-0.038
-0.020
-0.032
0.093
0.381
0.384
0.392
0.464
0.544
0.487
0.618
0.618
0.587
0.612
0.636
0.580
0.887
0.753
0.713
0.654
0.672
0.554
0.638
0.607
0.572
0.559
0.490
0.374
0.425
0.320
0.410
0.199
0.079
0.284
0.353
0.180
0.089
-0.089
-0.155
-0.066
0.016
-0.032
-0.361
-0.086
0.027
0.108
-0.186
-0.338
-0.303
-0.195
-0.212
-0.300
-0.164
-0.268
-0.280
-0.236
-0.155
-0.328
-0.284
-0.348
-0.426
-0.401
-0.264
-0.324
-0.311
-0.255
-0.211
-0.185
-0.201
-0.144
-0.058
0.099
-0.071
-0.031
-0.042
0.078
-0.083
0.116
0.178
0.072
-0.014
0.054
0.007
0.113
0.020
0.060
0.131
0.125
0.008
0.087
-0.011
-0.039
0.121
-0.010
0.054
0.070
0.148
0.071
0.021
-0.127
-0.073
-0.015
0.133
0.020
-0.007
0.093
-0.055
0.038
0.004
0.027
-0.055
-0.095
0.074
-0.024
-0.045
0.030
0.009
-0.015
-0.008
-0.095
0.009
-0.124
-0.038
-0.136
0.008
0.249
0.061
-0.050
0.064
-0.104
-0.038
0.105
0.104
0.103
0.081
0.204
-0.023
0.116
0.012
0.058
0.036
0.066
0.241
0.078
0.049
0.074
0.076
0.128
0.154
0.140
0.139
0.046
0.120
0.115
0.096
0.031
0.088
0.081
0.073
0.127
-0.037
0.025
0.071
-0.012
0.069
0.047
-0.154
0.113
-0.056
-0.065
0.007
-0.037
-0.038
-0.209
-0.343
-0.632
-0.874
-1.058
-0.937
-0.471
-0.276
0.233
0.359
0.150
0.002
-0.027
-0.274
0.112
0.468
0.493
0.669
0.715
0.738
0.610
0.459
0.473
0.322
0.149
-0.051
-0.031
-0.268
-0.290
-0.417
-0.377
-0.445
-0.390
-0.194
-0.246
-0.268
-0.237
-0.104
-0.018
-0.081
-0.104
0.001
0.240
0.102
0.068
0.110
0.295
0.115
0.084
0.122
0.225
0.187
0.295
0.237
0.151
0.153
0.217
0.453
0.232
0.181
0.253
0.264
0.220
0.135
0.277
0.120
0.182
0.227
0.144
0.274
0.157
0.056
0.212
0.079
0.151
0.006
0.045
0.013
0.150
0.092
-0.082
0.054
-0.045
-0.063
-0.170
-0.009
-0.013
-0.020
0.003
-0.125
-0.159
-0.046
-0.095
-0.107
-0.085
0.014
-0.031
-0.131
-0.244
-0.112
-0.065
-0.036
-0.088
-0.161
-0.045
-0.090
-0.085
-0.123
-0.070
-0.128
-0.103
0.044
-0.040
0.037
-0.087
0.064
-0.051
0.123
0.036
0.064
0.012
-0.132
-0.061
0.136
0.125
0.047
0.078
0.208
-0.010
0.037
0.113
-0.031
0.251
0.049
0.066
0.090
0.052
0.110
-0.037
0.045
-0.038
0.073
0.155
0.107
0.145
-0.001
0.035
-0.013
0.083
-0.090
-0.044
0.052
0.104
0.092
0.049
0.093
0.004
-0.062
-0.121
-0.001
-0.029
0.039
-0.132
0.066
0.094
-0.044
-0.106
-0.105
0.032
0.118
0.016
-0.062
-0.010
-0.073
-0.058
0.103
-0.094
-0.053
0.018
0.113
-0.144
-0.008
0.065
0.059
0.259
0.089
-0.141
-0.103
-0.006
0.139
-0.029
-0.088
0.106
-0.008
-0.084
-0.132
-0.250
-0.255
-0.261
-0.437
-0.628
-0.938
-0.307
0.205
-0.035
-0.171
-0.320
-2.152
-2.133
-1.476
-0.702
-0.204
0.808
0.296
-2.504
-3.654
-3.923
1.305
3.999
4.688
3.378
-1.994
-3.756
-4.225
-3.284
1.213
3.741
4.393
4.429
4.262
4.067
3.826
3.603
3.251
1.302
-0.925
-2.585
-3.736
-4.242
-4.180
-3.651
-2.809
-2.139
-1.276
-0.733
-0.027
0.147
0.455
0.519
0.553
0.455
0.294
0.245
0.138
0.011
0.104
0.076
0.068
0.135
0.240
0.178
0.483
0.350
0.423
0.634
0.591
0.716
0.604
0.542
0.673
0.613
0.595
0.563
0.531
0.651
0.589
0.545
0.422
0.464
0.451
0.337
0.332
0.428
0.252
0.313
0.357
0.239
0.134
0.133
0.083
0.036
0.011
0.049
0.048
-0.093
-0.034
-0.096
-0.148
-0.180
-0.158
-0.220
-0.050
-0.133
-0.279
-0.357
-0.117
-0.181
-0.239
-0.130
-0.269
-0.227
-0.146
-0.183
-0.217
-0.204
-0.139
-0.240
-0.249
-0.030
-0.199
-0.115
-0.143
-0.015
-0.089
-0.109
-0.119
0.009
-0.100
-0.126
-0.089
0.104
0.045
0.124
0.037
0.020
0.028
0.169
-0.003
0.078
0.110
-0.023
0.071
0.131
0.189
0.108
0.030
0.010
0.154
-0.033
0.061
0.018
0.054
0.164
-0.046
0.038
0.025
0.068
-0.049
-0.047
0.028
0.173
0.029
-0.041
-0.084
0.062
-0.087
-0.013
0.146
-0.033
-0.019
0.074
0.024
0.107
-0.160
0.073
0.069
0.176
0.043
0.208
0.333
0.427
0.660
0.775
0.576
0.280
0.238
0.133
0.298
0.308
0.271
0.285
0.147
-0.006
0.027
-0.078
-0.290
-0.148
-0.293
-0.222
-0.375
-0.341
-0.220
-0.114
-0.120
-0.035
0.036
0.139
0.096
0.175
0.043
0.256
0.151
0.157
0.187
0.178
0.310
0.233
0.261
0.104
0.062
0.204
0.373
0.154
0.228
0.084
0.004
0.019
0.081
0.167
0.138
0.010
0.011
0.082
-0.093
-0.127
-0.320
-0.046
-0.148
-0.062
-0.242
-0.240
-0.240
-0.176
-0.069
-0.130
-0.211
-0.134
-0.244
-0.155
-0.149
-0.090
-0.056
0.002
-0.162
-0.106
-0.095
-0.054
0.075
0.010
-0.108
-0.199
-0.098
-0.052
0.016
-0.016
-0.046
0.048
0.102
0.045
-0.008
0.028
0.189
0.147
0.065
0.044
0.071
0.140
0.145
0.270
0.204
0.088
0.088
0.096
-0.070
0.187
0.065
-0.019
-0.162
-0.463
0.146
0.581
0.548
0.358
0.077
-0.145
0.017
-0.020
-0.111
-0.104
0.076
0.253
0.412
0.223
0.198
0.030
0.040
-0.006
0.009
-0.030
-0.156
0.071
-0.013
0.083
0.002
-0.058
-0.062
0.130
0.009
0.027
-0.182
0.006
0.009
0.056
0.037
0.059
-0.082
-0.058
-0.048
0.076
-0.048
-0.104
0.007
0.074
0.085
-0.039
0.067
-0.007
-0.049
0.112
-0.042
0.038
-0.041
0.073
-0.003
0.023
0.085
-0.005
0.106
0.004
-0.013
0.038
0.001
0.068
0.006
0.078
0.016
0.051
0.067
0.066
-0.034
0.101
0.115
0.104
-0.302
-3.224
-4.047
1.907
3.894
4.419
3.503
-1.915
-3.922
-4.443
-4.017
0.200
3.412
4.333
4.457
4.364
4.199
4.013
3.838
3.538
2.306
0.647
-0.999
-2.166
-3.056
-3.276
-3.106
-2.781
-2.265
-1.680
-1.014
-0.532
-0.196
0.327
0.619
-1.427
-0.410
2.580
2.808
1.901
-2.101
2.027
4.183
2.579
-2.049
1.125
3.857
4.030
2.015
0.309
-0.346
-2.439
-1.285
3.088
4.387
3.697
-0.342
0.167
1.690
1.735
0.976
-0.006
-0.689
-0.881
-0.628
0.059
0.251
0.251
0.431
0.707
0.765
0.445
0.464
0.454
0.155
0.049
-0.009
-0.361
1.519
1.935
1.174
-0.620
-3.210
-0.012
2.389
1.714
0.799
-0.054
1.249
1.294
-1.327
-1.862
0.102
2.000
0.821
1.280
1.396
1.088
0.498
0.296
0.151
0.146
0.395
0.331
0.452
0.344
0.215
0.036
0.129
0.020
-0.788
-0.442
-0.205
-0.169
-0.155
-0.085
-0.234
-0.310
-0.087
0.027
0.240
0.005
0.195
0.209
0.256
-0.009
0.193
0.277
0.252
0.328
0.154
0.029
0.162
0.199
0.121
0.163
0.087
0.036
0.098
0.286
0.164
0.087
0.126
0.073
0.031
0.076
0.012
0.076
0.119
0.080
0.064
-1.749
-3.625
0.444
3.457
4.277
4.245
-1.344
-3.776
-4.093
-2.694
-0.825
1.507
3.499
4.202
4.319
4.193
4.016
3.366
2.155
0.764
-0.406
-1.376
-1.910
-2.293
-2.367
-2.180
-1.810
-1.374
-0.992
-0.770
-0.208
0.012
0.283
0.474
0.369
0.383
0.522
0.312
0.477
0.481
0.332
0.318
0.445
0.499
0.437
0.562
0.560
0.668
0.464
0.538
0.640
0.809
0.574
0.587
0.667
0.512
0.535
0.532
0.364
0.414
0.154
0.449
0.411
0.251
0.266
0.144
0.176
0.222
0.107
0.154
0.046
-0.073
-0.082
0.054
-0.099
-0.133
-0.243
-0.228
-0.133
-0.202
-0.285
-0.138
-0.309
-0.327
-0.434
-0.294
-0.288
-0.258
-0.323
-0.303
-0.321
-0.283
-0.267
-0.248
-0.088
-0.202
-0.285
-2.996
-3.290
-0.146
3.186
3.996
1.556
-2.856
-0.740
2.884
-1.645
-1.210
2.750
3.932
2.337
0.361
-0.978
-1.255
-0.308
2.250
3.620
3.967
3.966
3.864
3.730
3.099
1.805
0.453
-0.107
-0.462
-1.247
-1.517
-1.745
-1.838
-1.597
-1.278
-0.982
-0.629
-0.274
0.032
0.149
-0.319
-2.714
-3.450
-3.448
1.710
4.619
4.646
3.090
0.757
-0.552
-0.840
0.053
1.116
2.193
3.024
1.855
-1.868
0.194
4.001
5.064
5.192
3.251
0.194
-1.813
-2.239
-1.517
-0.491
1.021
1.948
2.572
2.580
2.428
1.945
1.256
0.627
0.015
-0.723
-1.153
-1.489
-1.528
-1.403
-1.228
-1.089
-0.861
-0.780
-0.460
-0.500
-0.354
-0.317
-0.250
-0.261
-0.112
-0.169
-0.039
-0.143
-0.061
-0.154
-0.211
-0.135
-0.046
0.009
-0.027
0.068
-0.123
-0.042
-0.052
0.012
0.075
0.218
0.249
0.209
0.170
0.077
0.101
0.058
0.061
0.166
0.106
0.175
0.050
0.007
-0.192
0.082
0.171
0.017
0.078
-0.052
-0.019
-0.093
-0.155
-0.145
-0.126
-0.030
0.095
0.004
-0.271
-0.059
-0.178
-0.092
-0.064
0.014
-0.037
-0.105
-0.117
-0.103
-0.256
-0.125
-0.092
0.031
0.136
-0.015
-0.057
0.046
-0.127
-0.012
-0.151
0.128
0.150
0.074
-0.034
0.023
0.209
0.178
0.240
0.269
0.348
-0.150
-0.290
0.056
0.138
0.153
0.046
-0.218
0.145
0.095
-0.520
-0.533
0.110
0.067
-0.249
-2.076
-3.033
-1.789
1.305
3.056
2.919
1.567
0.273
-0.252
-0.384
-0.015
0.634
1.111
1.458
1.382
1.340
1.152
0.645
0.093
-0.235
-0.586
-0.793
-0.868
-0.833
-0.794
-0.879
-0.689
-0.653
-0.540
-0.385
-0.317
-0.162
-0.103
-0.215
-0.147
-0.067
0.010
-0.048
-0.030
-0.121
-0.029
-0.115
0.015
0.148
0.215
0.046
0.149
0.017
0.134
0.317
0.258
0.327
0.204
0.267
0.392
0.327
0.162
0.164
0.301
0.273
0.314
0.230
0.152
0.198
0.235
0.252
0.265
0.203
0.106
0.113
0.061
0.271
0.014
-0.005
-0.014
0.200
0.047
-0.028
-0.073
-0.091
0.036
-0.022
-0.006
-0.037
0.072
0.042
-0.070
-0.106
0.047
-0.080
0.010
-0.139
-0.239
-0.140
-0.058
-0.053
-0.046
-0.092
-0.141
-0.137
0.032
-0.124
-0.259
-0.130
-0.154
-0.100
0.109
-0.152
-0.121
-0.268
-0.122
0.130
-0.020
-0.101
-0.095
-0.054
-0.005
-0.104
0.075
-0.009
-0.144
0.066
-0.029
0.009
-0.017
-0.049
-0.028
-0.053
0.104
-0.022
-0.013
-0.074
0.074
0.003
-0.031
0.018
-0.005
0.161
0.104
0.154
-0.085
0.003
0.016
-0.000
0.211
0.069
-0.016
-0.016
-0.016
0.216
0.019
0.003
0.056
-0.108
0.084
0.182
-0.083
0.112
0.045
-0.013
-0.107
0.075
0.101
0.088
0.051
0.008
0.035
0.084
0.027
-0.030
-0.014
0.138
0.129
-0.008
0.018
0.116
-0.028
0.073
-0.054
-0.038
0.047
0.016
0.109
0.068
-0.055
-0.061
0.069
0.085
-0.081
-0.118
-0.059
-0.188
0.039
0.125
0.247
0.045
-0.008
-0.103
-0.088
-0.024
0.192
-0.013
-0.005
0.189
0.116
0.193
0.024
-0.001
0.045
-0.067
0.041
0.133
-0.082
-0.197
-0.036
-0.137
-0.102
-0.169
-0.036
-0.070
-0.029
-0.013
-0.053
-0.139
0.008
-0.037
0.063
0.004
-0.075
0.042
-0.033
-0.072
0.022
0.113
0.093
-0.008
-0.100
0.197
0.028
0.123
-0.081
-0.065
0.103
0.145
0.100
0.013
0.071
0.117
0.129
0.058
0.072
0.033
0.029
0.167
-0.070
0.050
-0.054
-0.005
0.141
0.072
0.176
-0.007
-0.080
-0.093
-0.188
-0.057
-0.084
-0.301
-0.141
-0.297
0.002
0.018
-0.124
-0.092
0.215
-0.232
-0.321
-0.188
-0.098
0.211
0.258
0.163
0.056
-0.010
0.118
-0.101
-0.086
0.054
0.064
0.192
0.045
0.141
0.075
-0.171
0.056
-0.000
-0.109
0.051
-0.024
-0.117
-0.073
0.044
-0.123
0.046
-0.162
-0.139
-0.140
-0.033
0.013
0.014
-0.068
-0.052
-0.117
-0.058
0.055
-0.063
-0.143
-0.144
0.047
0.155
-0.145
-0.003
-0.016
-0.007
0.062
0.130
-0.046
0.110
-0.004
0.037
0.018
0.130
0.022
0.055
-0.035
0.053
0.236
-0.053
0.054
0.011
0.045
0.064
0.186
0.038
-0.056
0.104
0.094
0.154
0.109
0.120
0.051
-0.070
0.023
0.198
0.166
0.117
0.193
0.117
0.024
0.097
0.022
0.128
0.070
0.039
0.152
0.054
0.094
0.097
-0.027
-0.054
-0.065
0.045
0.082
0.010
-0.058
0.008
0.070
-0.054
0.010
0.043
-0.016
-0.007
0.061
0.007
-0.058
-0.028
0.008
-0.117
0.064
0.005
0.200
-0.113
0.258
0.622
0.656
0.343
0.142
0.157
0.045
0.154
0.347
-0.705
-3.453
1.045
3.515
4.166
3.753
-1.730
-3.959
-4.509
-4.211
-1.243
2.624
4.103
4.459
4.441
4.304
4.149
3.585
2.147
0.407
-1.100
-2.153
-2.945
-3.006
-2.734
-2.206
-1.694
-1.133
-0.676
-0.098
0.345
0.482
0.800
0.682
0.822
0.678
0.718
0.554
0.392
0.441
0.453
0.333
0.362
0.450
0.501
0.334
0.554
0.518
0.509
0.573
0.512
0.474
0.625
0.376
0.476
0.332
0.380
0.396
0.255
0.215
0.269
0.162
-0.151
-0.493
0.017
0.444
0.370
0.049
-0.043
-0.183
-0.220
-0.296
-0.089
-0.063
-0.088
-0.052
-0.086
-0.083
-0.185
-0.263
-0.296
-0.269
-0.308
-0.309
-0.386
-0.292
-0.349
-0.394
-0.369
-0.349
-0.275
-0.252
-0.201
-0.248
-0.187
-0.191
-0.336
-0.079
-0.120
-0.092
-0.186
-0.141
-0.151
-0.073
-0.078
-0.059
-0.030
0.008
-0.114
0.105
0.043
0.039
0.046
0.084
0.019
0.178
0.043
0.157
0.069
0.171
0.053
0.184
0.001
0.203
0.086
0.057
0.137
0.177
0.038
-0.015
-0.133
-0.090
-0.251
-0.324
0.056
0.279
0.396
0.363
0.046
-0.152
-0.057
0.093
0.296
-0.594
-3.276
-1.800
2.789
4.120
4.020
0.533
-2.383
-3.508
-2.600
-1.280
0.333
1.750
2.820
3.214
3.148
2.824
1.935
1.044
0.328
-0.328
-0.895
-1.139
-1.343
-1.343
-1.049
-1.025
-0.645
-0.470
-0.233
-0.090
0.084
0.203
0.180
0.283
0.308
0.275
0.317
0.226
0.201
0.232
0.168
0.215
0.186
0.312
0.296
0.245
0.400
0.328
0.392
0.288
0.269
0.233
0.330
0.494
0.319
0.255
0.217
0.232
0.044
0.341
0.119
0.128
0.064
0.136
0.124
0.137
0.119
0.020
0.047
0.052
0.003
-0.199
-0.075
-0.197
-0.035
-0.023
-0.172
-0.127
0.002
-0.210
-0.255
-0.153
-0.006
-0.213
-0.208
-0.146
-0.009
-0.178
-0.173
-0.235
-0.090
-0.122
-0.261
-0.056
-0.106
-0.045
0.015
-0.019
-0.057
-0.003
-0.156
0.031
0.052
0.051
0.147
0.032
0.036
0.100
0.116
0.035
0.018
0.114
0.108
0.004
-0.030
0.066
0.156
-0.034
-0.022
0.123
0.192
-0.026
0.147
0.034
0.045
-0.003
0.062
0.055
0.015
0.092
0.090
-0.027
0.011
0.031
0.096
0.062
0.019
-0.016
0.043
0.073
-0.082
-0.107
-0.098
0.107
0.018
0.057
-0.103
0.017
-0.202
0.004
0.151
-0.025
-0.130
-0.008
0.082
-0.027
-0.080
-0.187
-0.771
-1.747
-3.117
-3.918
-4.086
-4.005
-3.846
-2.629
-3.082
2.168
4.611
5.206
4.153
-0.008
-2.601
-2.354
0.651
3.568
4.415
4.495
4.347
4.119
3.877
3.649
3.047
1.216
-0.885
-2.763
-3.820
-4.267
-4.437
-3.970
-3.350
-2.610
-1.788
-1.099
-0.473
-0.170
0.100
0.271
0.289
0.275
0.247
0.084
-0.023
-0.127
-0.104
-0.088
-0.103
0.019
0.106
0.245
0.179
0.242
0.291
0.180
0.246
0.344
0.316
0.438
0.230
0.255
0.398
0.530
0.454
0.325
0.267
0.238
0.229
0.292
0.464
0.440
0.457
0.321
0.353
0.287
0.197
0.159
0.187
-0.106
-0.002
0.129
0.032
-0.001
-0.140
-0.183
-0.114
-0.121
-0.042
-0.236
-0.316
-0.331
-0.113
-0.187
-0.119
-0.184
-0.227
-0.243
-0.180
-0.249
-0.289
-0.228
-0.266
-0.255
-0.143
-0.229
-0.219
-0.201
-0.106
-0.207
-0.242
-0.129
0.099
0.068
0.055
-0.034
-0.063
-0.091
0.050
-0.017
0.166
-0.007
0.230
0.590
0.556
0.012
-3.060
-4.047
-1.944
2.838
0.407
3.509
1.430
-1.111
-2.654
-3.850
0.913
3.668
4.422
4.513
4.391
4.220
4.016
3.821
3.643
3.458
3.139
1.265
-1.285
-3.450
-4.586
-5.304
-5.354
0.519
3.026
3.611
-0.504
-3.646
-3.571
-3.895
-1.536
1.457
3.476
3.995
4.414
-1.130
2.023
4.046
4.602
3.217
0.382
-2.005
-2.716
-1.876
-1.429
-3.044
-2.276
3.252
4.951
5.375
2.052
-1.111
-1.498
-2.308
-1.614
-0.200
1.369
3.062
3.964
4.222
4.159
3.301
2.359
1.545
0.464
-2.147
-2.852
-0.575
0.812
2.139
1.394
-1.992
-2.799
-0.587
1.033
2.819
-0.537
1.173
2.274
0.063
0.286
-2.835
0.185
2.388
1.983
0.890
-0.043
-0.454
-0.763
-0.595
-0.445
-0.225
-0.004
-0.031
-3.108
0.216
0.960
3.243
3.330
0.889
-1.310
-2.579
-2.502
-1.525
-0.336
0.832
1.753
2.066
2.130
1.869
1.606
1.150
0.542
0.058
-0.408
-0.723
-0.893
-1.121
-0.568
0.150
0.389
0.315
0.295
0.241
0.280
0.422
0.669
0.774
0.792
0.762
0.687
0.580
0.633
0.616
0.533
0.462
0.422
0.242
0.274
0.337
0.201
0.225
0.226
0.169
0.352
0.195
0.214
0.095
0.086
0.116
-0.276
-1.134
-1.345
-0.979
-0.070
0.244
-0.190
0.052
-0.166
-0.605
-1.605
-1.020
-0.394
0.088
-0.439
-2.682
0.036
0.229
-1.991
-1.448
-0.622
-0.049
-0.197
-2.274
-0.719
0.333
3.405
4.204
0.033
-2.966
-0.060
2.262
3.431
2.819
0.974
1.772
2.619
2.355
1.752
1.332
0.806
0.250
-0.311
-0.512
-0.739
-0.886
-1.078
-1.381
-1.660
-1.783
-1.481
-1.088
-0.793
-0.794
-0.522
-0.199
-1.439
-3.244
-2.892
-1.153
0.629
1.746
1.696
0.951
0.227
-0.283
-0.219
0.311
1.019
1.450
1.971
2.211
2.320
2.246
2.229
1.928
1.578
1.262
1.019
0.704
0.440
0.264
0.290
0.335
0.301
0.241
0.396
0.275
0.323
0.364
0.289
0.184
0.330
0.149
0.103
0.364
0.469
0.363
-1.003
-1.358
-0.403
0.111
0.236
0.190
0.024
-0.151
-0.373
-0.096
0.086
0.358
0.721
0.432
0.013
-0.131
-0.106
-0.164
-1.585
-1.899
-0.947
0.205
0.701
0.809
0.462
-1.205
-1.690
-1.021
-0.785
-0.035
0.292
0.372
0.275
0.165
0.252
0.347
0.468
0.520
0.348
0.172
0.036
-0.202
-0.316
-0.302
-0.263
-0.109
-0.105
0.043
0.142
0.049
0.042
-0.091
0.032
-0.041
0.098
0.066
0.034
-0.041
0.032
-0.007
-0.048
0.063
0.019
-0.021
-0.087
-0.196
-0.054
-0.015
-0.048
-0.083
0.020
0.020
0.002
-0.013
0.080
-0.091
-0.049
0.023
0.091
-0.039
0.052
0.055
-0.026
0.107
0.157
0.187
0.083
0.038
0.105
0.137
0.157
-0.187
-0.706
0.039
0.588
0.511
0.325
0.269
0.178
0.061
0.090
0.126
0.133
0.737
0.802
0.359
0.070
0.135
0.116
-0.219
0.013
0.283
0.414
0.198
-0.117
-0.298
-0.392
-0.297
-0.227
-0.122
-0.005
0.063
0.033
0.034
-0.147
-0.121
0.000
-0.071
0.013
0.034
-0.029
-0.158
-0.056
-0.200
-0.051
-0.075
-0.172
-0.162
-0.301
-0.186
-0.055
-0.127
-0.044
-0.129
-0.082
0.006
0.034
0.020
0.091
-0.177
-0.157
-0.105
-0.024
-0.025
-0.065
0.112
-0.013
-0.005
-0.014
0.119
-0.028
-0.071
-0.073
0.092
0.070
0.037
0.150
0.089
0.110
0.026
0.127
0.033
0.160
0.265
0.184
-0.029
0.015
0.219
0.240
0.065
0.032
0.090
0.216
0.102
0.018
0.200
0.122
0.193
0.010
0.177
0.041
0.015
0.077
0.041
0.068
0.035
0.095
-0.025
0.175
0.065
0.119
-0.117
0.012
0.120
0.004
-0.071
0.043
0.057
-0.113
-0.063
-0.067
0.034
-0.130
-0.078
0.021
-0.004
-0.149
0.069
-0.039
-0.062
-0.086
0.106
-0.029
-0.034
-0.096
-0.051
0.051
-0.104
0.065
0.016
-0.053
-0.076
-0.131
-0.054
-0.048
0.033
0.011
-0.021
-0.071
0.027
0.013
0.016
-0.098
-0.050
0.023
0.187
-0.038
0.128
0.115
0.058
0.060
-0.057
-0.045
-0.057
-0.005
0.091
0.119
0.052
0.157
0.074
-0.067
-0.160
-0.150
0.064
0.029
0.047
0.266
0.110
-0.073
0.108
0.039
-0.037
0.058
0.019
0.092
0.115
0.054
0.045
0.168
0.097
-0.025
0.032
0.160
-0.007
-0.078
-0.029
0.033
-0.051
0.113
-0.006
-0.057
0.003
0.033
0.101
-0.063
0.039
0.029
0.089
0.004
-0.015
-0.050
-0.039
0.013
0.087
-0.119
-0.052
0.006
-0.046
0.044
0.074
0.110
-0.005
-0.076
-0.005
0.003
0.035
0.096
0.046
0.026
0.050
-0.008
0.095
0.266
0.033
-0.004
0.111
-0.003
0.026
-0.106
-0.114
0.022
0.070
0.010
-0.034
-0.088
0.079
-0.071
-0.183
0.041
-0.142
0.077
-0.052
-0.014
-0.015
0.054
0.184
0.088
0.011
0.127
0.009
0.036
0.073
0.069
0.015
0.051
0.025
0.005
-0.012
0.080
0.042
0.002
-0.021
-0.072
0.033
0.065
0.116
-0.015
-0.023
-0.009
-0.006
0.111
0.027
-0.115
0.183
0.113
-0.005
-0.043
-0.048
0.011
0.030
0.034
0.080
-0.011
-0.139
0.013
0.033
0.120
-0.029
-0.039
-0.067
0.002
0.031
-0.033
0.045
0.067
-0.034
-0.089
-0.056
0.031
0.085
-0.056
0.016
-0.103
0.039
0.171
-0.003
-0.043
0.024
0.160
-0.054
0.011
0.058
-0.010
-0.040
0.043
0.058
0.021
0.110
-0.168
-0.027
0.078
0.002
0.029
-0.059
0.009
0.053
0.083
-0.029
-0.102
0.077
-0.009
0.025
-0.051
0.093
0.058
0.008
0.089
0.024
-0.072
-0.032
-0.035
-0.055
0.044
0.044
0.032
0.048
-0.062
0.016
0.018
-0.004
0.041
0.035
0.183
0.006
-0.004
-0.011
0.011
0.019
0.031
0.038
0.125
0.069
0.033
-0.044
-0.074
-0.016
0.033
0.121
0.037
-0.148
0.034
0.019
0.003
-0.033
0.094
0.200
0.075
0.028
-0.105
0.173
0.043
-0.103
0.046
0.075
-0.028
0.062
0.189
0.035
0.066
0.079
-0.007
-0.039
-0.151
0.108
0.055
0.009
-0.006
0.088
0.058
-0.003
0.019
-0.118
-0.067
-0.034
0.059
-0.061
0.105
0.047
0.042
-0.037
0.012
-0.072
-0.016
0.126
0.004
0.005
0.020
-0.006
0.051
0.038
0.033
0.110
-0.004
0.040
0.040
0.056
0.009
0.038
0.011
-0.024
0.063
0.132
0.046
0.008
-0.005
-0.069
0.104
-0.025
0.096
-0.024
-0.064
0.026
0.109
0.084
0.090
-0.048
0.038
0.020
0.035
-0.004
0.016
0.051
0.116
-0.089
0.018
-0.025
0.071
0.178
0.056
0.025
-0.102
0.000
0.094
0.116
0.011
0.115
-0.035
-0.045
-0.093
-0.064
-0.070
0.316
0.402
0.129
-0.095
-0.216
0.030
0.059
0.122
-0.038
0.091
0.091
0.015
0.101
0.106
0.020
-0.287
-0.005
0.086
0.217
0.027
-0.122
-0.131
0.088
0.007
0.015
0.081
0.090
0.013
-0.155
-0.016
0.140
0.020
0.064
-0.061
0.095
-0.043
-0.048
-0.026
0.064
0.115
0.115
0.081
0.002
0.003
-0.022
0.115
0.004
0.066
-0.015
0.086
0.066
-0.030
0.076
-0.036
-0.154
-0.013
0.080
0.090
0.124
0.049
0.135
0.024
0.067
-0.032
-0.078
-0.050
0.046
0.039
-0.058
0.032
-0.013
-0.150
0.074
0.055
-0.109
-0.046
0.052
-0.096
-0.164
-0.088
0.211
0.118
-0.019
0.148
0.011
-0.028
0.014
0.080
-0.097
0.037
0.064
0.051
0.047
0.041
-0.018
-0.043
0.163
0.029
0.030
0.107
0.033
0.037
0.056
0.079
-0.031
0.137
0.071
0.163
0.042
0.017
-0.069
-0.095
0.025
-0.073
0.174
-0.103
0.046
0.079
-0.063
-0.042
0.081
-0.121
-0.194
0.033
-0.039
0.147
0.091
0.029
0.082
0.090
0.100
-0.002
-0.010
-0.079
-0.042
0.125
0.031
0.100
0.052
0.077
-0.017
-0.035
0.092
-0.031
-0.022
0.008
0.014
0.171
-0.078
0.076
0.076
0.065
0.058
0.067
0.022
-0.097
0.028
0.056
0.162
0.034
-0.060
-0.122
0.059
-0.061
-0.016
0.064
0.055
0.089
0.004
0.039
0.046
-0.063
-0.009
-0.118
-0.004
0.023
0.033
-0.000
-0.058
0.060
-0.007
-0.033
0.153
-0.073
0.003
0.214
-0.144
0.090
-0.021
-0.076
0.111
0.057
0.028
0.102
-0.072
0.167
-0.035
-0.137
0.117
-0.101
0.035
0.022
0.039
0.023
-0.066
0.040
-0.117
0.038
0.036
0.115
-0.003
-0.005
0.039
-0.023
0.100
-0.071
0.003
-0.005
-0.019
0.143
0.180
0.004
0.074
0.033
0.097
0.047
-0.025
-0.051
-0.059
0.039
0.119
-0.058
-0.102
0.037
0.056
-0.054
0.069
0.029
-0.002
0.059
0.127
0.059
-0.117
0.035
0.095
0.036
-0.191
0.037
-0.004
0.151
0.060
-0.028
0.002
0.014
0.146
0.012
-0.109
0.095
0.115
0.131
0.036
0.122
-0.025
0.004
-0.017
-0.033
0.037
0.069
-0.064
0.111
0.096
0.031
-0.048
0.088
0.010
-0.069
0.031
-0.034
-0.014
0.047
0.156
-0.043
-0.014
0.022
0.000
0.013
0.131
0.070
-0.084
0.020
-0.004
0.107
-0.018
0.038
-0.025
0.006
0.025
-0.032
0.058
0.013
0.017
0.050
0.061
0.059
-0.040
0.009
0.106
-0.038
-0.128
-0.037
0.025
0.057
0.081
0.062
0.021
-0.020
0.011
0.000
0.046
-0.008
-0.019
0.098
0.037
0.014
-0.097
0.066
0.027
0.140
-0.148
0.023
-0.013
-0.009
0.047
0.051
0.001
0.037
0.098
-0.007
0.139
-0.055
0.048
0.079
-0.050
0.109
-0.038
0.120
-0.012
-0.059
-0.087
-0.004
-0.038
0.075
0.119
0.059
-0.137
0.014
-0.014
0.158
0.010
-0.066
0.027
0.052
-0.018
0.022
0.030
-0.033
0.010
-0.005
-0.007
0.208
-0.055
-0.067
-0.097
0.028
-0.021
0.095
0.073
0.057
0.071
-0.042
0.026
0.094
0.202
-0.039
-0.007
-0.012
0.023
-0.023
0.040
0.080
0.073
-0.072
0.101
0.075
0.086
-0.011
0.014
-0.078
0.123
0.077
-0.057
0.050
0.019
0.100
-0.019
-0.018
0.109
-0.149
0.041
0.017
0.167
-0.047
-0.098
-0.051
-0.012
0.114
-0.116
0.034
0.018
0.113
-0.086
-0.112
0.040
0.039
0.030
0.069
0.050
0.078
0.063
0.370
0.422
0.011
-0.138
-0.206
-0.063
-0.045
0.050
0.202
0.019
-0.727
0.434
0.631
0.107
-0.300
-0.301
-0.209
-0.077
0.047
-0.088
-0.011
0.133
0.176
0.171
0.036
0.072
-0.091
-0.028
-0.031
0.064
0.149
-0.099
0.009
0.346
0.600
0.633
0.737
0.693
0.397
0.017
0.095
-0.126
-0.103
0.483
0.565
0.507
0.349
0.012
-0.061
-1.746
-3.779
-2.271
1.406
3.178
2.398
0.451
-0.928
-1.725
-1.587
-1.226
-0.185
0.565
1.239
1.554
1.702
1.525
1.344
1.115
0.710
0.382
0.631
0.465
0.584
0.313
0.028
-0.217
-0.116
-0.106
0.089
-0.319
0.066
-0.801
0.137
1.115
1.062
0.529
-0.070
-0.393
-0.518
-0.277
-0.177
0.081
0.056
0.236
0.391
0.454
0.435
0.290
0.279
0.175
0.092
0.040
0.216
0.104
0.225
0.150
0.156
0.188
0.185
0.221
0.289
0.178
0.170
0.150
0.278
0.246
0.271
0.245
0.064
0.036
0.092
0.158
0.214
-0.010
0.059
0.124
0.106
0.013
-0.001
0.027
0.038
-0.035
-0.115
-0.043
0.040
-0.049
-0.061
-0.248
-0.056
0.011
-0.128
-0.976
-3.517
1.602
3.676
4.192
4.182
0.890
-3.033
-4.420
-4.196
-1.864
0.955
3.301
4.084
4.192
4.115
0.188
-0.732
2.484
3.417
2.379
-1.032
-3.469
-4.490
-4.025
-2.829
-1.396
-0.259
0.749
1.686
1.941
1.957
1.454
1.076
0.451
0.194
0.224
-0.282
-0.710
-0.357
-0.250
-0.118
-0.050
0.018
0.192
0.498
0.298
0.609
0.700
0.826
0.772
0.641
0.521
0.460
0.370
-1.214
-0.987
-0.248
0.491
0.742
0.675
0.361
-1.828
-1.749
-0.591
0.672
1.015
0.903
0.687
0.461
0.253
0.098
0.274
0.602
0.619
0.868
0.950
0.520
0.421
0.153
0.119
-0.078
-0.334
-0.346
-0.582
-0.578
-0.664
-0.671
-0.721
-0.630
-0.509
-0.495
-0.504
-0.590
-0.573
-0.506
-0.443
-0.320
-0.390
-0.551
-0.451
-0.240
-0.199
-0.165
-0.145
-0.098
0.109
-0.069
-0.218
-0.145
0.004
0.206
0.187
0.282
0.290
0.272
0.102
-0.576
0.220
0.669
0.705
0.619
0.403
0.290
0.220
0.737
0.750
0.230
0.147
0.223
-0.262
0.176
0.784
0.973
0.839
0.364
-0.157
-0.186
-0.198
-1.015
-0.140
0.858
0.764
0.238
-0.014
-0.164
-0.230
-0.217
-0.005
0.043
0.130
-0.084
0.047
0.103
0.022
-0.138
-0.002
-0.104
-0.143
-0.068
-0.144
0.039
0.149
-0.023
-0.101
0.050
-0.062
0.155
-0.057
0.071
-0.050
0.058
-0.033
0.029
0.037
0.105
0.052
0.099
-0.015
-0.030
-0.018
0.108
0.110
0.058
-0.058
0.026
0.119
0.024
-0.034
-0.044
0.064
-0.007
-0.019
0.000
0.059
-0.030
-0.035
-0.022
-0.054
-0.099
-0.057
-0.049
-0.003
0.082
-0.018
-0.116
-0.136
-0.116
-0.041
0.051
-0.015
-0.055
-0.047
-0.069
0.010
-0.086
-0.220
-0.216
-0.096
0.096
0.125
-0.038
-0.140
-0.120
-0.011
-0.083
0.006
-0.043
-0.080
-0.010
0.103
0.011
-0.032
0.101
0.131
0.092
0.049
-0.128
0.041
0.101
0.089
0.141
0.058
0.127
0.035
0.113
0.105
0.223
0.113
0.186
0.086
-0.008
0.136
0.177
0.111
0.151
0.122
0.153
0.130
0.055
0.120
0.095
0.037
0.121
0.022
0.151
0.138
0.164
-0.022
-0.004
-0.017
0.049
0.060
0.044
0.053
-0.061
0.028
-0.091
0.002
-0.202
-0.095
0.034
0.014
0.039
0.015
-0.078
-0.121
-0.016
-0.188
-0.073
-0.070
0.039
0.003
-0.083
-0.006
-0.129
-0.221
0.037
-0.051
-0.021
-0.147
-0.099
-0.123
0.032
-0.025
0.047
-0.196
-0.002
-0.096
-0.122
0.083
-0.085
0.046
0.066
0.096
-0.108
0.113
0.143
0.015
0.095
0.035
-0.012
0.085
0.110
0.042
0.071
0.047
0.052
0.160
0.037
0.211
0.103
0.111
0.049
-0.031
0.139
-0.062
0.098
0.076
0.010
0.186
0.034
-0.012
0.011
0.031
0.008
0.050
0.036
0.108
0.073
0.022
0.048
0.031
-0.059
-0.013
0.047
0.079
-0.005
0.067
0.015
-0.058
0.059
-0.041
0.009
0.032
-0.010
0.177
0.049
-0.020
-0.067
0.032
0.051
0.007
0.100
-0.081
-0.076
0.001
-0.004
-0.144
0.032
0.096
0.062
0.041
-0.062
0.047
-0.095
0.065
0.040
0.018
0.023
0.003
-0.051
-0.082
0.001
0.017
0.125
0.008
0.142
0.008
-0.189
0.026
0.087
0.024
-0.013
-0.087
0.161
0.067
-0.077
0.113
-0.051
0.021
-0.045
0.054
0.038
0.136
-0.064
-0.066
0.084
0.169
0.066
-0.116
-0.045
-0.029
0.106
0.045
0.083
-0.010
-0.097
-0.008
0.071
0.039
0.098
0.019
-0.039
0.120
-0.040
-0.034
0.037
-0.006
0.130
0.030
-0.055
0.022
0.025
0.047
0.096
-0.059
-0.053
0.123
0.033
0.089
0.022
-0.085
0.033
0.029
0.003
0.031
0.021
-0.097
0.018
0.109
0.026
0.023
0.007
0.009
-0.067
-0.059
-0.036
0.140
-0.014
-0.016
-0.080
-0.023
-0.007
-0.008
-0.064
0.084
0.174
-0.065
-0.024
0.028
0.103
0.081
-0.060
-0.008
-0.073
0.128
0.033
0.046
-0.092
0.034
-0.046
-0.027
0.049
0.104
-0.081
0.016
-0.045
-0.056
-0.010
0.028
0.051
0.069
0.078
-0.087
-0.023
0.013
-0.037
-0.058
0.010
0.169
-0.023
0.128
-0.000
-0.057
0.019
0.037
0.066
0.051
0.053
0.064
-0.032
0.018
0.144
0.049
-0.164
0.146
0.107
0.020
-0.001
-0.056
-0.063
0.120
0.056
-0.025
0.106
-0.076
-0.058
0.044
0.070
0.072
0.056
-0.056
0.003
0.021
-0.013
0.060
0.128
0.083
0.007
-0.000
0.151
0.027
0.012
0.024
0.046
0.136
0.172
-0.111
0.039
-0.012
0.089
-0.018
0.138
-0.061
-0.038
0.012
0.004
0.053
0.068
-0.041
-0.074
0.035
-0.034
0.083
-0.025
-0.027
0.018
0.046
0.053
0.053
-0.024
-0.021
0.090
-0.058
0.009
0.153
0.127
-0.068
-0.011
-0.109
0.180
0.128
-0.013
0.017
-0.022
0.085
-0.061
0.003
0.046
0.023
0.020
0.095
0.024
-0.049
0.025
-0.004
0.030
-0.102
0.042
0.039
0.018
0.051
-0.024
-0.112
0.053
0.089
0.010
-0.057
0.129
0.006
0.075
-0.002
0.045
0.019
-0.020
-0.052
-0.018
-0.004
0.069
0.103
-0.050
-0.043
0.170
-0.014
0.036
0.092
0.028
-0.120
0.074
0.009
0.044
0.069
-0.046
-0.016
0.019
0.112
-0.083
0.075
0.080
-0.017
0.064
0.038
0.096
-0.026
-0.074
0.049
-0.022
0.097
-0.015
-0.002
-0.029
0.050
-0.071
0.157
0.037
-0.044
-0.092
-0.001
0.120
0.090
-0.067
0.013
-0.119
0.114
0.058
0.084
0.093
0.019
-0.043
0.065
-0.021
0.082
0.010
0.012
-0.074
-0.035
0.051
0.014
0.035
-0.038
-0.800
-0.242
0.286
0.452
0.405
-0.092
-0.108
-0.103
-0.059
-0.003
0.192
0.194
0.207
0.092
0.116
0.097
0.081
0.126
0.103
0.034
-0.038
0.009
-0.063
-0.187
0.062
-0.040
-0.166
-0.137
0.052
0.113
0.004
0.024
0.039
0.010
-0.083
0.115
-0.045
0.076
0.046
0.074
0.121
0.024
0.030
-0.157
-0.006
0.028
0.151
0.037
0.044
0.040
0.190
0.001
0.099
0.229
-0.068
-0.148
-0.201
-0.028
0.169
0.327
0.542
1.129
0.995
0.453
0.118
0.169
0.118
0.314
0.313
0.423
0.525
0.329
0.234
0.008
0.158
-0.188
-0.198
-0.236
-0.309
-0.284
-0.309
-0.297
-0.061
-0.012
-0.119
0.062
0.074
-0.011
0.208
0.127
0.030
0.235
0.199
0.206
0.212
0.078
0.116
0.083
0.155
0.219
0.136
0.209
0.259
0.206
0.257
0.293
0.109
-0.048
0.158
0.198
0.051
0.239
0.243
0.047
0.074
-0.157
0.059
-0.012
0.045
0.056
0.123
0.085
0.026
-0.018
-0.028
-0.032
-0.061
-0.113
-0.151
0.003
-0.075
-0.084
-0.026
-0.008
-0.126
-0.153
-0.230
-2.867
-4.037
1.169
3.642
4.260
1.746
-1.448
-2.957
-3.284
-3.784
-4.190
-4.190
0.599
3.747
4.594
4.699
3.355
1.014
-1.191
-2.023
-1.589
-0.045
1.650
2.995
3.679
3.781
3.330
2.537
1.590
0.488
-0.443
-1.165
-1.646
-1.928
-1.950
-1.835
-1.562
-1.377
-0.931
-0.621
-0.297
-0.046
0.047
0.312
0.239
0.310
0.307
0.420
0.297
0.321
0.439
0.402
0.313
0.358
0.508
0.463
0.515
0.636
0.474
0.715
0.676
0.595
0.484
0.754
0.561
0.673
0.492
0.561
0.499
0.323
0.599
0.498
0.421
0.302
0.271
0.265
0.243
0.194
0.153
0.106
0.005
0.082
0.029
0.039
0.024
-0.149
-0.130
-0.252
-0.186
-0.044
-0.260
-0.170
-0.195
-0.196
-0.314
-0.188
-0.120
-0.431
-0.253
-0.410
-0.269
-0.322
-0.193
-0.210
-0.172
-0.320
-0.286
-0.213
-0.322
-0.235
-0.153
-0.240
-0.240
-0.117
-0.099
-0.137
-0.156
-0.072
-0.085
0.035
-0.090
0.025
-0.140
-0.027
0.086
-0.022
-0.022
0.000
0.142
0.041
-0.036
0.037
0.132
0.126
0.009
0.137
0.027
0.044
0.194
0.036
-0.024
0.172
0.098
0.207
0.031
0.088
0.023
0.203
0.144
0.042
0.008
-0.004
0.043
0.142
0.076
-0.095
0.064
-0.016
0.058
0.018
0.011
0.063
-0.047
0.005
-0.013
0.065
-0.018
0.001
-0.071
0.112
0.015
-0.034
0.140
-0.014
0.113
0.148
0.042
0.025
-0.101
0.028
0.094
0.238
0.171
0.000
-0.113
-0.067
-0.014
0.013
0.112
-0.019
0.077
0.074
0.019
-0.001
0.228
0.070
-0.032
0.072
0.054
-0.029
0.056
-0.041
-0.123
0.018
0.115
-0.104
-0.015
-0.045
-0.115
-0.014
-0.200
-0.123
-0.341
-0.415
0.021
-0.158
-0.304
-0.144
0.009
-0.111
-0.169
-0.146
-0.089
-0.212
-0.027
-0.070
-0.033
0.022
0.127
0.041
0.050
-0.047
-0.010
-0.084
0.033
-0.007
0.051
-0.118
0.029
-0.020
-0.073
0.022
0.079
-0.130
-0.129
-0.087
-0.002
0.025
-0.210
-0.047
-0.038
-0.134
-0.086
-0.065
0.067
0.044
-0.015
0.109
0.009
0.004
-0.033
0.123
-0.002
0.082
0.270
0.075
0.186
-0.067
-0.023
0.244
0.185
0.062
0.044
-0.025
-0.067
0.285
0.430
-0.180
-2.033
-3.666
-4.105
0.999
3.768
4.519
3.199
-2.111
-3.831
-4.244
-2.047
1.764
3.942
4.480
4.493
4.363
4.166
3.977
3.723
2.383
0.184
-1.528
-3.173
-4.290
-5.017
-4.170
-2.667
-1.890
-2.981
-4.017
-4.184
-2.620
1.783
2.494
3.733
3.281
1.407
-0.690
-1.620
-1.657
-0.652
1.182
3.091
4.404
4.754
4.698
4.571
4.291
3.528
2.506
1.356
0.263
-0.598
-0.922
-1.368
-1.520
-1.453
-1.140
0.166
0.878
0.436
-2.726
-1.348
-1.441
2.027
0.561
-0.955
2.309
-0.504
0.008
0.614
0.945
1.254
-0.544
-0.005
1.178
1.476
1.290
1.365
1.335
1.514
1.499
1.446
1.266
0.974
0.683
0.365
0.353
0.050
0.012
-0.100
-0.674
-1.888
2.384
1.500
-2.450
-2.488
0.983
2.469
1.855
0.432
-0.637
-0.873
-0.514
0.130
0.960
1.671
2.016
2.347
2.147
1.934
1.430
0.859
0.388
0.061
-0.205
-0.573
-0.692
-0.833
-0.822
-0.660
-0.490
-0.404
-0.422
-0.223
-0.091
-0.163
0.372
1.270
1.108
0.489
0.098
0.050
-0.141
0.102
0.419
0.452
0.418
0.327
-2.788
-0.604
2.577
2.331
1.285
0.045
-0.989
-1.118
-0.860
-0.474
0.187
0.552
0.813
0.957
0.943
0.875
0.649
0.463
0.437
0.146
0.167
-0.212
-2.008
0.797
1.760
1.201
0.563
-0.190
-0.219
-0.088
0.066
0.301
0.393
0.689
0.772
0.670
0.688
0.560
0.321
0.145
0.010
0.082
-0.026
-0.002
0.087
-0.104
0.034
0.011
0.020
-0.027
0.212
0.065
0.058
0.037
-0.009
-0.626
-0.589
-0.284
0.043
-0.183
-0.512
-0.260
0.246
0.431
0.303
-0.034
-0.074
-0.014
0.075
0.221
0.143
0.451
0.355
0.353
0.275
0.249
-0.036
-0.143
-0.159
-0.201
-0.124
-0.231
-0.258
-0.199
-0.246
-0.156
-0.228
-0.091
-0.196
-0.212
-0.178
-0.103
0.026
-0.044
-0.077
0.001
-0.049
-0.114
-0.102
-0.025
-0.082
0.064
0.055
-0.072
-0.119
0.001
0.112
-0.112
0.082
0.064
0.108
0.003
0.028
-0.050
-0.041
-0.023
-0.022
-0.054
0.027
0.059
0.039
0.120
0.088
-0.008
-0.622
-3.291
-4.034
0.994
3.734
4.458
3.980
-1.401
-3.663
-4.256
-3.241
0.757
3.557
4.401
4.530
4.425
4.271
-1.087
0.337
2.865
3.559
2.822
0.840
-1.687
-4.138
-4.949
-3.947
-2.114
-0.284
0.983
1.892
2.125
1.826
1.430
1.463
1.552
1.202
1.114
0.791
0.547
0.187
0.113
-0.118
-0.315
-0.175
-0.384
-0.335
-0.323
-0.090
0.321
0.404
0.423
0.596
0.594
0.712
0.700
0.619
0.623
0.804
0.687
0.582
0.589
0.693
0.532
0.564
0.601
0.463
0.341
0.243
0.260
0.315
0.271
0.449
0.202
0.273
0.172
-0.023
-0.011
0.010
0.022
-0.102
-0.005
0.048
0.061
0.218
0.069
-0.005
-0.011
-0.178
-0.147
-0.210
-0.081
-0.127
-0.100
-0.218
-0.196
-0.263
-0.304
-0.487
-0.507
-0.449
-0.489
-0.357
-0.406
-0.388
-0.426
-0.334
-0.246
-0.252
-0.242
-0.214
-0.139
-0.171
-0.182
-0.083
-0.159
0.001
-0.066
-0.072
0.034
-0.099
0.001
0.113
-0.006
-0.023
0.066
0.121
0.026
0.063
0.104
0.018
0.125
0.147
0.232
0.165
0.079
0.132
0.038
0.075
0.097
0.170
0.113
0.022
0.040
0.173
0.204
0.052
0.004
0.043
0.100
0.166
0.092
0.025
-0.111
0.027
0.198
0.056
0.029
0.017
0.046
-0.049
0.054
0.049
-0.059
0.011
-0.016
-0.060
-0.032
-0.065
-0.008
0.132
-0.048
-0.082
0.053
0.180
-0.068
-0.073
-0.037
-0.013
0.036
0.032
0.095
0.009
0.097
0.136
-0.043
0.099
0.031
0.031
0.067
0.009
-0.017
-0.038
0.108
-0.007
0.062
0.116
0.083
0.046
-0.003
-0.102
-0.080
-0.013
-0.018
-0.069
-0.124
0.006
0.038
-0.177
-0.240
-0.277
-0.036
-0.228
-0.213
-0.173
-0.381
-0.265
-0.452
-0.280
-0.763
-0.998
-0.698
-0.363
-0.035
-0.038
-0.138
-0.410
-0.355
-0.306
-0.312
-0.047
0.068
0.354
0.407
0.252
0.036
-0.025
0.268
0.213
0.106
0.145
0.140
0.005
-0.090
-0.092
-0.111
-0.164
-0.177
-0.321
-0.183
-0.047
-0.208
-0.200
-0.105
-0.118
-0.195
-0.074
-0.086
-0.058
-0.013
-0.107
-0.073
-0.055
-0.006
-0.011
0.026
-0.007
0.012
-0.058
-0.038
-0.585
-1.317
-2.123
-2.727
-2.112
0.944
3.522
2.646
1.525
0.987
0.086
0.014
0.150
0.612
1.293
1.560
1.936
1.993
1.723
1.276
0.820
0.145
-0.357
-0.552
-0.824
-0.877
-0.914
-0.722
-0.623
-0.454
-0.342
-0.327
-0.272
-0.045
0.098
0.182
0.074
0.046
0.030
0.177
0.010
0.115
0.118
0.077
0.237
0.279
0.269
0.213
0.144
0.197
0.513
0.282
0.317
0.241
0.379
0.305
0.234
0.352
0.122
0.248
0.179
0.268
0.189
0.246
0.197
0.086
0.116
0.143
0.192
0.170
0.132
0.096
0.134
-0.068
0.022
0.019
0.140
0.035
-0.119
-0.048
-0.109
-0.311
-0.123
-0.141
-0.110
-0.271
-0.757
-0.564
-0.617
-0.552
-0.321
0.273
0.220
0.029
-0.243
-0.240
-0.475
-0.251
0.127
0.174
0.093
0.221
0.200
0.121
0.142
0.213
-0.005
-0.212
-0.190
-0.167
-0.213
-0.236
-0.234
-0.190
-0.170
-0.021
-0.167
-0.111
-0.062
-0.105
0.009
-0.096
-0.130
-0.178
-0.046
0.108
0.164
0.092
-0.007
-0.110
0.031
0.053
-0.227
-0.188
-0.251
-0.269
-0.068
0.107
-0.041
-0.113
0.017
-0.153
0.126
0.174
-0.049
-0.056
0.041
0.130
0.158
0.233
0.103
0.021
-0.039
-0.106
0.016
-0.023
0.013
0.022
-0.138
-0.333
-0.208
-0.093
-0.101
-0.047
0.072
-0.100
-0.009
-0.005
0.087
0.139
0.036
0.165
0.074
0.079
0.220
0.048
0.092
0.074
-0.003
0.014
-0.158
0.015
-0.003
-0.001
-0.020
-0.070
-0.118
-0.106
-0.226
-0.034
0.054
0.077
-0.116
-0.249
-0.234
-0.195
0.013
-0.039
0.113
-0.090
-0.123
-0.020
0.031
0.094
-0.201
-0.066
0.114
-0.182
-0.033
0.199
0.264
-0.082
0.014
0.014
0.178
0.032
0.023
0.117
0.101
0.116
0.155
0.073
0.034
0.114
0.159
0.268
0.322
0.216
0.017
0.016
0.125
0.081
0.135
0.199
0.385
0.203
0.293
0.347
0.632
0.743
0.277
0.102
0.247
0.186
0.269
0.195
0.108
0.170
0.146
0.269
0.141
-0.047
0.046
-0.176
0.007
-0.144
-0.410
-0.267
-0.088
0.092
-0.020
0.170
0.174
-0.019
0.107
0.219
0.184
0.108
-0.011
0.117
0.304
0.336
0.196
0.073
0.128
0.194
0.130
0.168
0.201
0.278
0.231
0.176
0.156
-0.073
0.166
0.093
0.058
0.047
0.108
0.015
0.087
0.105
0.109
0.056
-0.221
-3.211
-4.064
1.719
3.861
4.400
1.553
-2.843
-4.154
-4.408
-4.161
0.568
3.589
4.400
4.531
4.401
4.224
4.020
3.509
1.647
-0.718
-2.546
-3.566
-4.107
-4.198
-3.651
-3.028
-2.041
-1.312
-0.677
0.018
0.389
0.605
0.692
0.635
0.552
0.626
0.438
0.270
0.139
0.086
0.135
0.005
0.170
0.187
0.164
0.263
0.297
0.285
0.293
0.205
0.286
0.300
0.410
0.186
0.282
0.209
0.112
0.144
0.049
0.140
-0.009
-0.006
0.100
0.060
-0.041
-0.089
-0.045
0.067
-0.095
-0.258
-0.193
-0.202
-0.338
-0.110
-0.185
-0.366
-0.297
-0.434
-0.162
-0.305
-0.339
-0.425
-0.246
-0.053
0.023
-0.206
-0.400
-0.325
-0.161
-0.194
-0.230
-0.067
-0.036
-0.059
-0.029
0.030
-0.027
-0.166
-0.231
-0.159
-0.070
-0.052
-0.021
-0.019
-0.153
-0.015
0.148
-0.005
-0.115
-0.124
-0.059
0.148
0.079
0.145
0.032
0.177
0.252
0.104
0.102
0.194
0.068
-0.034
0.186
0.086
0.021
0.084
0.195
0.128
0.068
0.061
0.087
-0.095
-0.085
0.037
-0.034
-0.120
0.091
0.153
0.163
0.093
-0.017
-0.060
-0.213
0.100
0.184
-0.181
-0.045
0.033
0.042
-0.304
-2.199
-3.761
-4.143
-4.142
0.166
3.656
4.616
4.808
0.783
-2.916
-3.994
-4.214
-1.010
2.262
-2.174
2.246
4.065
4.517
4.475
4.306
1.842
-1.209
-3.403
-4.590
-4.847
0.364
3.124
3.804
2.049
-0.394
-1.698
-1.940
-0.988
-0.189
0.911
1.584
1.650
1.601
1.260
0.698
0.214
-0.212
-0.657
-1.000
-1.212
-1.119
-1.081
-0.941
-0.733
-0.581
-0.207
-0.026
0.088
0.164
0.410
0.314
0.493
0.398
0.396
0.366
0.412
0.585
0.446
0.442
0.478
0.470
0.522
0.463
0.540
0.621
0.514
0.359
0.447
0.424
0.580
0.523
0.317
0.315
0.264
0.401
0.336
0.104
0.131
0.059
0.010
-0.580
-0.907
-1.959
-3.590
-4.063
-3.222
-3.778
-0.010
3.612
4.641
3.139
-2.144
-3.738
-3.495
-0.547
2.913
4.046
4.368
4.278
3.973
-0.811
1.646
3.013
3.315
2.819
-0.038
-2.472
-3.994
-4.384
-4.313
-3.576
-2.723
-1.355
-0.423
0.179
0.389
0.272
0.105
0.023
-0.141
-0.271
-0.223
-0.112
0.009
0.196
0.176
0.167
0.270
0.487
0.426
0.311
0.335
0.384
0.408
0.424
0.566
0.384
0.378
0.288
0.483
0.499
0.650
0.631
1.077
0.981
0.907
1.083
0.325
-2.269
-2.147
0.711
2.210
1.463
0.101
-0.006
0.150
0.094
0.633
0.971
0.878
0.651
0.512
0.621
0.555
0.608
0.738
0.691
0.673
0.228
-0.020
-0.498
-0.480
-0.520
-0.575
-0.712
-0.627
-0.744
-0.643
-0.597
-0.389
-0.300
-0.307
-0.932
-0.680
-0.230
0.076
0.175
0.219
-0.034
-0.145
-0.057
-0.009
0.241
0.588
0.825
0.584
0.413
0.508
0.385
0.396
0.529
0.517
0.595
0.486
0.346
0.089
0.030
-0.137
-0.243
-0.255
-0.274
-0.296
-0.385
-0.399
-0.316
-0.258
-0.178
-0.176
-0.144
-0.076
-0.135
-0.133
-0.166
-0.102
-0.387
-0.544
0.001
0.063
0.294
-0.286
-0.530
-0.399
-0.067
0.019
-0.063
-0.193
-0.222
-0.246
-0.175
-0.029
0.023
0.136
0.049
-0.101
-0.061
0.019
-0.009
0.044
-0.014
0.061
-0.007
0.134
0.204
0.070
-0.006
0.084
0.126
0.106
0.083
0.103
0.123
0.151
0.165
0.165
0.031
0.125
0.105
0.030
0.019
0.115
0.214
0.105
-0.159
-1.478
-1.037
1.394
-1.073
-0.023
-3.046
1.762
3.897
4.120
1.709
-0.661
-2.728
-2.135
-2.141
1.491
3.153
3.094
2.585
1.851
1.221
0.669
0.285
0.076
-0.314
-0.427
-0.535
-0.697
-0.688
-0.755
-0.539
-0.553
-0.603
-0.456
-0.198
-0.143
-0.143
-0.033
-2.545
0.122
1.604
1.693
-0.206
-2.782
2.373
4.120
3.876
1.394
-0.739
-1.527
-1.227
-0.352
0.597
1.392
1.961
2.069
1.999
1.858
1.269
0.835
0.375
-0.045
-0.243
-0.547
-0.727
-2.186
-2.894
-3.586
1.043
3.850
4.637
3.367
-0.462
-2.648
0.765
2.101
1.741
0.705
1.503
1.976
0.124
2.304
1.616
2.196
1.971
0.916
-0.513
-0.341
-0.053
-0.317
-0.539
-0.600
-0.621
-0.651
-0.459
-0.588
-0.335
0.074
-0.845
0.326
1.194
0.688
0.408
0.255
0.103
0.005
0.269
0.386
0.405
0.688
0.673
0.737
0.798
0.542
0.424
0.378
0.420
0.306
0.192
0.387
0.257
0.073
-0.528
-0.544
0.065
0.526
0.463
0.230
-0.184
-0.194
-0.117
0.033
0.037
-0.011
0.165
0.091
0.102
0.028
0.027
-0.107
0.063
0.077
-0.380
-2.604
-3.580
-3.732
2.202
3.982
4.394
2.880
-1.276
-3.816
-4.498
-1.583
2.673
3.915
4.164
4.101
3.946
3.758
3.515
3.000
2.072
1.143
0.185
-0.546
-1.459
-4.134
-1.965
0.700
0.587
-0.756
-1.725
-2.008
-1.780
-1.877
-1.467
0.380
1.182
1.176
0.632
1.307
1.493
1.151
0.924
0.504
0.458
0.446
0.648
0.680
0.710
0.932
0.914
1.013
1.091
1.029
1.121
1.015
1.062
1.005
0.958
0.840
0.920
0.802
0.788
0.546
0.761
0.813
0.596
0.544
0.562
0.547
0.523
0.283
0.337
0.363
0.073
0.181
0.067
0.056
0.061
-0.108
-0.167
-0.059
-0.221
-0.234
-0.303
-0.429
-0.338
-0.423
-0.345
-0.297
-0.383
-0.333
-0.468
-0.391
-0.523
-0.474
-0.382
-0.428
-0.469
-0.426
-0.386
-0.350
-0.341
-0.347
-0.282
-0.294
-0.310
-0.395
-0.248
-0.173
-0.074
-0.188
-0.106
-0.106
-0.066
-0.108
0.016
-0.089
-0.175
0.085
0.095
0.106
0.020
0.145
0.020
0.041
0.161
0.066
0.016
0.138
-0.090
-0.454
0.121
0.368
0.345
0.034
-0.130
-0.043
0.059
-0.195
-1.833
-2.684
0.668
2.292
1.146
-1.950
-3.638
1.904
-1.442
2.341
4.036
4.429
0.318
-3.192
-4.217
-3.944
-1.094
2.639
4.117
4.422
4.383
4.251
4.048
3.869
3.687
2.826
0.714
-1.166
-2.285
-2.582
-2.520
-2.252
-1.970
-1.144
-0.469
0.027
0.052
0.038
-0.002
0.041
0.067
0.152
0.010
0.203
0.123
-0.537
-2.887
-3.500
-1.924
1.839
3.589
3.038
1.103
-0.080
-0.769
-0.922
-0.403
0.712
1.866
2.526
3.053
3.231
2.996
2.759
2.116
1.618
1.167
0.569
0.103
-0.202
-0.469
-0.592
-0.617
-0.607
-0.581
-0.465
-0.357
-0.304
-0.212
-0.362
-0.199
-0.265
-0.555
-0.161
-1.169
-1.300
-0.581
-0.046
0.156
-0.110
-0.377
-0.441
-0.483
-0.372
-0.365
-0.185
0.071
0.098
-0.071
0.031
0.165
0.197
-0.045
-0.077
0.012
0.002
0.036
-0.021
-0.097
-0.051
-0.014
0.143
0.086
0.229
0.232
0.096
0.211
0.241
0.219
0.293
0.367
0.244
0.200
0.218
0.206
0.291
0.227
0.276
0.276
0.246
0.197
0.124
0.183
0.207
0.200
0.218
0.156
0.017
-0.015
0.086
0.194
-0.027
0.067
-0.048
-0.008
0.004
-0.102
0.089
-0.203
-0.038
-0.122
-0.181
-0.159
-0.029
-0.140
0.027
-0.061
-0.135
-0.029
-0.248
-0.146
0.019
-0.046
-0.132
-0.033
0.015
-0.167
-0.112
-0.078
0.042
0.063
0.012
-0.039
-0.026
-0.051
-0.003
-0.040
-0.055
0.066
0.131
0.083
-0.096
0.094
0.020
0.011
0.134
0.055
0.141
-0.043
0.123
0.008
0.035
0.034
0.130
0.143
0.173
0.002
0.071
0.191
0.064
0.041
0.091
0.044
0.013
0.027
0.032
0.100
0.115
0.016
-0.092
-0.096
0.027
0.040
0.091
-0.112
0.050
-0.034
0.052
-0.078
-0.127
-0.010
-0.019
0.002
-0.090
0.024
-0.027
-0.212
0.013
-0.021
-0.049
-0.038
-0.028
0.020
0.083
-0.140
0.140
0.289
0.947
1.176
0.649
0.246
0.146
0.153
0.305
0.290
0.444
0.469
0.353
0.331
0.128
0.047
-0.180
-0.175
-0.224
-0.252
-0.298
-0.264
-0.133
-0.020
-0.141
0.006
0.044
0.167
0.110
0.225
0.153
0.207
0.295
0.181
0.311
0.162
0.099
0.265
0.077
0.219
0.343
0.174
0.176
0.046
0.152
0.270
0.211
0.124
0.146
0.131
0.110
0.140
0.101
0.118
0.072
0.031
0.059
0.108
-0.032
-0.047
0.096
0.022
0.020
-0.066
-0.136
-0.141
-0.069
-0.038
-0.141
-0.184
-0.123
-0.019
-0.068
-0.209
-0.081
-0.157
-0.127
-0.180
-0.080
-0.072
-0.164
-0.149
-0.144
-0.069
-0.056
-0.022
-0.105
-0.030
-0.134
-0.053
-0.076
-0.041
-0.132
0.067
-0.097
-0.107
0.010
0.113
0.012
0.046
-0.049
-0.022
-0.020
0.029
0.014
-0.026
0.061
0.046
-0.083
0.019
0.121
0.041
0.294
0.029
0.072
0.010
0.029
0.030
0.062
0.001
0.033
0.037
-0.001
0.072
0.017
0.073
-0.036
0.028
-0.007
0.026
-0.074
0.078
0.032
-0.075
0.025
0.092
0.077
-0.023
-0.137
0.125
-0.022
-0.035
0.031
-0.096
-0.012
0.072
-0.119
-0.195
-0.290
-0.396
-0.197
-0.182
0.294
0.458
0.273
0.008
0.083
-0.092
-0.063
0.103
0.070
0.057
0.047
0.262
0.299
0.074
0.143
0.036
0.066
-0.018
-0.013
-0.066
-0.121
-0.222
-0.074
-0.003
-0.024
0.011
0.006
0.011
-0.070
-0.045
0.044
0.074
0.117
0.005
-0.019
0.017
-0.069
-0.049
0.028
-0.003
0.018
-0.138
-0.236
-0.099
0.051
0.178
0.063
0.053
0.077
-0.026
-0.108
-0.009
-0.027
-0.004
0.072
0.055
-0.097
-0.045
0.031
-0.027
0.090
0.030
-0.140
-0.214
0.039
-0.028
-0.078
-0.190
-0.009
-0.197
-0.902
-0.961
-0.490
0.660
1.135
0.821
0.170
-0.153
-0.411
-0.095
0.070
0.253
0.392
0.452
0.410
0.520
0.309
0.241
0.082
0.012
-0.149
-0.246
-0.094
-0.198
-0.150
-0.139
-0.265
-0.138
-0.092
-0.053
-0.012
-0.032
-0.072
0.103
0.029
-0.087
0.050
0.019
0.078
0.040
-0.086
0.095
-0.065
0.174
-0.058
0.087
0.040
0.049
-0.321
-2.461
-2.744
-1.214
2.778
1.584
1.133
3.484
4.041
-1.048
-3.612
-4.245
-1.628
2.587
3.495
1.151
3.461
4.049
4.115
4.009
3.304
0.566
-1.819
-3.400
-3.735
-3.545
-3.421
-2.874
-2.067
-1.310
-0.564
0.106
0.382
0.743
0.883
0.662
0.421
0.451
0.415
0.174
0.071
0.150
0.102
0.127
0.174
0.220
0.319
0.311
0.344
0.351
0.370
0.337
0.368
0.303
0.245
0.571
0.547
0.394
0.360
-1.461
-3.476
-3.665
2.318
4.129
4.539
2.847
-2.215
-3.987
-4.432
-4.013
-0.920
2.719
4.089
4.377
4.309
4.123
3.930
3.718
3.367
2.619
0.721
-1.174
-2.399
-3.028
-2.919
-2.511
-1.632
-1.146
-0.675
-0.258
0.032
0.015
0.084
-0.037
-0.147
-0.319
-0.252
-0.130
-0.234
-0.211
-0.044
0.032
0.129
0.329
0.487
0.527
0.575
0.786
0.628
0.853
0.849
0.820
0.804
0.815
0.761
0.888
0.900
0.821
0.771
0.705
0.676
0.762
0.655
0.639
0.684
0.438
0.483
0.431
0.421
0.353
0.189
0.225
0.163
0.100
0.081
0.125
0.022
-0.061
-0.164
-0.260
-0.068
-0.259
-0.373
-0.230
-0.213
-0.352
-0.364
-0.388
-0.504
-0.451
-0.441
-0.487
-0.307
-0.546
-0.435
-0.444
-0.389
-0.613
-0.602
-0.341
-0.267
-0.388
-0.272
-0.240
-0.167
-0.173
-0.195
-0.188
-0.209
-0.086
-0.133
-0.155
-0.008
0.028
0.059
0.033
-0.044
-0.006
-0.020
0.104
0.150
0.075
-0.007
-0.141
0.089
0.101
0.233
0.134
0.016
0.088
0.043
0.003
0.014
0.146
0.086
-0.055
0.005
0.150
0.104
0.004
-0.025
-0.032
-0.057
0.055
0.071
-0.040
0.052
0.013
0.057
0.043
-0.104
-0.023
0.014
-0.018
0.120
0.056
-0.220
0.012
0.166
0.055
0.107
0.095
0.048
-0.178
0.048
0.034
0.037
0.075
-0.025
0.081
0.082
0.088
0.097
0.001
-0.152
0.004
0.184
0.120
0.043
-0.091
-0.119
-0.169
-0.157
-0.539
0.172
0.528
0.045
-0.198
-0.065
-0.245
-0.382
-0.109
0.048
-0.098
-0.067
-0.650
-0.809
-0.789
-0.244
-0.129
-0.311
-0.435
-1.706
-1.062
-0.803
-0.416
-0.851
-1.289
-0.797
-1.035
-2.759
-2.433
-0.926
-0.708
-0.143
-0.929
-0.652
-1.320
-1.609
-1.803
-1.408
-1.248
-3.199
-0.953
-0.756
0.712
3.535
4.287
3.391
2.132
0.915
0.580
0.970
1.702
2.215
2.612
2.505
2.139
1.698
0.813
-0.085
-0.675
-1.366
-1.951
-2.140
-2.246
-2.335
-2.085
-1.783
-1.646
-1.209
-0.904
-0.815
-0.563
-0.330
-0.029
0.038
0.189
0.233
0.237
0.399
0.491
0.562
0.655
0.824
0.788
0.854
0.913
0.977
1.110
1.227
1.168
1.184
1.237
1.147
1.358
1.530
1.674
2.136
2.262
1.900
1.529
1.280
1.101
1.139
1.181
1.357
1.152
1.114
0.791
0.667
0.336
0.193
0.110
-0.116
-0.273
-0.207
-0.216
-0.345
-0.253
-0.310
-0.272
-0.219
-0.131
-0.281
-0.212
-0.265
-0.263
-0.286
-0.345
-0.281
-0.140
-0.268
-0.373
-0.506
-0.179
-0.301
-0.229
-0.114
-0.237
-0.140
-0.344
-0.211
-0.276
-0.353
-0.019
-0.047
0.033
-0.001
-0.164
-0.113
-0.074
-0.127
0.015
0.051
-0.033
-0.054
-0.125
-0.078
-0.066
-1.824
-3.643
-4.113
-1.037
3.193
4.401
4.652
2.100
-2.296
-3.923
-4.102
-2.037
0.992
3.517
4.322
3.569
4.058
4.078
3.128
-2.676
-3.601
0.306
1.742
0.771
-0.839
-1.339
-2.298
-2.741
-2.488
-4.003
-0.081
3.039
3.868
3.541
2.788
1.938
1.361
0.339
-0.015
-0.341
-0.621
-0.365
-0.304
-2.180
-1.746
0.976
1.552
0.856
0.249
-0.745
-0.123
0.344
0.638
0.786
0.956
0.862
1.028
1.221
1.207
-1.197
-0.167
3.664
-1.218
1.996
4.260
4.258
-1.487
0.211
-1.158
-0.127
2.053
2.215
2.229
0.279
-0.502
3.126
4.168
4.089
2.597
0.972
-0.110
-0.660
-0.738
-0.616
-0.506
-0.321
-0.201
-0.224
-0.070
-0.210
-0.358
-0.394
-0.570
-0.739
-2.675
-4.015
-0.663
3.152
4.236
-0.961
0.044
-0.130
-1.092
-3.050
-3.189
1.191
3.833
4.507
3.847
2.940
0.027
2.280
2.721
1.266
0.356
0.442
0.159
-0.384
-0.725
-2.749
1.270
2.237
1.930
0.833
-0.157
-0.524
-2.950
-2.809
2.283
3.942
3.143
1.449
-0.012
-0.569
-0.601
-0.217
0.320
0.785
0.889
1.184
0.922
0.728
0.792
0.563
0.318
-0.042
0.013
-0.229
-2.321
-3.649
-1.416
3.163
4.515
3.743
0.688
-1.836
-2.675
-2.323
-1.146
0.492
1.689
2.690
3.374
3.422
3.003
2.482
1.843
1.087
0.419
-0.149
-0.457
-0.873
-0.811
-0.805
-0.738
-0.622
-0.336
-0.239
-0.082
-0.042
0.205
0.039
0.083
0.741
1.285
1.029
0.614
0.150
-2.562
-2.688
-0.131
1.269
1.631
1.226
0.405
-0.422
-0.255
-0.623
-0.111
0.271
0.358
0.032
0.523
0.661
0.185
0.063
0.277
0.463
0.332
0.089
0.171
0.268
-0.084
0.059
-0.146
0.169
0.278
0.275
0.148
0.137
0.370
0.449
0.280
0.454
0.355
0.240
0.177
-0.027
-0.006
-0.344
-0.496
-0.224
-1.489
-3.606
-1.608
2.805
4.147
4.181
1.767
-1.095
-2.362
-2.142
-1.240
0.106
1.325
1.930
2.454
2.396
2.139
1.534
0.719
0.067
-0.397
-0.796
-1.018
-1.073
-1.055
-1.043
-0.844
-0.602
-0.283
-0.137
0.099
0.156
0.609
0.475
0.191
0.110
0.069
-1.177
-2.764
-3.558
-1.872
1.046
2.072
1.560
0.867
-0.115
-0.395
-0.297
-0.464
0.362
1.418
2.012
2.040
1.860
1.902
1.470
1.228
1.002
0.127
0.123
0.213
0.161
-0.213
-0.615
-1.002
-0.980
-0.630
-0.572
-0.429
-0.390
-0.263
-0.373
-0.409
-0.384
-0.316
-0.207
-0.200
-0.306
-0.276
-0.285
-0.390
-0.461
-0.068
-0.166
-0.079
-0.177
-0.031
-0.025
-0.067
-0.051
0.012
0.003
0.006
0.059
0.064
0.106
0.025
0.175
0.148
0.129
0.341
0.236
0.114
0.163
0.376
0.350
0.141
0.295
0.238
0.150
0.323
0.223
0.271
0.326
0.303
0.135
0.150
0.163
0.215
0.212
0.195
0.037
0.099
0.097
0.033
0.104
0.108
0.097
0.016
0.081
-0.039
0.019
-0.057
0.051
-0.086
-0.054
-0.007
0.009
-0.144
-0.190
0.043
-0.053
-0.087
-0.035
-0.083
0.077
-0.050
-0.109
-0.041
-0.013
-0.128
-0.030
-0.010
0.007
-0.083
-0.046
0.075
-0.012
-0.023
-0.051
0.124
0.059
-0.008
0.017
0.033
0.073
-0.007
0.015
0.145
0.052
0.067
0.159
0.103
0.019
0.009
-0.017
0.055
0.030
0.151
0.053
0.009
-0.071
-0.118
0.152
0.022
0.071
0.076
-0.009
-0.039
0.020
-0.005
0.092
0.008
0.006
-0.006
0.010
0.005
-0.090
0.105
0.057
-0.108
-0.028
-0.088
0.024
0.040
0.015
-0.024
-0.073
0.130
0.148
-0.019
-0.175
-0.044
0.142
0.063
-0.085
0.000
0.159
-0.053
-0.018
0.029
-0.032
0.113
-0.090
-0.095
0.058
-0.048
-0.120
-0.029
0.132
0.178
0.069
0.036
0.236
0.013
0.091
-0.017
-0.124
-0.176
-0.024
0.260
0.286
0.142
0.014
0.043
-0.036
0.064
-0.011
0.141
0.103
0.071
0.014
0.092
0.127
0.020
0.066
0.053
0.165
-0.073
-0.008
0.029
-0.031
-0.074
-0.064
-0.026
-0.025
-0.019
0.011
-0.003
0.003
-0.070
-0.026
-0.138
0.052
-0.044
0.026
0.110
-0.080
0.041
-0.059
-0.146
0.014
-0.087
0.067
0.021
0.106
-0.011
-0.000
0.097
-0.049
0.028
-0.039
-0.042
-0.016
0.224
0.032
-0.009
-0.064
-0.072
0.090
0.110
0.036
0.094
0.023
-0.052
0.056
0.015
-0.036
0.059
0.118
0.068
0.055
0.028
0.017
0.135
-0.044
0.133
-0.021
0.006
0.074
0.036
0.041
0.117
-0.069
0.153
0.032
0.067
0.037
0.002
0.067
-0.018
0.055
0.129
-0.001
0.072
-0.041
-0.054
0.001
-0.014
-0.016
-0.053
0.051
0.137
0.053
-0.104
0.006
-0.012
-0.116
0.137
0.005
0.054
-0.072
0.028
0.037
0.028
0.099
-0.101
-0.025
0.103
0.018
-0.083
0.127
0.015
-0.168
0.067
-0.049
0.097
0.019
0.021
-0.062
-0.046
0.006
0.011
0.011
0.006
0.011
0.054
0.075
-0.034
0.003
0.029
0.083
0.014
-0.022
0.026
0.097
0.069
-0.017
0.113
-0.005
0.061
-0.083
0.019
0.102
0.174
0.005
-0.097
-0.048
0.069
-0.008
0.035
0.134
0.024
0.017
-0.006
0.134
0.015
-0.017
0.054
0.029
0.045
0.002
0.027
0.035
-0.027
0.067
0.007
-0.079
0.037
0.150
-0.053
-0.035
0.061
0.030
-0.007
0.081
-0.119
-0.035
0.059
0.103
0.108
-0.055
0.028
-0.087
0.019
0.055
-0.034
0.079
0.024
-0.023
0.013
-0.034
0.074
0.127
0.023
-0.080
-0.031
0.065
-0.009
0.098
-0.073
-0.013
-0.028
0.061
0.032
-0.072
-0.016
0.087
-0.041
-0.008
0.078
-0.063
-0.064
0.017
0.118
0.103
0.057
-0.056
-0.098
0.081
0.075
0.015
-0.049
0.172
0.082
0.268
0.032
-0.023
-0.012
-0.103
0.064
-0.030
-0.035
-0.041
0.051
0.030
0.040
-0.007
-0.018
-0.051
-0.097
0.061
-0.053
0.066
0.078
0.055
0.096
-0.064
0.124
0.030
0.025
0.154
0.001
0.060
0.029
0.011
0.101
-0.065
-0.023
0.103
0.069
-0.008
0.021
-0.012
0.055
0.001
0.080
0.042
-0.021
-0.037
0.087
0.060
0.011
-0.014
-0.040
0.074
0.083
0.125
-0.008
-0.007
0.037
0.048
0.048
-0.021
-0.130
0.130
0.148
0.033
-0.048
0.042
-0.126
-0.013
0.090
-0.014
-0.019
0.045
0.005
0.045
0.025
0.021
0.003
-0.033
-0.065
0.082
-0.002
0.153
0.079
-0.131
-0.118
0.006
0.078
0.041
0.000
-0.083
0.035
0.051
0.091
-0.019
-0.023
-0.014
0.056
0.069
-0.074
0.019
0.002
0.038
-0.081
0.077
0.032
0.150
-0.119
0.018
0.136
0.068
-0.025
-0.010
0.075
0.058
-0.030
-0.092
-0.111
-0.027
0.138
0.092
-0.063
0.125
0.157
-0.053
0.168
0.079
-0.150
0.038
0.233
0.075
-0.151
-0.012
0.138
-0.063
-0.086
0.038
-0.083
0.167
0.059
-0.173
-0.014
-0.057
0.068
-0.005
-0.074
0.038
0.068
-0.055
0.154
0.100
-0.065
-0.048
-0.093
0.144
0.021
0.013
-0.009
0.017
0.163
-0.067
0.009
0.055
-0.060
-0.053
0.060
0.083
0.143
0.048
0.036
-0.075
0.060
-0.006
0.157
-0.046
0.036
0.010
0.042
0.056
0.053
0.089
0.023
-0.018
0.000
0.069
0.008
0.104
-0.097
0.112
-0.063
-0.457
0.288
0.498
0.470
-0.989
-0.202
-0.180
0.041
0.155
0.620
1.294
-0.312
-0.918
0.033
0.957
0.887
0.841
0.514
0.313
-0.583
-3.405
-2.334
0.869
2.397
2.473
0.029
-0.625
0.060
-0.036
-0.449
-0.462
-0.316
0.116
0.226
-1.315
-2.915
0.367
3.207
3.506
1.991
0.159
-1.175
-1.146
-0.940
-0.351
0.147
0.676
0.856
1.094
1.170
0.886
0.634
0.260
0.007
-0.145
-0.418
-0.469
-0.400
-0.396
-0.242
-0.161
-0.062
-0.092
-0.193
-0.120
0.187
0.175
0.180
0.070
0.060
0.094
0.112
0.076
0.088
0.112
0.187
0.144
0.174
0.251
-0.097
0.169
-1.303
-3.428
0.264
3.481
3.497
4.176
-0.429
-3.373
-0.767
2.567
3.692
1.997
0.337
0.667
1.388
2.049
2.107
2.306
2.151
1.925
1.632
0.931
0.172
-0.650
-1.228
-1.406
-1.714
-1.499
-1.314
-1.211
-0.859
-0.819
-0.717
-0.402
-0.579
-1.674
-3.330
-2.446
0.140
1.667
2.008
1.371
0.551
0.280
0.089
0.361
0.641
1.096
1.671
2.074
2.149
2.337
2.268
2.003
1.791
1.353
1.051
0.491
0.375
0.251
-0.081
-0.414
-0.195
-0.040
-0.034
-0.345
-0.339
-0.246
-0.103
-0.097
-0.017
-0.020
0.104
-0.252
-0.402
-0.200
-0.212
-0.108
-0.319
-0.316
-0.373
-0.439
-0.270
-0.325
-0.112
-0.124
-0.222
-0.167
-0.461
-0.539
-0.096
-0.084
-0.013
-0.102
-0.022
0.111
0.289
0.034
-0.018
-0.065
-0.087
-0.207
-0.170
0.055
0.241
0.161
0.196
0.118
-0.027
-0.054
0.000
0.086
0.136
0.010
0.183
0.133
0.311
0.332
0.164
0.005
0.159
0.220
0.355
0.450
0.532
0.632
0.507
-0.025
-0.193
-0.179
-0.216
-0.067
-0.081
0.174
0.361
0.823
0.611
0.230
-0.146
-0.317
-0.324
-0.045
0.034
0.187
0.076
0.292
0.337
0.297
0.045
-0.031
-0.090
-0.259
-0.164
-0.296
-0.234
-0.067
-0.115
-0.099
0.030
-0.195
0.023
0.144
0.030
0.028
-0.028
0.131
0.187
0.192
0.204
0.031
0.193
0.144
0.143
0.145
0.078
0.057
0.253
0.325
0.148
0.180
0.123
0.152
0.272
0.108
0.072
-0.131
0.373
0.789
0.643
0.350
0.035
0.095
-0.330
-3.328
-3.783
-1.348
-0.118
-0.587
0.146
-0.029
-0.666
-1.135
-0.986
-0.666
-0.305
0.170
0.794
1.163
1.389
1.816
1.748
1.641
1.550
1.241
0.827
0.423
0.009
-0.232
-0.469
-0.698
-0.636
-0.716
-0.640
-0.705
-0.810
-0.523
-0.395
-0.276
-0.331
-0.407
-0.319
-0.294
-0.218
-0.156
-0.015
0.048
0.008
0.130
0.443
0.569
0.727
0.857
0.594
0.342
0.469
0.455
0.538
0.572
0.599
0.604
0.464
0.543
0.411
0.202
0.076
0.131
-0.056
0.067
0.075
0.026
0.145
0.233
0.339
0.508
0.392
0.460
0.369
0.273
0.303
0.248
0.183
0.361
0.398
0.213
0.080
0.077
0.175
0.047
0.177
0.207
0.160
0.022
0.102
0.026
0.048
0.057
0.091
0.124
-0.005
-0.032
0.065
-0.220
-0.149
-0.066
-0.028
-0.094
-0.046
0.024
-0.354
-0.553
-3.283
0.042
1.703
1.268
0.469
-2.712
-4.064
-1.416
2.833
4.060
4.111
0.265
-2.127
-3.843
-2.325
-0.467
1.381
2.454
0.898
3.266
2.208
1.784
1.747
3.277
2.581
0.276
-3.241
-1.534
2.085
2.389
0.697
-0.782
-1.379
-1.195
-0.616
0.183
0.788
1.238
0.718
1.197
1.251
0.870
0.343
0.041
-0.392
-0.437
-0.447
-0.517
-0.256
-0.127
0.087
0.234
0.415
0.695
0.692
0.650
0.721
0.825
0.757
1.033
0.923
0.716
0.268
0.954
1.141
-0.618
-1.376
0.503
-1.784
-0.950
3.587
4.887
4.201
0.786
-2.029
-2.707
-2.002
-0.778
-2.832
-0.552
3.426
4.542
4.290
1.215
1.199
0.348
-0.468
-0.887
-0.944
-1.515
-0.122
0.853
0.069
-0.038
0.922
-0.872
0.590
0.806
-1.517
-4.051
0.850
3.003
2.464
0.119
-1.385
-1.952
-1.862
-1.195
-0.202
0.358
1.001
1.201
1.219
1.017
0.390
0.264
-0.204
-0.460
-0.668
-0.882
-0.838
-0.700
-0.443
-0.411
-0.139
0.156
0.190
0.352
0.451
0.334
0.314
-1.848
-3.086
2.523
4.440
4.928
2.724
-0.920
-2.789
-2.815
-1.329
0.435
2.136
3.277
3.926
3.991
3.683
2.798
1.713
0.618
0.093
-0.347
-0.824
-1.027
-1.264
-1.357
-1.132
-1.049
-2.717
-2.322
-0.113
2.066
1.840
1.083
0.174
-0.238
-0.327
-0.155
0.151
0.403
0.587
0.885
-0.197
0.133
-2.001
-3.569
0.737
3.697
4.517
2.455
-1.283
-3.318
-3.446
-2.172
-0.207
1.829
3.124
3.883
3.983
3.619
2.838
1.624
0.610
-0.039
-0.555
-1.079
-1.447
-1.492
-1.397
-1.409
-1.407
-0.876
-0.219
0.027
0.068
-0.024
-1.601
-3.653
-3.026
2.425
4.086
4.394
1.257
-2.075
-3.626
-3.506
-2.164
-0.252
1.685
3.177
4.079
4.267
3.909
3.185
2.459
1.422
0.536
-0.289
-0.911
-1.255
-1.458
-1.369
-1.214
-1.005
-0.758
-0.603
-0.302
-0.033
0.256
0.527
1.191
1.172
0.739
0.493
0.519
-0.500
-3.203
-1.600
2.620
2.828
0.337
-0.505
-0.447
-0.063
-0.212
-0.141
0.810
1.730
1.657
1.292
0.980
1.002
1.192
1.262
1.404
1.130
0.980
0.788
0.716
0.427
0.211
-0.082
-0.162
-1.587
-3.582
-0.285
3.254
4.263
3.224
0.615
-1.600
-2.383
-2.357
-1.571
0.369
1.909
2.611
2.408
2.017
1.538
1.062
0.542
0.171
-0.123
-0.454
-0.627
-0.755
-0.871
-0.769
-0.695
-0.428
-0.232
0.013
-0.186
-0.288
-0.184
-0.156
0.082
0.339
0.222
0.212
0.236
0.212
0.165
-0.038
0.219
0.296
0.226
0.239
0.423
0.468
0.293
0.269
0.233
0.278
0.317
0.356
0.240
0.132
0.308
0.293
0.210
0.079
0.208
0.090
0.222
0.165
0.133
0.216
-0.087
-0.450
-2.873
-3.917
-1.556
2.963
4.267
4.217
1.101
-1.732
-3.522
-3.775
-2.099
0.540
2.899
4.073
4.329
4.241
4.076
3.758
2.807
1.408
-0.031
-1.210
-2.133
-2.428
-2.490
-2.436
-2.071
-1.755
-1.277
-0.938
-0.461
-0.164
0.063
0.198
0.379
0.266
0.449
0.379
0.362
0.261
0.299
0.223
0.252
0.403
0.410
0.391
0.505
0.540
0.560
0.544
0.480
0.517
0.635
0.695
0.684
0.555
0.624
0.322
0.511
0.386
0.418
0.497
0.377
0.207
0.239
0.220
0.081
-0.135
-0.308
-1.042
-1.356
-1.998
-2.760
-2.807
-3.575
-3.906
-1.655
1.050
1.649
0.035
-1.010
-1.380
-0.819
0.149
0.890
1.458
1.836
2.425
2.626
2.500
2.303
1.784
1.628
0.891
0.410
-0.077
-0.476
-0.804
-1.184
-1.435
-1.526
-1.524
-1.294
-1.031
-0.942
-0.830
-0.804
-0.649
-0.444
-0.568
-0.603
-0.420
-0.291
-0.156
-0.257
-0.345
-0.264
-0.011
-0.017
0.086
-0.013
0.082
0.202
0.351
0.250
0.165
0.286
0.559
0.640
0.725
0.539
0.472
-0.112
-0.312
0.434
0.901
1.190
1.022
0.735
0.562
0.469
0.397
0.473
0.612
0.659
0.768
0.666
0.759
0.502
0.599
0.481
0.321
0.145
0.155
0.100
0.102
-0.039
0.006
-0.229
0.037
0.047
-0.025
-0.075
-0.133
-0.241
-0.081
-0.096
-0.123
-0.115
-0.206
-0.218
-0.131
-0.219
-0.084
-0.151
-0.176
-0.160
-0.103
-0.199
-0.041
-0.138
-0.163
-0.173
-0.070
-0.159
-0.080
-0.050
0.069
-0.010
-0.068
-0.062
0.120
0.044
-0.011
0.067
0.048
0.069
-0.023
0.098
-0.018
0.094
0.130
0.038
0.039
0.084
-0.053
0.020
0.028
0.045
0.084
0.039
-0.016
-0.038
-0.080
0.019
-0.021
-0.036
-0.100
-0.127
-0.039
0.063
-0.226
-0.016
-0.124
-0.007
-0.020
-0.087
-0.069
-0.176
-0.153
0.038
-0.148
0.057
-0.032
-0.099
0.099
-0.043
-0.111
0.061
-0.060
-0.047
0.008
0.059
-0.017
0.077
0.067
0.181
0.061
-0.026
0.014
0.019
0.206
0.095
0.059
0.168
0.174
0.283
0.214
0.253
0.437
0.197
0.237
0.101
0.278
0.446
0.080
0.097
0.010
0.102
0.107
-0.045
-0.190
-0.081
0.000
0.050
0.006
-0.070
-0.032
-0.091
-0.168
0.081
0.131
0.061
0.171
0.019
0.135
0.193
0.297
-0.066
-0.298
-0.047
-0.310
-0.351
-0.078
0.108
-0.197
-0.102
-0.234
-0.200
-0.185
-0.081
-0.148
-0.129
0.021
-0.163
-0.122
-0.014
0.068
0.202
-0.040
0.017
0.077
-0.012
0.060
-0.080
-0.075
-0.088
-0.049
0.012
-0.115
0.057
-0.065
0.010
-0.078
-0.035
-0.091
-0.013
-0.030
-0.058
-0.126
0.047
0.054
0.128
0.054
0.029
0.069
0.035
0.230
0.077
0.020
0.069
0.129
0.077
0.186
0.086
0.238
0.106
0.209
0.028
0.163
0.157
0.167
0.087
0.153
0.217
-0.088
0.152
0.074
0.198
0.078
0.123
0.094
0.061
0.008
0.130
0.107
0.010
0.064
0.005
0.022
0.100
-0.004
-0.011
0.030
-0.019
-0.094
0.080
-0.036
0.001
-0.090
0.031
0.021
-0.076
-0.031
-0.095
0.068
-0.009
-0.151
-0.062
-0.004
-0.024
-0.086
-0.066
0.037
0.060
-0.035
0.032
-0.147
-0.227
0.019
-0.016
0.126
-0.014
-0.047
0.058
-0.127
0.005
-0.037
0.073
0.041
0.156
0.067
-0.058
-0.034
0.067
0.092
0.101
-0.013
0.030
-0.009
0.025
0.042
0.036
0.069
0.100
-0.048
-0.049
-0.046
0.037
0.033
0.136
0.039
-0.079
-0.026
0.131
-0.090
0.062
0.038
0.120
0.026
0.096
-0.010
-0.033
-0.049
-0.011
-0.038
0.051
-0.004
0.011
-0.007
-0.013
0.092
0.117
0.009
0.075
-0.060
0.176
-0.051
-0.059
-0.034
0.050
0.101
0.036
-0.064
-0.111
0.059
0.085
0.015
-0.023
0.143
0.036
-0.069
-0.046
0.119
0.090
0.022
0.090
0.002
0.018
0.014
0.040
-0.043
0.076
0.009
0.070
0.011
0.053
-0.016
-0.039
-0.006
-0.004
0.318
1.291
1.019
0.491
0.144
0.115
0.148
0.377
0.392
0.440
0.252
0.342
0.224
0.034
-1.500
-0.685
0.528
0.768
0.246
-1.806
-2.168
0.071
0.949
0.632
0.234
0.192
0.157
0.107
0.316
0.362
0.424
0.563
0.542
0.397
0.355
0.146
0.089
0.119
0.088
0.008
-0.205
-0.066
-0.058
0.020
-0.035
0.017
0.221
0.078
0.199
0.190
0.206
0.034
-0.031
0.320
0.132
0.136
-0.054
0.060
0.116
0.132
0.092
-0.055
-0.073
0.028
0.081
0.104
0.035
0.100
-0.099
-0.013
0.022
-0.113
0.016
0.111
-0.037
-0.075
-0.039
-0.110
-0.049
0.025
-0.028
0.026
-0.090
-0.027
-0.034
-0.134
-0.072
-0.096
-0.126
-0.109
-0.203
-0.759
-1.233
-3.378
-4.073
-4.155
1.069
3.864
4.609
2.836
-2.075
-3.738
-4.154
-2.618
0.223
2.809
4.251
4.581
4.526
4.342
4.087
3.580
2.762
2.336
1.528
0.621
-0.503
-1.183
-1.359
-1.345
-1.190
-0.926
-0.780
-0.455
-0.555
-0.570
-0.557
-0.498
-0.517
-0.476
-0.449
-0.259
-0.258
-0.216
-0.074
0.020
0.320
0.287
0.375
0.440
0.502
0.847
0.823
0.743
0.769
0.841
0.816
0.986
0.933
0.763
0.641
0.838
0.972
0.986
0.989
0.909
0.913
0.727
0.720
0.612
0.625
0.564
0.513
0.553
0.440
0.398
0.399
0.306
0.407
0.059
0.020
0.155
-0.006
-0.152
-0.239
-0.255
-0.155
-0.106
-0.258
-0.335
-0.446
-0.385
-0.425
-0.474
-0.428
-0.440
-0.340
-0.407
-0.476
-0.467
-0.419
-0.403
-0.446
-0.525
-0.381
-0.479
-2.596
-4.147
-4.486
-0.438
3.146
4.193
3.640
-1.193
-3.688
-4.356
-4.054
-1.418
1.685
3.887
4.477
4.536
4.407
4.231
4.010
2.943
1.459
0.006
-1.030
-1.753
-2.195
-2.500
-2.121
-1.981
-1.440
-0.907
-0.523
-0.156
0.148
0.317
0.472
0.438
0.389
0.354
0.257
0.430
0.242
0.186
0.199
0.215
0.353
0.424
0.371
0.508
0.497
0.516
0.583
0.584
0.321
0.428
0.713
0.720
0.603
0.608
0.458
0.425
0.531
0.595
0.377
0.386
0.364
0.443
0.338
0.497
0.378
0.316
0.154
0.290
0.102
0.338
0.168
0.176
0.112
-0.006
0.056
0.085
0.004
0.013
-0.090
-0.037
-0.165
-0.136
-0.043
-0.170
-0.043
-0.200
-0.248
-0.123
-0.158
-0.215
-0.166
-0.111
-0.193
-0.417
-0.280
-0.151
-0.096
-0.465
-0.154
-0.251
-0.100
-0.179
-0.271
-0.189
-0.292
-0.236
-0.100
-0.187
-0.017
-0.064
-0.112
-0.240
-0.113
0.007
-0.069
0.020
-0.048
-0.137
0.074
-0.193
0.014
0.164
-0.063
0.013
0.031
0.079
-0.060
0.050
-0.109
0.003
0.014
0.033
0.098
0.093
0.114
0.036
0.112
0.115
0.028
0.024
0.111
0.324
0.076
-0.004
0.157
0.109
0.074
0.132
0.134
0.125
0.101
0.099
0.136
0.032
0.305
0.140
0.130
0.101
0.133
0.103
0.048
0.155
0.147
0.106
0.019
0.066
0.183
0.091
0.112
0.152
0.186
0.128
0.065
-0.134
0.155
0.190
0.068
0.018
0.143
0.187
0.243
0.299
0.394
0.725
0.773
0.650
0.201
0.125
0.059
0.224
0.274
0.260
0.231
0.096
0.070
-0.016
-0.086
-0.288
-0.391
-0.305
-0.421
-0.257
-0.211
-0.267
-0.244
-0.226
-0.063
-0.008
0.042
0.021
0.045
0.079
0.137
0.017
-2.752
-3.839
1.448
3.892
4.351
2.082
-0.831
-2.494
-2.726
-2.059
-0.626
0.853
2.009
2.627
3.246
3.445
3.745
3.081
1.872
0.859
0.147
-0.410
-0.509
-0.570
-0.538
-0.521
-0.587
-0.999
-0.909
-1.598
-1.463
1.516
1.985
0.928
-0.741
-0.599
-0.357
-0.390
-0.079
0.324
0.480
0.790
0.901
0.904
0.520
0.678
0.709
0.513
0.176
0.533
0.259
0.193
0.151
0.256
0.305
-0.223
-2.256
0.677
2.834
0.301
3.302
2.817
1.220
-0.339
-1.161
-0.961
-0.288
0.357
1.239
1.843
1.945
1.874
1.459
1.107
0.550
0.077
-0.381
-0.720
-0.972
-1.301
-1.317
-1.093
-0.868
-0.767
-0.707
-0.505
-0.313
-0.343
-0.118
-0.165
-0.543
-1.164
-2.922
-1.282
3.055
2.718
0.145
2.374
1.031
-0.636
-1.387
-1.047
0.204
1.720
-1.047
1.485
2.102
3.787
2.051
3.246
-1.055
-1.890
-0.369
0.140
0.176
-0.456
-0.706
-0.464
-2.590
-0.550
2.796
3.433
2.277
-2.016
-2.067
2.090
3.454
0.878
-2.356
-2.514
0.004
0.852
0.523
0.285
0.442
0.510
0.674
0.870
1.039
0.692
0.801
-0.958
-2.737
-1.214
-2.926
-0.550
2.276
2.326
0.797
-0.448
-1.135
-1.160
-0.498
0.089
0.999
1.609
1.814
2.072
2.025
1.742
1.344
0.989
0.621
0.243
0.074
-0.115
-0.212
-0.272
-0.377
-0.215
-0.078
-0.140
-0.082
-0.002
0.109
0.325
1.242
1.079
0.553
0.196
0.014
0.064
0.135
0.159
0.091
0.188
0.315
0.091
-0.110
-0.168
-0.338
-0.447
-0.460
-0.419
-2.068
-3.863
0.179
3.288
4.202
2.995
0.178
-1.850
-2.356
-1.773
-0.679
-0.573
-1.322
2.814
4.144
3.754
2.533
1.059
0.124
-0.443
-0.638
-0.487
-0.364
-0.358
-0.137
0.097
0.041
0.142
-2.903
-2.224
2.654
4.166
4.315
1.803
-0.913
-2.411
-2.416
-1.163
0.197
1.480
2.298
2.811
2.712
2.593
1.964
1.469
0.686
-0.003
-0.355
-0.791
-0.954
-1.134
-1.908
-3.556
-4.056
-2.021
1.836
3.304
2.584
0.743
-0.591
-1.271
-1.005
-0.480
0.412
1.262
1.913
2.353
2.303
2.297
2.030
1.563
1.001
0.454
0.194
-0.006
-0.413
-0.491
-0.399
-0.145
0.443
0.727
0.406
0.200
-0.001
0.127
0.197
0.386
0.377
0.306
0.263
0.242
0.162
-0.150
-0.217
-0.316
-1.122
-0.951
-3.426
-1.417
2.831
4.119
2.835
0.396
-1.368
-2.736
-1.479
-0.309
0.762
1.662
2.022
2.308
2.313
1.804
1.392
0.860
0.115
0.012
-0.751
-1.153
-0.445
-0.176
-0.320
-0.357
-0.378
-0.228
-0.320
0.046
0.390
0.299
0.392
0.571
0.579
0.357
0.397
0.368
0.309
0.228
0.175
0.001
-0.117
0.157
0.281
0.349
0.206
0.233
0.073
0.058
0.087
0.130
0.272
0.411
0.191
0.104
0.125
0.093
0.130
0.173
0.133
-0.052
-0.089
0.120
0.015
0.093
0.081
0.056
-0.084
-0.177
-0.120
0.136
0.075
-0.090
-0.173
-0.140
-0.160
-0.169
-0.394
-0.749
-0.669
-0.627
-0.530
-1.359
-3.411
-4.110
-3.510
1.802
3.991
4.156
3.554
1.931
-0.551
-1.879
-1.706
-0.296
1.448
3.047
3.824
3.941
3.781
3.193
2.253
1.035
-0.121
-1.185
-2.017
-2.342
-2.278
-2.374
-2.140
-1.679
-1.368
-0.815
-0.514
-0.245
-0.028
0.231
0.352
0.440
0.380
0.401
0.456
0.442
0.324
0.327
0.501
0.513
0.519
0.472
0.660
0.654
0.612
0.679
0.582
0.644
0.609
0.731
0.755
0.695
0.610
0.589
0.574
0.629
0.563
0.569
0.573
0.365
0.376
0.534
0.299
0.168
0.166
0.189
0.248
0.126
0.073
0.038
-0.041
-0.104
-0.244
-0.058
-0.194
-0.005
-0.134
-0.354
-0.384
-0.370
-0.347
-0.335
-0.467
-0.102
-0.107
-0.469
-1.168
-1.680
-3.511
-3.231
-3.951
-4.235
-3.247
2.534
4.247
4.287
0.753
-2.132
-3.610
-2.784
-0.221
2.756
4.097
4.384
4.314
4.133
3.945
3.723
3.024
1.834
0.343
-0.705
-1.670
-2.269
-2.743
-2.828
-2.514
-2.279
-1.729
-1.392
-1.078
-0.499
-0.295
-0.156
0.070
0.198
0.142
0.122
0.241
0.393
0.332
0.082
0.202
0.242
0.243
0.545
0.566
0.589
0.594
0.626
0.701
0.630
0.760
0.673
0.698
0.654
0.714
0.668
0.763
0.559
0.655
0.568
0.562
0.551
0.560
0.550
0.488
0.403
0.363
0.319
0.290
0.251
0.371
0.182
0.148
0.146
0.049
-0.082
-0.021
0.068
-0.009
-0.092
-0.169
-0.187
-0.242
-0.170
-0.170
-0.244
-0.345
-0.397
-0.322
-0.380
-0.150
-0.350
-0.212
-0.294
-0.298
-0.283
-0.291
-0.317
-0.218
-0.327
-0.240
-0.118
-0.321
-0.222
-0.251
-0.203
-0.207
-0.260
-0.273
-0.086
-0.065
-0.053
-0.031
-0.227
-0.153
-0.080
0.091
-0.094
-0.111
-0.194
-0.059
0.042
-0.113
-0.005
0.114
-0.015
-0.039
-0.043
0.054
0.087
0.081
0.015
0.095
0.031
0.075
0.048
0.097
-0.048
0.088
0.038
0.065
-0.052
-0.014
0.030
0.153
0.057
-0.017
-0.044
0.120
0.056
0.217
0.276
0.122
0.123
-0.028
0.041
0.159
0.094
0.078
0.067
0.084
0.044
-0.023
0.065
0.155
0.005
0.139
0.183
0.082
0.037
0.049
0.059
0.067
0.154
0.087
0.183
0.202
0.045
0.039
-0.007
-0.024
0.153
0.112
0.061
0.061
0.036
-0.041
-0.104
-0.026
0.096
-0.060
-0.009
-0.063
-0.005
0.036
-0.081
-0.049
-0.138
-0.182
0.014
0.055
-0.035
-0.044
-0.059
-0.107
-0.186
-0.052
-0.048
-0.135
-0.073
-0.230
-0.045
-0.056
-0.147
-0.065
-0.063
-0.187
-0.012
-0.232
-0.246
0.015
0.098
0.038
-0.052
-0.122
-0.098
-0.171
-0.188
-0.096
-0.077
0.146
0.097
-0.061
-0.067
0.202
0.120
0.164
0.090
0.061
0.007
-0.256
-0.348
-0.068
0.031
0.005
-0.009
-0.138
-0.657
-0.308
0.094
0.362
-0.378
-0.240
-0.090
0.130
0.178
-0.008
0.134
0.381
0.429
0.166
-0.232
-0.217
0.116
0.498
0.337
0.026
0.086
0.033
-0.007
0.009
0.122
-0.019
-0.142
-0.108
0.018
0.116
0.192
0.090
0.084
0.048
0.041
-0.105
-0.105
-0.127
-0.176
-0.220
-0.229
-0.120
-0.122
-0.122
-0.123
-0.169
-0.126
-0.189
-0.038
-0.049
-0.078
-0.180
-0.400
-0.182
-0.172
-0.141
-0.082
-0.110
0.012
-0.120
-0.488
-0.295
0.204
0.136
0.090
0.066
0.061
0.076
0.205
0.183
0.100
0.042
-0.124
0.062
0.326
0.354
0.388
0.415
0.188
0.053
0.033
0.227
-0.014
0.081
0.058
0.118
0.101
0.271
0.096
-0.007
0.005
0.021
-0.088
0.070
0.183
-0.018
-0.031
-0.048
-0.066
0.055
-0.006
0.049
0.183
0.106
0.071
0.022
-0.012
-0.001
-0.122
-0.224
-0.478
-0.418
0.287
0.955
1.077
0.663
0.427
0.125
0.123
0.127
0.317
0.374
0.524
0.524
0.555
0.541
0.289
0.086
-0.123
-0.001
-0.142
-0.335
-0.197
-0.339
-0.251
-0.202
-0.325
-0.191
-2.986
-3.994
-2.983
1.874
4.028
3.448
-1.386
-0.423
3.174
4.056
2.570
0.726
-0.087
-0.065
0.772
1.484
2.089
2.258
2.424
1.941
1.275
0.576
-0.172
-0.638
-1.127
-1.264
-1.362
-1.455
-1.240
-1.054
-0.750
-0.387
-0.187
0.051
0.118
0.308
0.491
0.600
0.490
0.539
0.522
0.178
-0.153
-0.638
-0.205
1.319
1.759
0.034
-2.699
-0.909
3.484
4.742
5.016
-0.104
-2.976
0.039
3.492
4.457
4.510
1.269
-1.460
-0.398
1.370
3.039
3.875
4.020
3.932
3.783
3.640
3.463
3.310
2.914
1.449
-0.397
-2.262
-3.525
-3.850
-4.543
-3.910
-2.893
-3.744
-4.256
-4.209
-3.959
0.853
4.146
5.128
2.851
-0.274
-1.749
-1.392
-0.046
1.442
2.997
4.015
4.366
4.248
3.780
2.953
2.236
1.321
0.555
-0.024
-0.271
-0.557
-0.566
-0.412
-0.263
-0.154
0.088
0.124
0.274
0.550
0.501
0.297
0.285
0.231
0.085
0.160
0.089
0.002
-0.122
-0.011
-0.214
-0.127
-0.185
-1.058
-3.565
-1.403
2.731
3.902
4.163
0.290
-3.475
-4.402
-3.541
-2.000
0.111
2.628
3.840
4.075
4.020
3.879
3.706
3.522
2.596
0.950
-0.772
-2.544
-3.623
-3.918
-4.793
-5.012
-3.898
-0.394
1.397
1.353
0.380
-0.153
0.735
0.607
0.375
0.630
1.267
2.153
2.958
3.252
3.235
2.900
2.243
1.795
1.081
0.436
-0.160
-0.484
-0.612
-0.681
-0.611
-0.474
-0.078
-0.128
0.365
0.356
0.400
0.572
0.604
0.705
0.807
0.637
0.495
0.497
0.570
0.467
0.484
0.300
0.354
0.352
0.461
0.344
0.351
0.355
0.287
0.206
0.286
0.234
0.197
0.158
0.192
0.154
0.156
-0.055
-0.003
0.080
0.002
0.058
-0.071
-0.053
-0.191
-0.158
-0.125
-0.112
-0.244
0.001
-0.235
-0.170
-0.296
-0.330
-0.292
-0.156
-0.193
-0.234
-0.271
-0.192
-0.227
-0.155
-0.223
-0.114
-0.197
-0.307
-0.176
-0.162
-0.166
-0.130
-0.026
-0.061
-0.213
-0.199
-0.154
-0.149
-0.035
0.042
-0.169
-0.079
-0.094
-0.181
-0.107
-0.194
-0.122
0.004
-0.043
-0.079
-0.080
0.050
0.064
0.109
-0.031
-0.062
-0.130
0.199
0.003
0.133
0.058
0.007
0.014
0.075
-0.007
0.015
0.082
0.043
0.052
0.047
0.014
0.086
0.086
0.095
0.075
-0.025
0.082
0.000
0.158
0.149
0.066
0.114
0.088
0.125
0.140
0.054
0.090
0.058
0.093
0.165
0.044
0.206
0.123
0.138
0.071
0.082
0.146
0.189
0.241
0.138
0.031
0.115
0.161
0.110
0.007
0.096
0.152
0.012
0.040
0.155
0.047
0.007
0.068
-0.077
0.096
-0.026
0.084
-0.105
0.022
-0.032
-0.056
0.108
-0.062
-0.144
-0.235
0.130
-0.120
-0.102
-0.184
-0.144
-0.272
-0.168
-0.142
-0.247
-0.230
-0.149
-0.193
-0.204
-0.214
-0.332
-0.307
-0.131
0.022
-0.048
-0.055
-0.033
-0.112
-0.002
0.052
0.042
-0.014
-0.071
-0.158
0.153
0.132
0.120
-0.017
-0.018
0.168
0.041
-0.161
-0.034
-0.032
-0.015
0.078
0.157
-0.137
-0.280
-0.136
0.068
0.071
-0.014
0.017
0.011
0.033
0.064
0.172
0.022
0.106
0.066
0.026
0.263
0.156
0.097
0.120
0.120
0.204
-0.056
0.138
0.091
-0.024
-0.025
0.146
-0.011
-0.028
-0.118
-0.346
-0.371
-1.287
-2.131
-1.851
-2.846
-2.844
-3.675
-3.345
2.702
4.498
4.922
0.638
-2.314
-3.619
-3.865
-1.651
2.332
4.119
4.613
4.583
4.408
4.178
3.951
3.722
3.138
0.851
-1.467
-3.255
-4.525
-5.042
-5.357
-3.639
1.696
3.236
1.931
-0.463
-2.138
-3.443
-2.349
-0.156
1.127
1.736
-0.740
-0.241
3.080
4.060
3.456
0.880
-0.979
-1.974
-1.886
-1.147
-0.412
0.481
1.040
1.466
1.680
1.650
1.361
1.010
0.713
0.356
0.082
0.090
0.033
-0.065
0.055
0.215
0.348
0.350
0.362
0.466
-0.334
-2.585
0.087
2.879
2.797
1.415
-2.305
-0.206
3.490
4.528
2.420
-0.039
-2.399
-3.804
-3.568
-1.637
-1.263
2.913
4.306
4.573
2.605
-0.167
-1.573
-1.029
0.824
-1.356
2.429
3.641
3.882
3.384
2.162
0.788
-0.365
-0.971
-1.343
-4.195
0.235
2.714
3.316
0.745
-2.047
-3.530
-3.404
-2.265
-0.802
0.616
1.923
2.427
2.506
2.265
1.881
1.218
0.696
0.154
-0.155
-0.495
-0.519
-0.572
-0.453
-0.214
-0.114
0.265
0.377
0.570
0.683
0.838
0.872
0.920
0.908
0.858
0.693
0.835
0.801
0.740
0.739
0.607
0.630
0.666
0.572
0.587
0.596
0.407
-0.180
-2.762
2.311
-1.035
-0.066
3.427
4.407
3.927
0.441
-1.534
-3.105
-3.602
-2.474
1.145
3.447
4.070
4.120
2.068
-2.783
1.051
2.972
3.447
2.403
-0.609
-2.947
-4.266
-4.114
-3.716
-4.450
-0.017
2.641
2.992
0.982
-1.876
0.877
1.857
1.431
0.746
0.162
-0.348
-0.370
-0.493
-0.367
-3.115
0.385
1.468
2.502
2.109
-0.039
0.067
1.210
0.733
0.055
-0.184
0.465
1.020
1.535
1.709
1.934
1.955
1.838
1.365
1.117
0.545
0.219
-0.169
-0.380
-0.445
-0.361
-0.246
-0.228
-0.239
-0.107
-0.117
0.080
0.225
0.339
0.133
0.263
0.218
0.197
0.209
0.056
0.115
0.139
0.034
0.204
0.078
0.090
0.122
0.027
0.076
0.022
0.119
0.195
0.047
0.151
0.120
0.044
-0.089
-0.052
0.069
-0.194
-2.083
-3.685
-4.076
0.639
3.704
4.540
3.452
-1.352
-3.584
-4.158
-2.192
-1.724
-0.416
3.036
4.331
4.586
4.499
4.333
3.962
2.565
1.213
0.022
-0.827
-1.414
-1.622
-1.451
-1.329
-1.209
-1.227
-1.007
-0.807
-0.661
-0.653
-0.530
-0.566
-0.206
-0.281
-0.035
-0.325
-0.251
-0.114
-0.027
0.028
0.137
0.143
0.164
0.206
0.171
0.313
0.326
0.379
-0.133
0.148
0.664
0.842
0.697
0.497
0.370
0.351
0.398
0.324
0.501
0.498
0.499
0.532
0.426
0.357
0.494
0.398
0.298
0.168
0.157
0.214
0.171
0.120
0.188
0.097
0.054
0.015
0.093
0.081
-0.078
-0.106
0.089
0.019
-0.174
-0.181
-0.153
-0.095
-0.133
-0.004
-0.177
-0.803
-0.771
-1.838
-3.754
-4.171
-1.305
2.999
4.253
3.545
-1.160
-3.596
-4.265
-3.929
-0.998
2.912
4.245
4.510
4.454
4.280
4.074
3.787
3.146
1.705
0.295
-0.702
-1.687
-2.096
-2.473
-2.609
-2.402
-2.004
-1.631
-1.195
-0.889
-0.588
-0.341
-0.392
-0.027
0.381
0.437
0.214
-0.239
-0.158
0.259
0.338
0.393
0.331
0.382
0.449
0.358
0.431
0.579
0.688
0.590
0.580
0.581
0.705
0.732
0.623
0.600
0.577
0.453
0.346
0.565
0.482
0.338
0.438
0.382
0.338
0.270
0.162
0.143
0.212
0.215
0.028
-0.007
0.096
0.035
-0.109
-0.162
-0.023
-0.056
-0.374
-0.263
-0.336
-0.349
-0.511
-0.404
-0.388
-0.427
-0.463
-0.265
-0.165
-0.182
-0.633
-0.665
-0.591
-0.431
-0.517
-1.186
-1.311
-0.776
-0.133
0.000
-0.099
0.010
0.008
-0.449
-0.703
-0.742
-0.240
0.299
0.342
0.155
0.123
0.134
0.307
0.270
0.109
0.049
0.099
-0.174
-0.043
0.006
-0.036
-0.029
-0.441
-0.869
-0.891
-0.760
-0.329
-0.683
-0.889
-1.221
-1.887
-2.283
-2.161
-1.705
-0.408
0.040
1.047
1.589
1.081
0.478
0.281
0.353
0.837
1.287
1.536
1.850
1.978
1.809
1.268
0.931
0.505
0.117
-0.098
-0.441
-0.640
-0.705
-0.703
-0.711
-0.447
-0.373
-0.368
-0.281
-0.101
-0.087
0.150
-0.024
0.208
0.259
0.205
0.292
0.156
0.193
0.240
0.407
0.250
0.296
0.292
0.330
0.412
0.527
0.478
0.476
0.468
0.359
0.414
0.332
0.373
0.497
0.468
0.304
0.382
0.331
0.224
0.354
0.302
0.124
0.231
0.213
0.170
0.164
0.088
0.135
0.161
0.106
0.007
-0.071
-0.146
0.020
-0.051
-0.070
-0.153
-0.266
-0.147
-0.189
-0.258
-0.116
-0.150
-0.277
-0.157
-0.162
-0.242
-0.216
-0.199
-0.164
-0.274
-0.140
-0.187
-0.273
-0.284
-0.151
-0.133
-0.225
-0.090
-0.163
-0.142
-0.087
-0.112
0.010
-0.156
-0.027
0.092
-0.107
-0.194
0.020
0.163
0.103
-0.017
0.018
0.067
-0.062
0.156
0.142
0.059
0.138
-0.025
0.124
0.097
0.080
0.270
0.193
0.162
0.091
0.134
0.096
0.122
0.078
0.073
0.222
0.042
-0.029
0.086
0.087
0.095
-0.050
0.103
0.089
0.090
-0.005
0.148
-0.014
0.035
0.119
0.059
-0.203
0.021
0.079
0.084
0.098
0.108
-0.052
-0.032
-0.063
0.030
0.050
-0.143
0.024
0.043
0.002
-0.080
0.044
0.041
0.124
-0.112
-0.062
0.042
-0.022
-0.058
0.001
-0.065
0.180
-0.002
-0.078
0.007
0.036
0.023
0.081
0.099
-0.021
-0.156
0.054
0.059
-0.043
0.052
0.000
-0.057
0.037
-0.004
-0.029
0.141
0.063
0.065
0.088
-0.079
-0.068
0.014
0.026
-0.018
0.075
0.012
-0.047
-0.038
0.082
0.095
-0.003
-0.068
0.003
0.013
-0.017
-0.011
-0.063
0.093
0.040
0.050
-0.105
-0.069
0.048
0.053
0.075
0.120
-0.046
-0.128
0.002
0.088
0.018
0.067
0.114
-0.007
-0.066
0.063
0.018
0.062
-0.003
0.024
0.034
0.036
-0.048
0.065
0.177
0.067
0.048
-0.047
0.064
0.051
0.082
0.098
0.069
0.055
-0.028
-0.023
0.051
0.063
0.199
0.235
-0.062
0.307
-0.419
-0.358
0.109
0.211
0.088
0.127
0.021
0.060
-0.065
0.042
0.039
-0.070
0.039
0.091
-0.033
0.018
0.122
-0.067
0.050
0.045
0.162
0.047
0.000
0.011
-0.027
-0.081
0.006
-0.038
0.009
-0.027
0.042
-0.082
0.019
0.056
0.038
-0.066
0.059
-0.001
-0.100
0.048
0.062
0.059
0.858
1.192
0.894
0.366
0.172
0.023
0.107
0.250
0.348
0.370
0.440
0.411
0.221
-0.076
-0.154
-0.257
-0.253
-0.372
-0.363
-0.320
-0.115
-0.175
-0.060
-0.013
0.000
-0.034
0.077
0.200
-1.579
-3.426
1.846
3.999
4.510
0.468
-3.014
-3.280
-1.591
-0.183
0.692
1.278
1.699
2.055
2.268
2.261
2.017
1.573
1.350
0.734
0.298
-0.023
-0.302
-0.528
-0.588
-0.620
-0.598
-0.463
-0.299
-0.140
0.274
0.417
0.833
0.814
0.476
0.335
0.299
0.255
0.193
0.567
0.575
0.315
0.240
0.355
0.068
-0.001
-0.004
-0.287
-0.110
-1.145
-3.386
0.325
3.520
4.149
2.494
0.606
-0.485
-1.926
-2.008
-1.860
-0.639
1.370
3.373
3.770
3.033
2.035
1.503
0.899
0.621
0.246
-0.187
-0.094
-0.256
-0.123
-0.192
-0.326
-0.321
-0.264
-0.371
-0.026
-0.086
-0.077
0.120
0.106
0.178
0.126
0.132
0.120
0.143
0.228
0.235
0.147
0.300
0.338
0.256
0.229
0.205
0.163
0.241
0.284
0.341
0.305
0.244
0.132
0.158
0.258
0.216
0.157
0.174
0.120
0.202
0.070
0.082
-0.016
-0.010
0.013
0.127
0.067
0.008
-0.085
-0.036
0.010
-0.175
-0.039
0.063
-0.058
-0.126
-0.038
-0.108
-0.103
-0.270
-0.081
-0.089
-0.102
-0.088
-0.179
-0.103
-0.080
-0.233
-0.049
-0.038
-0.136
-0.078
-0.161
-0.143
-0.135
-0.089
-0.195
0.004
-0.088
-0.032
-0.031
-0.097
0.020
-0.013
-0.092
-0.105
0.182
-0.020
-0.076
0.016
0.060
-0.014
0.019
0.043
-0.056
0.036
0.049
0.057
-0.057
0.108
0.106
-0.082
0.082
-0.017
-0.029
0.090
0.073
0.010
0.100
-0.050
-1.657
-3.587
-4.080
-1.487
3.074
4.401
3.192
-1.642
-3.587
-4.079
-4.045
-2.590
2.856
4.445
4.803
4.620
1.614
0.337
1.035
0.920
0.846
0.976
1.422
1.814
2.137
2.059
1.898
1.291
0.574
-0.107
-0.568
-1.286
-1.594
-1.773
-1.700
-1.756
-2.231
-3.297
-3.362
-1.755
-0.603
-1.806
-1.554
3.086
4.265
1.096
-0.174
-0.839
-1.898
-1.064
0.038
2.028
3.370
3.385
2.204
2.067
2.377
2.620
2.371
1.851
1.105
0.441
-0.270
-0.736
-0.835
-0.684
-0.573
-0.418
-0.115
0.162
0.312
0.401
0.377
0.292
0.385
0.459
0.195
0.193
0.246
0.033
0.252
0.768
0.692
-0.195
-1.071
-1.685
-0.377
0.613
0.694
0.614
0.226
0.041
-0.242
-0.229
-0.371
-0.187
-0.035
0.059
0.200
0.161
0.281
0.239
0.115
0.271
0.089
0.021
-0.121
0.074
-0.013
0.010
-0.081
-0.053
-0.004
-0.107
0.081
0.134
0.002
-0.093
0.019
0.064
-0.054
0.325
1.000
1.130
0.700
0.276
-0.667
-3.411
-0.796
1.453
1.734
1.273
0.370
0.145
-0.144
-2.608
-2.085
-0.513
0.476
0.757
0.502
0.406
0.298
0.271
0.075
0.418
0.970
1.072
0.764
0.314
0.156
0.183
0.279
0.324
0.412
0.242
0.244
0.193
0.070
0.013
-0.094
-2.651
-0.589
1.704
1.668
0.722
-0.171
-0.578
-0.729
-0.436
-0.157
0.247
0.584
0.790
0.787
0.755
0.610
0.452
0.527
0.288
0.116
0.021
0.047
-0.011
0.088
0.041
0.041
0.190
0.163
0.306
0.173
0.171
0.280
0.192
0.224
0.225
-0.045
-2.546
-3.217
2.404
4.138
4.562
3.481
-0.335
-2.611
-3.131
-2.415
-0.498
1.295
2.999
3.893
4.155
4.058
3.664
2.597
1.463
0.037
-1.312
-2.897
-3.405
-3.003
-3.167
-2.781
-1.999
-1.646
-1.193
-0.773
-0.831
-0.412
0.401
0.756
0.607
0.596
0.817
0.892
1.262
1.285
1.125
1.200
1.228
0.970
0.739
0.610
0.424
0.329
0.270
0.060
0.075
-0.226
-0.148
0.121
0.134
0.416
0.291
0.348
0.170
0.237
0.139
-0.103
-0.157
0.171
0.104
0.285
0.263
0.220
0.156
-0.543
-1.123
0.888
1.825
1.411
-0.319
-0.387
0.191
0.286
-1.642
-0.752
1.284
0.627
1.034
0.824
0.265
-2.037
-0.649
0.504
0.693
0.229
-0.068
-0.222
-0.201
-0.104
-0.073
0.025
0.204
-0.508
0.404
0.805
0.352
0.213
-0.136
-0.190
-0.156
0.196
0.006
0.090
0.245
0.095
0.200
0.272
0.300
0.172
0.191
0.302
0.287
0.068
0.246
0.273
0.071
0.122
0.150
0.123
0.268
0.224
0.063
0.166
-0.164
-2.133
-0.009
1.259
1.043
0.514
-1.546
0.122
3.280
4.151
4.237
1.029
-1.922
-3.005
-3.384
-1.828
1.024
2.656
3.351
3.426
3.168
2.560
1.617
0.814
-1.783
-0.811
-0.445
-2.671
-2.690
1.753
-0.737
-0.422
1.241
3.388
0.908
0.024
-0.871
-1.066
-0.465
0.785
2.010
2.951
2.922
3.472
3.400
2.581
0.650
0.646
0.003
-1.249
-2.777
-3.873
0.773
3.767
4.082
1.777
-0.726
-2.057
-2.057
-1.086
0.175
1.462
2.430
3.149
3.400
3.244
2.896
2.321
1.536
1.055
0.547
0.167
-0.117
-0.288
-0.348
-0.099
-0.058
-0.059
0.058
0.631
0.967
-0.063
1.060
1.311
0.127
0.622
1.268
-0.825
-1.625
2.005
1.301
-0.861
1.019
1.643
0.965
0.200
-0.419
-0.453
-1.207
-0.333
0.335
1.251
1.126
1.005
0.559
0.143
-0.114
-0.256
-1.753
-2.693
1.856
2.899
3.585
1.787
-0.125
-2.436
-2.300
-0.830
0.233
0.703
1.080
1.164
1.167
1.227
1.143
0.750
-2.507
-2.264
2.356
3.839
0.412
0.026
-0.714
-1.503
-1.684
-1.583
-0.908
0.646
2.045
2.376
1.689
1.921
2.098
1.485
0.754
0.169
-0.176
-0.407
-0.570
-0.517
-0.318
-0.399
-0.243
0.011
0.136
0.202
0.305
0.108
0.149
0.021
0.221
0.205
0.479
0.093
-2.624
-3.153
2.428
4.291
4.473
1.664
-1.064
-2.405
-2.283
-1.458
-0.240
1.269
2.852
4.013
3.905
3.352
2.816
2.114
1.290
0.679
0.125
-0.279
-0.426
-0.675
-0.741
-0.677
-0.878
-0.810
-0.709
-0.645
-0.308
-0.461
-0.323
-0.300
-0.010
-0.064
-0.070
0.141
-0.048
0.164
0.180
0.181
0.077
0.235
0.271
0.409
0.383
0.457
0.281
0.270
0.170
0.356
-0.905
-1.849
1.425
1.527
-2.387
2.125
4.139
4.543
2.031
-1.276
-2.780
-2.480
-1.330
0.272
1.886
2.748
3.238
3.111
2.720
1.648
0.103
-1.040
-3.406
-4.285
-2.786
0.802
2.333
1.019
-0.937
-1.759
-1.824
-1.332
-0.763
-0.387
0.844
1.735
2.013
1.825
1.344
0.887
0.370
-0.016
-0.244
-0.432
-0.600
-0.685
-0.599
-0.291
-0.121
-0.024
-0.044
-0.002
0.147
0.322
0.318
0.220
0.298
0.361
0.090
-1.636
-2.210
-1.697
0.675
-0.453
-1.216
-0.951
0.247
0.876
0.813
-0.032
-0.157
0.291
0.717
1.075
1.163
1.261
1.383
1.388
1.429
1.099
0.727
0.621
0.445
-0.030
-0.249
-0.389
-0.431
-0.632
-0.788
-0.487
-0.269
0.644
0.839
0.254
-0.427
-0.855
-1.006
-1.530
-2.391
-2.164
-0.750
0.736
1.197
0.844
-0.048
-0.831
-1.893
-1.394
0.185
0.849
0.205
-0.695
-0.318
0.265
1.847
2.424
1.795
0.993
0.508
0.241
0.091
0.219
0.043
0.065
0.231
0.338
0.354
0.171
0.154
0.152
0.048
0.143
-0.103
-0.221
-0.142
-0.019
-0.101
-0.033
0.135
0.296
0.189
0.265
0.149
0.300
0.320
0.304
0.330
0.346
0.270
0.024
0.134
0.162
-0.036
0.138
-0.068
-0.721
-0.716
-0.917
-0.946
-0.903
-1.320
-1.255
-0.220
0.721
0.771
-0.238
-0.990
-0.548
-0.306
0.200
0.584
0.949
0.995
0.767
0.872
0.735
0.671
0.441
0.306
0.123
-0.015
-0.222
-0.038
-0.400
-0.388
-0.490
-0.557
-0.499
-0.577
-0.538
-0.459
-0.532
-0.251
-0.241
-0.368
-0.241
-0.153
-0.210
-0.188
0.077
-0.135
-0.168
-0.084
0.256
-0.115
-1.112
-1.666
-0.910
0.423
1.090
0.925
0.457
0.250
-0.082
0.153
0.504
1.279
1.452
0.953
0.277
-0.683
-0.645
0.307
0.860
0.884
0.831
0.180
-0.077
-0.260
-0.509
-0.607
-0.313
-0.218
-0.022
0.088
0.196
0.391
0.225
0.149
0.335
0.367
-0.056
0.094
0.664
0.654
0.920
0.859
0.257
0.059
0.247
0.272
0.307
0.355
0.462
0.345
0.395
0.215
0.123
-0.085
-0.178
-0.292
-0.411
-0.366
-0.377
-0.149
-0.307
-0.231
-0.068
-0.045
-0.053
-0.070
0.050
0.119
-0.593
-2.079
0.502
1.903
1.450
0.014
-3.036
-1.152
3.047
4.288
3.914
1.032
-1.043
-2.447
-2.893
-1.666
0.086
1.561
2.612
2.842
2.797
2.319
1.944
1.176
0.643
-0.008
-0.329
-0.709
-0.972
-0.945
-0.969
-0.783
-0.431
0.432
0.889
0.743
0.376
0.112
0.096
0.147
0.452
0.576
0.699
0.640
0.502
0.317
0.085
0.017
0.013
0.023
-0.025
0.005
0.012
0.121
0.168
0.174
0.291
0.408
0.480
0.367
0.496
0.509
0.580
0.451
0.564
0.623
0.495
0.499
0.464
0.444
0.386
0.299
0.457
0.424
0.234
0.230
0.316
0.292
0.302
0.154
0.023
0.157
0.098
0.274
0.147
0.068
0.141
-0.148
-0.164
-0.279
-0.088
0.051
-0.138
-0.217
-0.098
-0.313
-0.216
-0.219
-0.236
-0.220
-0.205
-0.330
-0.229
-0.252
-0.343
-0.275
-0.218
-0.222
-0.194
-0.241
-0.161
-0.158
-0.379
-0.289
-0.203
-0.147
-0.030
-0.151
-0.184
-0.061
-0.097
-0.013
-0.061
-0.059
-0.171
-0.126
-0.122
-0.024
0.165
-0.102
0.034
-0.003
-0.075
0.061
0.071
0.126
0.064
0.059
0.138
0.050
0.162
0.118
0.062
0.018
0.015
0.212
0.157
0.120
0.055
0.010
0.055
0.085
0.050
0.102
0.053
0.107
0.093
0.005
-0.007
0.217
0.084
-0.497
-2.556
1.455
3.162
2.253
0.516
-3.091
-3.983
-4.274
1.721
3.898
4.464
0.948
-2.871
-4.047
-4.256
-2.722
0.832
3.646
4.485
4.594
4.494
4.313
4.106
3.873
2.628
0.602
-0.983
-2.499
-3.268
-3.497
-3.438
-3.058
-2.274
-1.564
-0.982
-0.526
0.110
0.470
0.612
-0.214
-2.542
0.785
2.491
2.139
-1.221
-1.500
1.316
1.652
1.008
0.298
0.104
0.180
0.563
0.491
0.823
1.047
1.213
1.157
1.025
0.505
0.312
0.097
0.126
-0.090
-0.078
-0.096
-0.007
-0.139
-0.054
-0.047
0.025
-0.014
-0.077
-0.075
-0.056
-0.030
0.099
-0.081
-0.099
-0.007
-0.085
-0.266
-0.103
-0.030
-0.042
-0.088
-0.093
-0.059
-0.066
-0.228
-0.073
-0.135
-0.133
-0.152
-0.003
-0.116
-0.072
0.039
0.081
0.004
-0.125
-0.126
-0.080
-0.208
-0.000
0.081
0.095
-1.300
-3.512
0.555
3.513
4.295
4.203
-0.898
-3.622
-4.356
-4.463
-4.102
1.628
3.941
4.564
4.609
4.471
4.187
3.214
1.868
1.161
0.377
-0.232
-0.550
-0.925
-1.066
-1.190
-1.214
-1.156
-1.058
-1.022
-0.717
-0.386
-0.473
-0.297
-0.195
0.010
0.108
0.105
0.146
0.361
-0.966
-3.149
-0.083
3.173
1.161
-2.163
2.676
4.447
2.468
1.294
-1.474
-2.737
0.468
2.242
2.892
3.486
3.929
4.050
4.220
3.668
3.059
2.377
1.336
0.403
-0.368
-1.035
-1.336
-1.480
-1.466
-1.345
-1.124
-0.966
-0.697
-0.384
-0.051
0.030
0.256
0.373
0.131
0.333
0.275
0.411
0.417
0.427
0.378
0.355
0.370
0.367
0.386
0.486
0.386
0.505
0.515
0.458
0.465
0.697
0.577
0.380
0.504
0.512
0.401
0.355
0.342
0.425
0.260
0.144
0.261
0.223
0.172
0.078
0.122
0.187
-0.005
-0.113
0.013
-0.211
-0.097
0.072
-0.179
-0.197
-0.049
-0.277
-0.217
-0.300
-0.357
-0.189
-0.273
-0.325
-0.351
-0.268
-0.212
-0.421
-0.168
-0.373
-0.414
-0.343
-0.309
-0.285
-0.306
-0.247
-0.362
-0.200
-0.255
-0.102
-0.233
-0.269
-0.166
-0.170
-0.127
-0.015
-0.238
-0.079
-0.028
-0.104
0.001
0.131
-0.056
0.009
0.063
-0.086
-0.050
-0.086
-0.331
-0.233
-2.547
0.599
2.599
1.988
0.776
-0.100
-0.440
-0.503
-2.943
-3.535
2.336
4.102
4.511
1.887
-2.650
-4.043
-4.249
-2.321
0.810
3.369
4.324
4.494
4.393
4.224
4.027
2.947
1.147
-0.458
-1.962
-3.919
-3.222
-0.810
-2.933
-2.043
-0.686
-0.246
0.103
0.034
-0.270
-0.025
0.011
0.333
0.733
1.075
1.177
1.155
0.986
0.886
0.546
0.076
0.046
0.090
0.228
0.256
-0.010
-0.105
0.158
0.194
0.439
0.226
0.638
0.708
0.654
0.373
-2.727
1.730
4.070
4.667
4.636
-0.309
-3.316
-4.156
-4.278
-4.092
0.250
3.618
4.557
4.720
4.584
4.146
2.257
0.433
-0.524
-0.594
-0.395
-0.490
-1.101
-3.681
-3.756
-1.400
1.135
1.754
0.823
-0.468
-1.577
-2.092
-1.936
-1.310
-0.591
0.360
0.761
1.277
1.335
1.226
0.918
1.055
1.118
0.750
0.367
0.220
0.218
-0.646
-0.621
-0.182
1.241
1.681
1.273
0.710
0.294
0.267
0.240
0.564
0.773
0.749
0.661
0.430
0.253
0.164
-0.265
-0.158
-0.142
-0.239
-0.233
-0.244
-0.207
-0.310
-1.593
-1.990
0.114
1.382
1.464
0.717
0.203
-0.200
-0.253
0.041
0.092
0.343
0.608
0.582
0.505
0.692
0.562
0.286
0.078
0.080
-0.049
-0.117
-0.060
-0.022
-0.375
-0.748
-1.486
-3.532
0.256
3.416
4.167
-0.622
-3.413
0.594
3.375
4.061
2.702
1.192
-2.679
-3.046
-0.650
1.676
2.988
3.715
3.786
3.072
0.926
0.331
1.284
1.799
1.188
0.226
-0.447
-0.951
-1.415
-1.388
-1.407
-3.542
-4.155
-4.056
0.577
3.355
2.924
1.219
-0.318
-1.154
-1.137
-0.672
0.096
0.823
1.467
2.076
2.408
2.286
1.996
1.793
1.542
1.124
0.864
0.505
0.392
0.328
0.314
0.360
0.417
0.286
0.391
0.444
0.463
0.443
0.512
0.539
0.411
0.317
0.293
0.310
0.135
0.136
0.276
0.129
0.043
-0.100
-0.099
-0.034
-0.043
-0.026
-0.109
-0.050
-0.170
-0.213
-0.187
-0.172
-0.177
-0.165
-0.299
-0.265
-0.224
-0.182
-0.155
-0.072
0.941
-1.270
-1.248
-0.205
0.915
0.701
0.912
0.683
0.329
-0.208
-0.169
0.002
0.033
0.323
0.241
0.310
0.299
-2.403
-2.438
2.071
3.758
1.016
-1.873
-1.876
-1.531
-0.239
0.581
0.591
0.513
0.689
-1.471
-0.082
3.115
3.190
0.848
-0.306
1.730
1.594
0.557
-0.156
-1.960
-0.792
0.061
0.589
0.595
0.550
0.423
0.447
0.505
0.329
-1.287
0.614
1.064
0.395
-0.150
-0.267
0.015
0.074
-0.011
0.049
0.081
0.187
0.367
0.517
0.334
0.531
0.483
0.356
0.325
0.304
-2.619
1.722
3.935
3.621
-0.809
-0.717
3.006
-0.566
0.765
1.142
0.902
-0.929
-0.540
-0.211
1.145
2.542
2.812
2.847
1.260
1.524
2.125
1.776
1.143
0.505
-0.937
-2.056
-0.158
0.299
0.046
-0.418
-1.420
-0.816
-0.379
-0.089
-0.309
-2.782
1.363
1.117
2.623
-1.137
-0.718
3.201
2.096
0.022
1.247
0.934
0.340
0.121
0.308
0.871
1.489
1.991
2.134
2.143
1.782
1.484
-1.922
-3.481
0.943
3.626
4.261
0.080
-0.805
-2.610
-1.879
-0.399
-1.654
-0.970
1.992
1.108
3.462
1.323
2.406
2.694
-1.491
-1.260
-0.038
0.563
0.406
0.623
0.518
0.637
-2.174
-0.708
0.425
-0.201
-0.072
0.663
0.771
0.514
0.437
0.058
0.404
-0.663
-0.439
0.043
0.373
0.297
0.286
0.349
0.548
1.252
0.964
0.613
0.193
-0.127
-0.116
-0.886
-0.854
-0.209
-0.158
-0.880
-0.177
0.363
0.094
-0.304
-0.491
-0.430
-0.435
-0.210
0.094
0.054
0.249
0.532
0.591
0.679
0.742
0.568
0.300
0.280
0.034
-0.210
-0.178
-0.238
-0.243
-0.252
-0.358
-0.200
-0.329
-0.283
-0.158
-0.057
-0.111
-0.175
-0.058
-0.030
-0.037
0.111
-0.289
-0.294
-0.249
-0.059
0.045
0.051
0.217
0.169
0.016
-0.149
-0.017
0.211
0.610
0.267
-1.393
-0.079
1.127
0.947
-0.936
-1.418
-0.473
1.238
-0.732
-0.358
0.214
0.310
0.332
0.130
-0.030
0.075
0.113
0.363
0.275
0.422
0.488
0.386
0.535
0.385
0.241
0.222
0.210
0.110
-0.163
-0.001
-0.239
-0.423
-0.080
0.787
0.551
0.950
0.730
-0.021
-2.491
-0.003
1.655
1.565
0.461
-2.805
-1.486
0.997
1.841
0.990
0.855
0.417
-1.907
-0.848
0.247
-1.618
-1.744
1.290
0.247
0.995
1.887
1.971
1.095
0.040
-1.924
-3.632
-1.606
0.694
1.356
1.133
0.566
-0.002
-0.334
-0.593
-0.277
-0.190
-0.002
0.014
0.330
0.362
0.463
0.504
0.231
0.325
0.318
0.134
0.230
0.052
-0.102
-0.011
0.050
-0.039
0.152
-0.017
0.324
0.490
-0.386
-0.312
-0.267
0.361
1.245
0.386
-1.367
-0.215
0.131
0.043
0.753
0.584
1.080
0.743
0.398
-0.047
-0.114
-0.165
-0.686
-0.800
-0.071
0.317
0.411
0.562
0.302
-0.140
-0.514
-0.587
-0.600
-0.418
-0.233
0.028
0.213
0.277
0.354
0.194
0.311
0.305
0.232
-0.057
0.046
0.082
-0.119
-0.178
-0.010
-0.127
0.004
0.017
0.220
0.084
0.024
-0.035
0.004
0.072
0.144
0.188
0.026
0.000
0.088
0.004
0.088
0.055
-0.123
0.499
0.265
-1.760
-2.570
-1.247
1.517
-0.082
-1.690
2.580
3.456
2.013
0.370
-3.034
-2.428
0.975
2.382
2.281
1.471
0.803
0.365
0.045
-0.054
0.104
-0.019
0.075
-0.028
0.131
0.160
0.591
0.532
0.323
0.170
0.010
-0.208
-0.088
-0.340
-0.056
0.370
0.430
0.234
0.065
-0.073
-0.150
-0.054
-0.053
-0.007
-0.099
0.033
0.030
0.097
0.060
0.221
0.261
0.446
0.402
0.403
0.411
0.412
0.448
0.351
0.406
0.378
1.039
0.865
0.705
0.422
0.195
0.561
0.542
-0.299
0.193
0.604
0.730
0.534
0.420
-1.317
-1.790
2.730
4.008
3.025
0.504
-1.410
-3.807
-3.128
1.938
3.680
3.633
1.626
-0.527
-1.624
-1.622
-1.105
-0.313
0.682
1.295
1.661
1.788
1.634
1.367
0.915
0.308
-0.131
-0.453
0.046
0.318
-0.157
-0.270
-0.335
-0.921
-3.597
-0.864
2.546
2.787
2.304
1.210
0.128
-0.401
-0.529
-0.239
0.420
0.777
0.901
1.157
1.123
1.083
0.863
0.808
0.581
0.568
0.202
0.093
0.157
0.195
0.283
0.389
0.338
0.414
0.452
0.598
0.657
0.528
0.492
0.554
0.555
0.487
0.304
0.307
0.261
0.363
0.312
0.324
0.244
0.312
0.268
0.189
0.097
0.161
0.218
0.057
0.036
0.068
0.099
0.139
-0.077
-0.066
-0.112
-0.294
-0.150
-0.301
-0.249
-0.290
-0.320
-0.217
-0.179
-0.510
-0.430
-0.345
-0.312
-0.279
-0.317
-0.274
-0.198
-0.243
-0.156
-0.125
-0.281
-0.170
-0.134
-0.082
-0.169
-0.196
-0.200
-0.122
0.180
-0.011
-0.177
-0.265
-0.643
-0.382
0.316
0.478
0.267
-2.457
-3.857
-0.106
3.328
4.302
3.055
-0.401
-2.592
-2.941
-2.164
-0.507
1.047
0.689
-2.872
0.233
3.368
4.237
4.213
0.626
-2.999
-4.273
-4.201
-2.784
-0.593
1.583
3.216
4.086
4.246
4.033
3.342
2.203
1.229
0.387
-0.495
-1.020
-1.455
-1.567
-1.460
-1.521
-1.119
-0.817
-0.415
-0.211
0.077
0.197
0.149
0.248
0.461
0.332
0.357
0.401
0.381
0.371
0.379
0.451
0.427
0.301
0.457
0.521
0.625
0.546
0.640
0.494
0.591
0.546
0.628
0.756
0.603
0.542
0.388
0.452
0.474
0.416
0.523
0.431
0.405
0.383
0.324
0.158
0.168
0.363
0.149
0.067
0.005
0.028
0.043
-0.060
-0.057
-0.158
-0.185
-0.193
-0.147
-0.238
-0.284
-0.204
-0.177
-0.149
-0.284
-0.360
-0.298
-0.395
-0.209
-0.273
-0.236
-0.311
-0.250
-0.336
-0.365
-0.299
-0.177
-0.289
-0.273
-0.237
-0.282
-0.154
0.094
0.995
0.935
0.513
0.180
0.010
0.009
0.220
0.344
0.280
0.449
0.214
0.378
0.097
-0.146
-0.035
-0.087
-0.138
-0.085
-0.253
-0.288
-0.036
-0.053
-0.014
0.097
0.034
0.040
0.185
0.197
0.415
0.443
0.204
0.342
0.225
0.013
0.266
0.237
0.355
0.331
0.307
0.254
0.183
0.082
0.371
0.216
0.278
0.098
0.084
0.028
0.004
0.137
0.178
0.099
0.158
0.048
0.004
-0.030
-0.131
-0.009
-0.046
0.066
0.037
-0.108
-0.066
0.028
-0.128
-0.143
0.030
-0.019
-0.165
-0.216
-0.163
-0.098
-0.106
-0.136
-0.088
-0.069
-0.020
0.011
-0.151
-0.010
-0.116
-0.149
-0.201
-0.072
0.079
0.143
-0.161
-0.076
-0.179
-0.094
-0.074
-0.018
-0.104
0.007
-0.135
-0.029
-0.098
0.037
0.124
0.014
-0.120
-0.054
-0.073
-0.044
-0.105
-0.129
-0.000
-0.280
-0.086
-0.006
-0.499
-0.999
-2.349
-3.748
-3.601
2.221
4.153
4.634
2.446
-1.916
-3.749
-4.158
-2.625
0.141
3.009
4.283
4.534
4.466
4.314
4.100
3.840
2.657
1.264
0.005
-1.022
-1.748
-2.196
-2.314
-2.097
-1.844
-1.724
-1.360
-0.827
-0.429
-0.396
-0.130
0.060
0.129
0.278
0.131
0.253
0.377
0.261
0.356
0.388
0.259
0.364
0.477
0.442
0.435
0.484
0.621
0.714
0.583
0.718
0.543
0.681
0.643
0.627
0.634
0.474
0.524
0.663
0.524
0.526
0.414
0.370
0.494
0.248
0.298
0.181
0.195
0.091
0.144
0.182
0.036
0.054
-0.153
-0.243
-0.224
-0.099
-0.163
-0.267
-0.330
-0.207
-0.161
-0.439
-0.386
-0.361
-0.320
-0.418
-0.330
-0.318
-0.442
-0.391
-0.451
-0.366
-0.387
-0.345
-0.280
-0.270
-0.355
-0.451
-0.277
-0.239
0.027
0.005
-0.128
-0.142
-0.133
0.099
-0.041
0.049
-0.017
-0.068
0.072
0.115
0.027
0.188
0.093
0.082
0.026
-0.068
-0.061
0.125
0.031
0.076
0.046
0.072
0.323
-0.018
0.088
0.166
0.149
0.159
0.090
0.201
0.077
0.054
0.148
0.132
0.140
0.185
0.105
0.192
0.211
0.186
0.181
0.225
-0.076
0.151
0.310
-0.044
-0.164
-3.189
0.207
3.314
4.185
4.328
0.070
-3.408
-4.407
-4.560
-1.842
1.277
3.592
4.297
4.392
4.293
4.127
3.926
3.718
2.773
1.088
-0.713
-2.095
-2.781
-3.025
-2.971
-2.358
-1.775
-0.973
-0.357
0.185
0.407
0.711
0.830
1.008
0.794
0.625
0.573
0.492
0.484
0.362
0.502
0.444
0.382
0.581
0.592
0.616
0.738
0.609
0.588
0.725
0.748
0.751
0.814
0.579
0.434
0.698
0.776
1.864
1.777
1.199
0.628
-0.642
-2.919
-0.172
1.895
2.344
2.126
1.408
0.577
-0.420
-0.754
-0.698
-0.451
-0.011
0.157
0.336
0.087
0.092
0.060
-0.156
-0.399
-0.541
-0.632
-0.912
-1.036
-1.015
-0.861
-0.625
-0.486
-0.549
-0.220
-0.074
-0.052
-0.141
0.073
0.197
0.067
0.047
0.061
0.258
-0.001
0.046
0.076
0.132
0.415
0.464
0.263
0.410
0.317
0.364
0.563
0.605
0.636
0.457
0.316
0.322
-0.739
-3.421
-4.111
1.506
3.777
3.111
-0.069
-1.575
-0.996
-0.657
-0.566
-0.138
0.507
1.405
2.121
2.564
2.698
2.411
1.813
1.325
0.623
-0.061
-0.666
-0.953
-1.240
-1.292
-1.414
-1.241
-0.816
-0.766
-0.472
-0.133
-0.176
-0.040
0.121
0.225
0.256
0.283
0.145
0.230
0.245
0.289
0.302
0.350
0.259
0.186
0.397
0.455
0.294
0.346
0.449
0.474
0.353
0.423
0.400
0.338
0.394
0.473
0.351
0.354
0.358
0.272
0.422
0.204
0.212
-1.470
-3.413
-3.942
0.243
3.615
4.533
3.500
0.514
-0.801
-1.805
-2.039
-1.118
0.804
2.437
3.621
3.984
3.983
3.674
2.721
1.746
0.458
-0.694
-1.710
-2.107
-2.360
-2.345
-2.192
-2.175
-1.842
-1.431
-1.041
-0.601
-0.419
-0.185
-0.028
0.134
0.197
0.217
0.271
0.195
0.262
0.324
0.462
0.257
0.350
0.442
0.415
0.415
0.451
0.631
0.508
0.660
0.588
0.672
0.717
0.546
0.554
0.440
0.576
0.566
0.402
0.431
0.457
0.415
0.341
0.305
0.351
0.301
0.180
0.189
0.245
0.193
0.188
0.046
0.003
-0.078
0.050
-0.065
-0.134
-0.159
-0.036
-0.155
-0.202
-0.297
-0.275
-0.392
-0.125
-0.254
-0.313
-0.306
-0.373
-0.271
-0.183
-0.238
-0.346
-0.211
-0.257
-0.211
-0.287
-0.276
-0.179
-0.315
-0.269
-0.120
-0.385
-0.036
-0.209
-0.228
-0.229
-0.077
-0.204
0.040
-0.131
0.044
0.111
0.193
0.150
-0.056
0.016
0.177
0.435
0.395
0.140
0.044
0.165
-0.017
0.013
0.229
0.308
0.109
-0.516
-3.279
0.232
3.358
4.229
4.371
0.987
-2.715
-4.178
-4.503
-4.464
1.361
3.607
-0.032
3.107
4.112
4.290
3.623
1.554
0.031
-0.895
-1.179
-1.760
-3.095
1.768
3.478
2.908
1.012
-2.923
-1.021
-0.171
-3.259
0.286
2.573
1.945
1.191
0.130
-0.358
-0.421
-0.136
0.245
1.330
1.502
-0.718
-0.523
0.857
1.594
1.637
1.383
0.681
0.418
0.068
-0.120
0.187
0.326
0.254
0.438
0.557
0.758
0.656
0.674
0.702
0.666
0.743
0.434
0.219
0.475
0.437
0.480
0.433
0.305
0.164
0.523
0.606
0.136
-0.726
1.136
1.578
1.004
0.342
0.198
-0.131
-0.417
-3.097
-1.285
1.067
1.504
0.647
-0.955
-0.919
-0.586
-0.356
-1.150
-1.334
-0.383
1.310
1.353
1.079
0.681
0.349
-0.076
-3.305
0.524
2.684
1.765
-2.812
-1.500
0.244
0.683
-0.009
-0.674
-1.015
-1.009
-0.823
-0.380
0.044
0.348
0.698
0.848
0.867
0.603
0.496
0.444
0.197
0.254
-0.050
0.005
-0.060
-0.043
-0.169
-0.062
0.068
0.083
0.179
0.253
0.187
0.177
0.224
0.156
0.273
0.256
0.239
0.260
0.136
0.427
0.163
-0.593
0.099
0.280
0.273
0.248
-0.021
-0.034
0.284
0.253
-0.033
0.034
-0.130
-0.036
0.101
0.081
0.045
0.117
0.090
0.160
0.093
-0.023
-0.110
0.026
-0.013
0.089
-0.035
-0.113
-0.074
0.087
-0.032
0.003
0.043
-0.040
-0.061
-0.041
0.004
-0.118
0.005
-0.022
-0.074
-0.007
-0.004
0.014
-0.038
-0.008
0.126
-0.112
-0.101
0.091
0.039
0.053
0.060
-0.138
0.164
-0.038
-0.199
0.065
-0.031
0.038
0.074
0.070
-0.055
-0.114
-0.132
0.014
-0.043
0.033
0.009
-0.111
0.063
0.149
-0.095
-0.001
0.051
0.003
-0.053
0.066
-0.133
-0.007
-0.000
0.146
-0.087
-0.053
0.119
-0.016
0.061
-0.102
0.006
0.134
-0.074
-0.037
-0.021
0.155
-0.020
-0.035
0.035
0.083
0.121
-0.041
-0.003
0.087
0.153
0.043
-0.035
0.098
-0.018
0.167
0.169
0.010
-0.018
0.066
0.036
0.158
0.137
0.073
-0.020
0.043
-0.010
0.181
0.106
0.078
0.061
-0.035
0.116
0.118
0.069
0.119
0.099
-0.025
0.055
0.013
0.116
-0.007
0.007
-0.070
0.039
0.082
-0.002
-0.009
-0.044
0.142
0.025
0.035
0.064
-0.052
0.046
-0.051
0.018
-0.075
0.087
-0.090
-0.032
-0.031
-0.093
-0.086
0.125
-0.088
-0.025
0.012
-0.009
-0.094
-0.051
-0.121
0.069
-0.049
0.077
-0.020
0.048
0.045
-0.002
-0.052
-0.121
-0.053
-0.069
0.095
0.024
0.039
-0.029
-0.009
0.069
-0.007
-0.032
-0.048
0.013
0.064
-0.006
0.255
0.054
0.076
-0.126
0.018
0.034
0.049
0.085
0.089
0.068
0.009
0.030
-0.083
0.032
0.208
0.081
0.009
0.102
0.064
0.055
-0.069
-0.140
0.109
0.103
0.060
0.035
0.027
0.035
0.046
0.017
0.043
0.124
-0.046
-0.014
0.149
0.116
-0.041
-0.066
-0.069
0.099
-0.001
0.069
0.106
0.059
0.097
-0.134
0.029
0.063
0.016
-0.066
-0.036
-0.065
0.206
-0.036
-0.076
-0.022
-0.038
0.086
-0.001
0.014
-0.012
0.039
-0.066
0.163
-0.045
0.049
0.101
0.022
0.061
-0.141
-0.062
0.004
-0.012
0.121
-0.016
-0.087
0.051
0.098
0.011
0.010
0.007
0.063
0.026
0.029
0.095
-0.047
0.046
-0.050
0.048
-0.001
0.003
-0.003
0.081
-0.056
0.076
0.173
0.054
-0.069
-0.070
0.002
-0.009
0.033
0.214
0.128
-0.012
-0.006
0.028
-0.049
-0.058
0.102
0.118
-0.066
0.073
-0.006
0.098
0.045
0.063
-0.117
0.136
-0.023
0.074
0.047
0.077
-0.030
0.154
0.037
0.031
-0.087
0.063
0.048
0.007
0.001
0.044
0.013
0.049
0.027
-0.105
0.073
0.072
0.048
-0.008
-0.084
-0.014
0.138
0.007
0.076
0.015
0.032
0.098
0.030
0.097
-0.007
0.008
0.056
0.021
-0.099
0.103
0.070
0.001
0.027
-0.004
0.055
-0.039
0.095
-0.045
0.010
0.041
0.021
0.051
-0.014
0.043
0.007
0.088
-0.022
0.084
0.052
0.024
-0.024
0.038
-0.065
-0.022
0.079
-0.015
0.109
-0.038
0.106
0.116
-0.079
0.056
0.008
-0.040
0.022
0.099
0.082
0.001
-0.001
-0.118
0.089
0.047
-0.020
0.034
-0.018
0.009
0.061
0.020
0.005
-0.044
0.063
-0.079
0.075
0.039
0.138
-0.044
-0.045
0.069
-0.010
0.082
0.040
0.026
0.042
0.025
0.012
-0.100
0.041
0.083
-0.050
-0.027
0.010
0.153
0.056
0.095
0.051
-0.071
-0.110
0.072
-0.033
-0.012
-0.016
0.018
0.076
0.022
0.048
-0.023
0.036
0.004
0.056
0.038
0.006
-0.051
0.006
0.118
0.050
-0.020
-0.059
0.051
-0.039
0.054
0.020
-0.145
0.009
0.110
-0.011
0.076
-0.015
0.075
-0.103
0.110
-0.063
0.080
0.047
-0.003
0.009
0.010
-0.025
-0.054
0.145
0.091
-0.026
0.082
0.042
0.009
-0.013
0.038
-0.125
0.167
0.040
-0.035
-0.008
0.090
0.230
0.027
-0.048
0.039
0.025
-0.007
0.022
0.024
-0.042
0.066
0.063
-0.016
0.045
0.104
0.031
-0.013
-0.057
0.008
0.140
0.030
0.044
0.116
0.045
-0.059
-0.157
0.119
0.132
0.057
0.044
0.040
-0.049
-0.011
0.000
0.049
0.066
0.049
0.008
0.044
0.114
0.057
0.095
-0.034
-0.021
-0.084
0.085
-0.130
-0.053
0.113
0.123
0.060
0.021
-0.030
-0.096
0.021
-0.050
0.086
0.016
0.065
0.053
-0.090
0.002
0.157
-0.022
0.115
0.125
-0.009
-0.062
-0.080
0.075
0.028
0.022
0.037
-0.035
0.108
0.045
-0.020
-0.048
0.078
-0.022
0.047
0.059
-0.015
0.168
0.047
-0.088
-0.039
-0.051
0.069
-0.032
-0.023
-0.015
-0.128
0.100
0.020
0.005
0.080
0.023
-0.127
-0.017
0.006
0.099
0.065
0.015
0.073
-0.057
0.137
-0.086
-0.013
0.123
-0.018
-0.007
0.025
0.043
-0.006
-0.044
-0.027
0.013
0.027
0.232
0.020
0.052
-0.047
0.059
-0.107
0.169
0.057
-0.018
0.081
0.006
-0.021
0.026
0.014
0.032
0.112
-0.072
0.024
-0.060
0.019
-0.061
0.079
0.163
-0.031
0.040
0.093
-0.177
0.107
0.112
0.055
0.025
0.004
-0.050
0.049
-0.027
0.041
-0.084
0.174
0.127
-0.047
0.106
-0.037
0.054
-0.048
-0.121
0.160
0.089
0.015
-0.111
0.013
0.122
-0.003
0.045
0.010
-0.066
0.150
0.083
0.020
0.007
-0.052
-0.075
0.048
-0.037
0.130
0.099
-0.009
-0.032
0.108
-0.000
0.072
-0.047
0.044
0.088
-0.044
0.014
-0.063
0.041
-0.043
0.097
0.106
0.112
0.056
-0.057
0.081
0.069
-0.002
-0.014
0.022
-0.002
