-0.038
-0.117
-0.120
-0.032
0.111
0.089
0.001
-0.030
-0.202
-0.154
0.013
0.047
0.006
-0.013
-0.039
-0.028
0.023
-0.006
-0.031
-0.076
-0.034
0.034
0.062
0.051
-0.028
-0.057
0.017
-0.045
-0.019
0.046
0.028
-0.071
-0.049
-0.003
-0.060
-0.073
-0.034
-0.042
-0.053
0.060
0.025
-0.002
-0.081
-0.029
-0.067
-0.042
-0.031
0.045
-0.021
0.040
-0.008
-0.093
-0.027
-0.075
-0.049
0.046
-0.190
0.000
0.010
-0.060
0.031
0.033
-0.055
-0.079
0.007
0.011
-0.119
-0.015
-0.020
0.016
-0.014
-0.025
-0.141
-0.081
-0.020
0.331
0.209
-0.183
-0.075
-0.061
-0.046
-0.075
0.004
0.068
-0.027
-0.049
0.016
-0.053
-0.024
-0.001
-0.028
0.016
0.023
-0.044
-0.027
-0.054
-0.103
0.070
0.070
0.041
0.059
0.001
-0.112
-0.115
0.022
0.106
0.039
-0.087
-0.092
-0.052
-0.094
-0.038
-0.008
0.114
-0.043
0.031
-0.005
-0.152
-0.027
-0.002
0.026
0.071
-0.010
-0.055
-0.017
-0.019
-0.057
0.076
0.045
-0.054
-0.043
0.019
0.009
0.036
-0.099
0.009
-0.049
-0.082
0.006
0.078
0.106
0.048
0.011
-0.098
-0.092
-0.083
-0.068
-0.029
0.029
-0.034
0.005
0.030
-0.099
-0.070
0.069
0.090
-0.002
-0.119
-0.095
0.090
-0.005
-0.095
0.032
-0.004
-0.083
0.037
0.082
0.036
0.020
-0.074
-0.076
-0.001
-0.046
-0.031
0.049
0.054
-0.022
-0.122
0.005
-0.045
-0.016
-0.013
0.037
-0.030
0.016
-0.117
-0.002
0.018
-0.072
-0.030
-0.017
0.004
0.051
0.027
-0.041
-0.002
-0.087
0.022
-0.034
-0.052
0.059
-0.113
-0.078
0.049
-0.077
-0.001
0.046
-0.023
-0.036
-0.020
-0.015
-0.076
0.049
0.055
-0.015
-0.052
-0.066
-0.046
0.002
0.001
-0.098
-0.045
-0.074
0.063
0.005
-0.006
-0.136
-0.007
0.035
-0.003
-0.066
-0.005
-0.048
-0.003
0.019
-0.082
-0.020
-0.050
-0.084
-0.009
-0.061
0.041
0.052
-0.078
-0.064
-0.007
-0.087
0.027
-0.001
0.055
-0.088
0.048
0.024
-0.017
0.002
-0.016
-0.031
-0.041
-0.017
-0.021
-0.011
-0.115
0.044
0.048
-0.027
-0.091
0.030
0.010
0.051
-0.004
-0.115
0.007
-0.045
-0.030
-0.123
-0.021
0.019
0.023
-0.077
0.032
-0.033
0.009
-0.044
0.053
-0.048
-0.024
0.007
-0.048
-0.107
0.043
0.028
-0.080
-0.046
0.018
0.050
-0.035
-0.055
-0.084
-0.066
0.021
0.087
0.147
0.009
-0.064
-0.191
0.028
0.035
0.073
0.017
-0.068
-0.068
0.074
0.030
-0.104
-0.015
-0.024
-0.030
-0.036
0.044
-0.104
-0.010
-0.062
-0.041
-0.071
-0.014
0.017
-0.015
-0.005
0.002
-0.080
0.016
-0.123
0.070
0.055
-0.105
-0.129
0.095
0.041
-0.004
-0.039
0.054
-0.037
0.037
0.001
-0.094
-0.058
-0.096
0.001
0.080
-0.047
-0.012
0.005
0.061
-0.109
-0.092
0.010
-0.029
-0.039
0.005
0.036
-0.010
-0.050
0.001
-0.046
0.044
0.002
-0.053
-0.047
-0.007
0.013
-0.042
-0.047
-0.042
0.034
0.026
0.001
-0.090
-0.062
-0.026
0.009
-0.002
-0.019
0.027
-0.018
-0.068
0.017
0.007
0.044
-0.042
-0.112
0.041
-0.067
-0.025
-0.024
0.018
-0.017
-0.070
-0.017
-0.049
-0.039
0.027
-0.020
-0.022
-0.062
-0.071
0.141
0.033
-0.078
-0.119
-0.118
0.103
0.078
0.031
-0.047
0.014
-0.077
-0.168
-0.109
-0.023
0.043
-0.101
0.050
-0.010
0.066
-0.058
-0.088
-0.007
0.022
-0.104
0.026
0.081
-0.133
-0.005
-0.051
-0.044
-0.132
-0.075
-0.060
0.108
-0.049
-0.027
-0.048
-0.011
-0.004
0.043
-0.061
0.038
0.106
-0.003
-0.083
-0.128
0.048
-0.055
-0.082
0.006
0.090
-0.100
0.049
0.055
-0.027
-0.041
-0.087
0.030
-0.045
-0.113
-0.135
0.002
0.254
0.158
-0.053
-0.127
-0.090
-0.129
-0.047
0.067
0.081
-0.016
-0.012
-0.034
-0.009
-0.049
-0.042
-0.061
-0.060
0.061
0.017
0.032
-0.072
-0.042
-0.034
0.024
0.039
-0.081
0.011
-0.065
-0.016
-0.042
-0.001
-0.022
-0.032
0.005
0.118
0.008
-0.022
-0.059
0.031
-0.024
-0.024
-0.082
-0.122
0.030
0.075
-0.014
-0.038
0.008
-0.040
0.115
-0.022
-0.051
-0.111
0.038
0.015
-0.022
0.000
0.018
-0.074
-0.001
-0.023
-0.162
-0.055
-0.049
0.069
0.002
-0.043
-0.079
-0.018
-0.077
0.030
0.009
-0.045
0.016
0.013
-0.068
-0.063
0.003
-0.037
0.032
-0.084
-0.050
0.058
-0.038
-0.044
-0.059
0.032
-0.023
-0.027
-0.099
-0.013
-0.034
-0.048
0.037
0.055
-0.007
-0.156
0.038
-0.075
-0.056
0.042
0.008
0.040
-0.064
0.031
-0.056
-0.072
-0.101
0.085
0.020
-0.019
-0.051
-0.028
-0.076
0.038
0.027
-0.062
-0.109
-0.137
0.022
0.069
-0.012
0.004
-0.051
-0.146
-0.203
-0.007
0.100
0.011
-0.064
-0.017
-0.068
0.068
-0.092
-0.114
0.033
0.039
0.105
0.009
-0.085
-0.019
-0.048
-0.047
-0.005
-0.054
0.074
-0.051
0.014
-0.069
-0.063
0.043
0.054
-0.050
0.001
-0.002
-0.023
-0.036
-0.093
-0.054
0.030
-0.109
0.014
0.023
-0.065
-0.007
-0.100
0.017
0.015
-0.037
-0.000
0.004
-0.038
0.062
-0.037
-0.103
-0.019
0.059
-0.061
-0.014
0.090
0.064
-0.114
-0.034
-0.015
-0.040
-0.006
-0.157
-0.031
0.130
0.020
-0.034
-0.146
-0.087
-0.114
0.139
0.087
0.039
-0.043
-0.074
-0.041
-0.079
0.025
0.049
-0.045
0.015
-0.030
-0.044
-0.037
-0.096
0.058
0.022
0.094
-0.015
-0.042
-0.060
-0.034
-0.086
-0.022
-0.027
-0.042
-0.033
0.021
0.008
-0.010
0.002
-0.123
-0.034
-0.028
0.020
-0.039
-0.017
0.040
-0.070
-0.062
0.008
-0.004
-0.024
0.027
-0.154
-0.031
-0.024
-0.011
0.015
-0.057
-0.024
0.008
-0.144
-0.042
-0.011
0.056
-0.107
-0.036
-0.045
-0.029
0.058
0.014
-0.081
0.083
-0.012
-0.073
-0.061
-0.039
-0.090
0.093
0.033
0.018
-0.138
-0.021
0.035
-0.012
-0.071
-0.040
-0.014
0.050
-0.050
0.014
-0.023
-0.021
-0.017
0.041
-0.067
-0.004
-0.023
-0.016
-0.011
-0.082
0.012
-0.036
-0.039
-0.026
0.039
-0.109
-0.107
-0.114
-0.018
0.035
0.133
0.229
-0.079
-0.072
-0.131
0.038
0.007
0.016
-0.013
0.014
0.027
-0.038
-0.022
-0.001
0.052
-0.085
-0.026
-0.006
-0.060
-0.047
-0.140
-0.069
0.040
-0.003
0.039
-0.025
0.030
-0.009
-0.043
-0.094
-0.069
0.090
0.004
-0.048
0.000
-0.037
-0.069
-0.002
-0.053
0.047
-0.139
-0.005
-0.056
-0.069
0.039
0.008
-0.036
-0.033
-0.096
0.011
0.006
0.077
0.029
-0.166
-0.076
0.013
-0.040
0.014
0.036
-0.063
-0.000
-0.035
0.090
-0.020
-0.198
0.043
-0.072
0.047
-0.064
0.036
-0.105
-0.064
-0.027
-0.022
-0.054
-0.147
-0.009
0.025
0.047
-0.083
-0.016
0.011
0.032
-0.022
-0.016
-0.075
-0.116
-0.119
-0.011
0.027
0.075
-0.033
-0.114
-0.026
0.018
-0.067
0.034
-0.068
0.089
0.079
-0.030
-0.070
-0.140
0.012
0.082
-0.003
0.079
-0.135
-0.193
0.019
0.089
0.016
-0.028
0.060
-0.037
-0.154
0.088
-0.023
-0.175
-0.019
0.185
0.041
0.010
-0.029
-0.064
-0.080
-0.024
0.063
-0.005
-0.046
-0.069
-0.015
0.009
0.001
0.091
-0.025
-0.040
0.030
0.023
-0.021
-0.050
-0.072
-0.077
0.009
-0.021
-0.084
0.075
-0.011
-0.050
0.049
-0.055
-0.039
-0.052
0.043
-0.128
-0.033
0.006
-0.053
0.069
0.108
0.048
-0.057
0.003
-0.102
-0.047
-0.024
0.005
-0.029
0.062
0.056
-0.049
-0.012
-0.083
-0.007
-0.078
0.085
-0.060
0.025
0.012
-0.063
0.074
0.002
0.033
-0.104
-0.073
0.063
0.047
-0.013
-0.091
-0.039
0.016
0.012
-0.065
-0.056
0.042
-0.065
0.059
-0.029
-0.043
0.002
-0.027
-0.024
-0.074
-0.025
0.097
-0.012
-0.063
-0.009
-0.016
-0.073
-0.060
0.061
-0.040
-0.033
0.037
0.095
-0.058
-0.060
-0.102
0.112
0.035
-0.163
-0.065
0.091
0.071
-0.002
-0.058
0.020
-0.083
-0.048
0.038
-0.024
-0.027
-0.004
0.006
-0.048
0.039
-0.005
-0.020
-0.025
-0.051
-0.044
-0.054
0.015
-0.043
0.031
0.012
-0.094
-0.054
0.016
0.029
-0.001
-0.019
-0.033
-0.031
-0.035
-0.031
0.087
0.027
-0.056
0.087
-0.061
-0.089
-0.062
0.008
0.001
0.008
0.015
0.070
-0.073
-0.140
-0.168
0.040
0.010
-0.019
-0.041
-0.012
0.017
0.021
-0.064
-0.018
0.007
0.089
-0.214
-0.167
-0.032
0.257
0.163
0.002
-0.152
-0.102
-0.108
-0.038
0.066
0.003
-0.017
0.026
0.067
-0.028
0.001
-0.043
-0.185
0.003
0.132
0.033
-0.011
-0.019
-0.058
-0.103
-0.052
-0.031
0.027
0.063
0.004
-0.110
0.016
0.102
-0.010
-0.095
-0.145
-0.015
0.021
0.044
-0.009
-0.049
-0.104
0.004
-0.057
-0.029
-0.075
0.010
0.012
0.003
-0.042
-0.125
0.033
0.005
-0.016
0.106
-0.098
-0.016
0.015
-0.005
0.013
0.015
-0.003
-0.066
-0.006
-0.042
0.052
-0.060
-0.054
-0.105
0.031
0.014
-0.024
0.060
0.115
-0.058
0.006
-0.112
-0.058
-0.042
-0.050
0.041
0.056
-0.166
0.037
-0.031
-0.139
0.015
-0.052
-0.009
0.042
-0.075
-0.010
-0.023
-0.030
-0.082
0.075
-0.031
-0.043
-0.004
-0.002
-0.128
-0.040
-0.036
0.022
0.070
0.029
0.072
-0.081
-0.217
0.102
0.190
0.126
-0.051
-0.110
-0.194
0.031
0.145
0.091
0.028
-0.051
-0.097
-0.148
-0.016
-0.102
-0.092
0.020
0.002
0.020
0.056
-0.036
-0.002
-0.005
-0.081
0.024
-0.012
-0.128
0.064
-0.073
-0.004
0.050
0.022
-0.024
-0.031
-0.012
-0.063
-0.044
-0.091
-0.135
0.024
0.002
0.076
0.027
0.042
-0.069
-0.057
-0.004
-0.057
-0.029
0.048
-0.044
-0.034
-0.066
-0.015
-0.019
0.016
-0.009
-0.059
0.069
-0.065
-0.184
-0.085
-0.010
0.085
0.018
-0.089
0.020
0.040
-0.029
-0.113
0.018
0.061
-0.018
-0.129
0.043
-0.007
0.001
0.018
-0.081
-0.005
-0.026
-0.075
-0.064
-0.058
-0.043
0.099
0.079
-0.119
-0.126
-0.070
-0.019
0.074
-0.023
-0.041
-0.003
-0.038
-0.046
0.020
0.080
0.026
0.034
-0.082
-0.142
0.015
-0.021
-0.015
-0.015
0.076
-0.152
-0.023
-0.030
-0.093
-0.062
-0.018
0.030
0.002
-0.055
0.030
0.003
-0.003
0.052
0.019
-0.000
0.016
0.014
0.013
-0.104
-0.011
0.026
-0.060
-0.064
0.015
0.050
-0.010
-0.003
0.021
-0.039
-0.072
-0.046
0.044
0.048
0.004
-0.016
-0.130
-0.044
0.050
0.108
-0.096
-0.200
0.039
0.034
0.082
-0.004
-0.045
-0.036
-0.077
0.024
-0.075
0.028
-0.036
-0.003
-0.070
0.081
-0.038
-0.027
0.004
-0.013
-0.118
-0.106
-0.027
-0.004
0.017
0.001
-0.123
0.051
0.029
0.045
-0.017
-0.131
-0.046
-0.015
0.027
-0.020
-0.018
-0.027
-0.100
-0.017
-0.007
-0.047
-0.057
0.055
0.011
0.016
-0.088
0.028
-0.099
-0.060
-0.046
-0.006
0.037
0.016
0.015
0.029
-0.096
-0.001
-0.102
-0.047
-0.075
-0.029
0.059
0.055
0.018
0.054
0.094
-0.086
-0.203
-0.116
-0.066
0.028
0.120
0.065
-0.038
-0.127
-0.088
-0.030
-0.023
-0.028
-0.038
-0.038
0.068
0.019
-0.127
-0.016
-0.106
-0.018
0.052
-0.067
-0.046
-0.006
-0.023
-0.018
0.008
-0.042
-0.003
-0.085
-0.011
0.011
-0.027
-0.095
0.028
0.058
-0.031
-0.064
-0.026
-0.031
-0.039
0.020
0.049
-0.044
-0.069
-0.018
-0.017
0.040
-0.026
0.011
0.044
-0.064
-0.106
0.076
0.084
-0.031
-0.085
-0.063
-0.082
-0.011
-0.084
-0.064
-0.061
-0.056
0.020
0.001
-0.025
-0.085
0.024
-0.030
-0.050
-0.130
-0.006
0.006
-0.026
0.025
-0.010
0.031
0.041
-0.097
-0.018
-0.035
0.032
-0.023
0.076
-0.040
-0.025
-0.062
0.008
0.020
-0.071
-0.030
-0.004
-0.025
-0.085
0.020
-0.019
-0.038
0.128
-0.040
-0.078
-0.088
-0.029
-0.001
0.073
0.005
-0.127
0.064
0.029
0.012
-0.170
0.019
-0.044
-0.074
0.002
-0.035
0.059
-0.126
0.020
-0.012
-0.006
0.034
-0.093
-0.009
-0.036
-0.114
0.070
0.096
0.076
-0.085
0.024
-0.093
-0.154
-0.073
0.188
0.135
-0.025
-0.068
-0.045
-0.079
0.015
0.049
0.007
-0.068
-0.030
0.018
-0.054
0.021
0.025
0.010
-0.011
-0.202
-0.069
-0.063
-0.034
-0.039
-0.028
-0.009
-0.031
0.073
-0.083
-0.071
-0.039
-0.008
-0.054
0.098
-0.018
-0.060
-0.037
-0.006
-0.064
-0.093
-0.064
0.041
0.050
0.033
0.012
-0.143
-0.050
0.012
0.007
0.052
-0.010
-0.013
-0.054
-0.081
-0.006
0.033
0.001
0.063
-0.065
-0.013
-0.037
0.018
0.027
-0.082
-0.007
-0.039
0.096
0.032
-0.005
-0.111
-0.047
0.083
-0.076
0.019
-0.093
0.078
-0.067
0.031
0.016
-0.113
0.007
-0.068
0.025
-0.094
-0.020
-0.050
0.018
0.098
0.060
-0.071
-0.085
-0.047
0.031
-0.012
-0.041
0.020
0.134
0.020
-0.050
-0.046
-0.002
-0.048
-0.077
0.031
0.023
0.025
0.059
-0.046
-0.025
-0.068
-0.017
-0.063
-0.025
-0.050
-0.011
-0.023
-0.001
-0.046
0.062
-0.019
-0.075
-0.037
0.013
-0.001
-0.062
0.006
0.050
-0.057
-0.001
0.082
-0.004
0.055
-0.032
-0.023
-0.102
-0.020
-0.043
-0.054
-0.046
0.021
0.009
0.024
-0.059
-0.032
-0.114
-0.082
-0.032
0.053
0.055
-0.049
-0.061
0.012
-0.007
0.006
-0.075
-0.077
0.009
-0.056
-0.122
-0.129
-0.050
0.126
0.277
-0.029
-0.187
-0.005
-0.410
-0.020
0.428
0.155
-0.057
-0.236
-0.161
-0.053
0.065
0.085
0.013
0.009
-0.017
-0.033
-0.078
-0.046
-0.128
-0.001
0.001
0.024
-0.057
-0.043
0.038
0.017
-0.011
-0.029
-0.037
0.014
0.010
-0.009
0.066
-0.062
-0.189
-0.038
-0.086
-0.031
0.108
0.057
-0.073
0.044
-0.121
-0.162
0.020
-0.032
0.005
-0.086
0.016
0.029
-0.022
0.036
0.000
-0.035
0.032
-0.029
-0.087
-0.057
0.054
-0.017
-0.005
0.005
-0.088
-0.029
-0.068
-0.018
0.059
-0.104
-0.020
-0.010
0.036
-0.009
-0.027
-0.060
-0.175
0.028
0.068
-0.079
-0.088
0.016
0.071
-0.093
-0.019
0.009
-0.057
0.075
0.023
-0.026
-0.088
-0.002
-0.043
-0.130
-0.028
0.075
-0.017
-0.034
0.015
-0.037
-0.015
-0.002
0.019
-0.029
-0.017
-0.009
-0.094
-0.033
-0.028
0.094
-0.086
0.005
-0.075
-0.057
0.010
-0.030
0.010
0.017
-0.092
-0.060
0.005
-0.006
-0.020
0.012
-0.076
-0.016
0.119
-0.036
0.004
-0.097
-0.017
0.058
-0.062
-0.083
0.115
-0.017
0.056
0.093
-0.109
-0.100
0.008
-0.084
0.088
0.017
-0.018
-0.139
-0.114
0.011
-0.116
0.005
0.066
0.133
-0.074
-0.042
-0.016
0.026
0.019
-0.024
0.009
-0.074
-0.061
0.016
0.064
-0.019
-0.084
-0.001
-0.060
-0.028
-0.058
-0.026
-0.059
-0.049
0.057
0.033
-0.004
-0.134
0.013
-0.017
-0.080
-0.029
-0.061
-0.062
-0.046
0.091
0.116
-0.093
-0.088
-0.102
0.052
0.051
0.019
0.036
-0.067
-0.046
0.069
0.054
-0.050
-0.021
-0.033
-0.002
-0.060
0.052
-0.125
-0.061
0.032
0.033
-0.067
0.020
-0.078
-0.101
0.032
-0.039
-0.064
-0.044
0.006
-0.064
-0.053
-0.014
-0.075
-0.024
-0.075
0.046
-0.012
0.075
0.066
-0.178
0.063
-0.076
-0.087
-0.073
-0.030
0.020
0.059
-0.007
0.008
0.018
-0.125
-0.080
-0.059
-0.001
0.087
0.041
-0.043
-0.015
-0.067
0.004
0.040
-0.059
-0.038
-0.053
0.092
-0.112
-0.063
0.032
0.010
-0.007
-0.095
-0.095
0.074
0.012
-0.183
-0.077
-0.029
-0.004
0.133
0.024
-0.029
-0.020
-0.111
-0.058
-0.039
0.064
0.011
-0.027
-0.013
0.035
-0.033
0.036
-0.075
-0.061
0.030
0.050
-0.026
-0.013
-0.083
0.029
-0.062
0.052
-0.001
-0.084
-0.052
0.049
0.061
-0.019
-0.018
-0.050
-0.174
-0.050
-0.020
0.108
-0.080
0.015
0.064
-0.076
-0.069
-0.075
0.055
-0.011
-0.119
0.092
-0.005
0.012
-0.010
-0.051
-0.055
-0.051
0.044
0.058
-0.095
-0.031
0.053
0.012
-0.093
-0.015
-0.027
-0.051
0.004
0.102
-0.083
-0.017
0.004
-0.067
0.124
-0.005
-0.106
-0.030
-0.034
0.027
0.021
-0.007
-0.018
0.021
0.052
-0.144
-0.021
-0.088
0.091
0.088
-0.034
-0.074
-0.052
-0.023
-0.093
0.064
0.006
-0.094
0.006
0.043
-0.052
-0.149
0.099
0.008
-0.181
0.015
-0.043
-0.069
0.011
0.026
-0.029
0.009
0.075
-0.103
-0.091
-0.017
-0.078
0.021
-0.023
-0.118
-0.051
-0.128
0.054
0.077
0.062
-0.120
-0.031
-0.108
0.035
0.027
0.022
0.060
0.058
-0.089
0.039
0.023
-0.122
-0.051
-0.116
0.073
0.037
-0.079
-0.044
-0.108
-0.059
0.009
-0.028
-0.072
0.094
-0.081
0.011
-0.075
-0.040
-0.010
-0.070
0.015
-0.071
0.044
-0.046
-0.087
-0.021
-0.019
0.013
-0.019
-0.015
-0.084
-0.018
-0.100
-0.066
0.094
-0.053
-0.011
-0.029
-0.048
-0.015
-0.096
-0.070
-0.062
0.058
0.070
0.041
-0.032
-0.087
-0.077
-0.017
0.009
0.065
0.013
-0.035
-0.082
-0.111
0.037
-0.036
-0.099
-0.037
0.056
0.013
0.061
0.034
-0.077
-0.133
0.035
-0.023
-0.046
0.115
0.023
-0.070
-0.084
0.022
-0.026
-0.095
-0.003
0.055
-0.117
-0.147
0.027
0.058
-0.013
0.006
0.035
-0.022
-0.057
-0.041
-0.041
0.032
-0.070
0.074
-0.021
-0.125
-0.008
-0.051
-0.025
-0.071
-0.090
-0.087
-0.061
0.046
0.071
0.020
-0.010
-0.073
0.027
0.054
-0.077
-0.068
0.011
0.015
-0.104
-0.067
0.008
-0.034
-0.057
-0.024
-0.003
0.070
-0.062
-0.068
-0.050
0.007
0.063
-0.066
-0.046
-0.043
0.039
0.069
-0.001
-0.072
-0.144
-0.108
0.028
0.191
-0.048
-0.097
-0.016
-0.041
-0.084
0.020
-0.018
-0.102
-0.007
-0.012
0.023
0.029
-0.128
-0.082
-0.010
0.099
0.025
-0.198
0.006
-0.063
-0.068
0.060
-0.108
0.083
0.026
-0.069
-0.100
0.125
-0.040
-0.118
-0.044
0.005
-0.049
0.004
0.002
-0.028
-0.036
-0.037
-0.018
-0.015
-0.031
-0.048
-0.041
-0.034
0.017
-0.011
0.031
0.046
-0.041
-0.002
-0.045
-0.066
0.007
0.064
0.043
-0.097
-0.088
-0.101
-0.092
0.078
0.025
0.018
-0.180
-0.099
0.020
0.043
-0.066
0.026
0.064
-0.028
-0.102
-0.055
-0.007
-0.005
-0.089
0.043
0.007
-0.055
-0.093
0.036
-0.047
0.024
-0.075
0.023
-0.018
0.008
-0.084
0.036
-0.015
-0.038
-0.057
-0.026
-0.070
-0.086
-0.088
0.054
-0.172
-0.085
0.031
0.035
0.061
0.053
-0.154
-0.203
-0.190
0.045
0.206
0.128
0.039
-0.115
-0.088
-0.131
-0.077
-0.016
0.081
0.111
-0.023
-0.012
0.016
-0.055
-0.043
-0.017
-0.070
-0.005
-0.062
-0.105
0.031
0.011
-0.095
-0.032
-0.168
-0.005
0.036
0.024
0.008
0.042
-0.165
-0.055
-0.034
0.068
-0.057
-0.063
-0.030
-0.017
0.016
-0.047
-0.075
-0.115
0.019
0.011
-0.034
-0.005
0.037
0.110
0.022
0.023
-0.074
-0.037
-0.145
-0.024
-0.014
0.079
-0.012
-0.038
0.008
-0.207
0.025
0.014
0.000
0.024
-0.053
-0.076
-0.021
-0.012
-0.041
0.085
0.111
-0.013
-0.046
-0.047
-0.036
-0.087
0.113
0.072
0.015
-0.112
-0.013
-0.021
-0.050
0.046
-0.018
0.004
-0.022
-0.190
-0.132
0.109
0.150
0.040
-0.088
-0.139
-0.111
0.070
-0.039
0.038
-0.113
0.058
-0.072
0.056
0.041
0.100
-0.025
-0.009
-0.078
-0.103
-0.017
0.057
-0.002
0.010
-0.113
-0.081
0.138
0.267
0.066
-0.186
-0.142
-0.047
-0.051
-0.047
0.028
-0.014
-0.019
-0.043
0.045
-0.014
-0.030
-0.059
-0.055
-0.025
-0.047
0.051
-0.030
0.014
-0.102
-0.070
-0.073
-0.100
0.112
0.062
0.026
-0.083
-0.096
0.007
-0.008
0.043
-0.021
-0.201
-0.067
0.070
0.065
0.093
-0.042
-0.069
-0.083
0.018
-0.056
-0.011
0.003
-0.090
-0.031
-0.009
-0.065
-0.041
-0.025
-0.082
0.037
-0.012
0.025
-0.012
-0.085
-0.062
0.074
-0.102
0.028
0.010
-0.062
0.008
-0.024
-0.073
-0.074
0.022
-0.056
-0.144
-0.052
0.128
0.031
-0.012
-0.062
-0.110
-0.007
-0.020
0.046
0.020
-0.094
-0.046
0.015
-0.021
-0.027
-0.050
-0.092
0.035
0.075
0.004
-0.041
-0.028
0.023
-0.062
-0.021
-0.020
-0.042
0.042
-0.079
0.064
-0.073
-0.015
-0.021
0.087
0.036
-0.196
0.029
0.085
-0.041
-0.008
0.009
-0.115
-0.072
-0.064
-0.053
0.073
0.041
-0.037
-0.096
0.046
0.044
0.039
-0.003
-0.078
0.031
-0.067
0.028
0.088
-0.008
0.069
-0.059
0.056
0.019
-0.092
0.026
0.039
0.027
-0.044
-0.148
-0.005
-0.034
0.032
-0.056
-0.089
-0.019
-0.014
0.035
0.038
-0.018
-0.040
-0.065
-0.085
-0.074
0.090
-0.011
-0.005
-0.023
-0.076
-0.026
0.017
0.020
0.089
-0.047
0.025
-0.026
-0.078
0.010
0.058
-0.012
-0.028
-0.118
-0.026
0.217
-0.137
-0.124
0.075
-0.034
-0.090
-0.018
0.027
-0.010
-0.066
-0.048
-0.045
-0.076
0.148
0.009
-0.082
-0.056
-0.038
-0.011
0.068
0.032
-0.027
-0.040
-0.037
-0.123
-0.197
-0.054
0.096
-0.035
0.037
-0.007
-0.019
0.020
-0.053
-0.108
0.033
0.026
-0.130
0.037
0.029
0.023
-0.155
0.006
-0.007
0.034
0.043
0.080
-0.122
-0.167
-0.043
-0.031
-0.067
-0.113
0.071
0.035
0.018
-0.048
-0.057
-0.034
-0.028
0.028
-0.029
0.028
-0.060
-0.039
-0.055
-0.103
-0.017
0.028
0.028
-0.020
0.003
-0.061
-0.070
0.056
0.010
-0.054
-0.023
-0.130
0.017
-0.010
-0.011
-0.039
-0.053
0.032
0.017
-0.087
-0.066
-0.056
0.064
0.059
0.002
0.002
-0.030
0.018
-0.071
-0.137
0.003
0.080
-0.019
-0.085
0.053
-0.100
0.019
-0.071
-0.015
-0.058
0.017
-0.033
0.030
-0.027
-0.016
0.063
-0.133
0.040
-0.015
-0.087
-0.045
-0.077
0.025
-0.053
-0.007
0.009
0.113
-0.072
-0.068
0.007
-0.047
-0.052
0.001
-0.082
0.024
-0.032
-0.006
-0.073
0.026
0.024
-0.076
-0.021
0.021
0.034
0.046
0.019
0.018
-0.046
0.073
0.034
0.019
-0.103
0.015
-0.044
-0.048
-0.005
-0.030
-0.096
0.060
-0.009
-0.035
-0.102
-0.071
-0.032
-0.103
-0.020
0.035
0.107
-0.102
-0.025
0.033
-0.034
-0.070
-0.051
-0.052
-0.070
-0.004
0.143
-0.002
-0.027
-0.015
0.043
-0.063
-0.003
-0.051
-0.002
-0.025
-0.011
0.040
0.091
-0.113
-0.019
-0.098
-0.029
-0.024
-0.069
0.018
0.010
0.050
-0.028
-0.157
-0.130
-0.007
0.109
0.031
-0.001
0.057
-0.157
-0.029
0.047
-0.036
-0.014
-0.025
-0.028
0.031
-0.048
-0.076
-0.064
0.069
-0.015
-0.011
0.008
-0.016
-0.105
-0.075
-0.020
0.017
-0.079
-0.039
0.014
0.026
-0.029
0.056
-0.103
-0.048
-0.111
-0.014
0.005
-0.028
-0.013
0.046
0.086
-0.023
-0.051
-0.058
0.012
-0.061
-0.049
0.007
-0.071
0.018
-0.069
-0.049
-0.028
0.000
-0.047
-0.050
-0.015
-0.056
0.037
-0.007
0.034
0.002
0.089
-0.103
-0.022
0.002
-0.059
-0.153
-0.041
0.002
0.006
0.046
-0.171
0.037
-0.032
0.005
-0.007
0.127
-0.069
-0.075
-0.146
-0.052
-0.003
-0.035
0.065
0.076
-0.074
-0.073
-0.071
-0.083
0.016
-0.020
0.017
0.014
0.097
0.077
-0.102
-0.058
-0.087
0.147
-0.037
-0.101
-0.086
-0.020
-0.022
0.015
0.015
-0.000
-0.029
0.004
0.008
-0.032
0.065
-0.056
-0.049
-0.019
0.010
0.055
0.020
0.067
-0.121
-0.102
0.003
0.045
-0.018
-0.035
-0.023
0.001
-0.002
-0.085
-0.122
-0.011
-0.013
-0.064
0.070
-0.017
0.047
-0.023
0.036
-0.003
-0.022
-0.002
-0.045
-0.002
-0.055
-0.059
0.077
0.033
-0.011
0.016
-0.055
-0.049
-0.072
-0.018
0.093
-0.000
0.101
-0.043
-0.089
0.015
-0.050
-0.009
0.037
-0.052
-0.032
-0.008
-0.027
-0.054
-0.070
0.026
-0.001
-0.050
0.065
-0.052
-0.005
-0.086
-0.021
-0.035
0.045
-0.068
-0.019
-0.002
-0.088
0.059
-0.041
-0.006
-0.000
-0.076
-0.053
0.037
0.002
-0.062
0.012
0.016
-0.047
-0.034
0.058
0.024
-0.109
-0.081
-0.034
-0.003
-0.026
0.010
-0.144
-0.143
-0.017
0.197
0.135
0.058
-0.169
-0.117
-0.118
0.080
-0.057
0.065
0.029
-0.034
0.045
-0.013
-0.037
-0.150
0.001
-0.021
-0.070
0.045
-0.044
-0.049
-0.058
-0.060
0.033
-0.006
-0.008
-0.101
0.065
-0.151
-0.077
0.021
0.023
-0.042
-0.108
-0.059
0.041
0.059
-0.017
-0.065
0.055
-0.046
-0.074
0.010
0.021
-0.039
0.011
0.019
0.029
-0.074
0.091
-0.055
-0.116
-0.020
-0.027
0.002
0.010
-0.040
-0.081
0.019
-0.079
-0.152
0.020
0.061
0.055
-0.125
0.027
-0.110
-0.060
0.011
0.039
-0.090
-0.044
0.007
-0.019
-0.055
0.014
-0.000
0.008
-0.058
-0.055
-0.036
-0.077
0.029
0.033
0.041
0.041
0.017
-0.082
-0.119
-0.114
0.083
-0.014
-0.052
-0.049
-0.127
-0.068
0.050
0.034
-0.028
-0.094
-0.017
0.002
0.023
-0.139
-0.151
0.059
0.220
0.186
-0.077
-0.128
-0.104
0.004
-0.178
0.005
0.085
-0.054
0.043
0.059
0.032
-0.070
0.034
-0.118
-0.051
0.026
-0.039
-0.131
-0.095
-0.013
-0.040
-0.062
0.078
0.008
-0.037
-0.197
0.065
0.022
0.008
-0.042
0.019
0.004
-0.105
-0.044
-0.031
-0.011
-0.081
-0.025
-0.025
-0.075
0.006
-0.057
-0.043
-0.058
-0.013
-0.011
-0.051
0.016
-0.024
-0.065
0.048
0.074
-0.038
-0.115
0.070
0.092
-0.014
-0.097
-0.063
-0.061
-0.018
0.047
0.094
0.007
-0.035
-0.092
-0.057
-0.098
-0.042
0.113
0.152
-0.113
-0.209
-0.116
-0.100
0.080
0.048
0.005
-0.039
-0.018
-0.046
-0.028
-0.035
0.009
0.066
-0.031
-0.027
-0.137
-0.077
-0.025
0.002
0.022
-0.047
0.051
-0.064
0.030
-0.050
-0.085
-0.049
0.075
0.029
-0.062
-0.064
0.034
0.016
0.042
-0.050
-0.045
0.014
-0.072
-0.091
-0.009
-0.013
0.018
0.023
0.025
-0.043
-0.015
-0.052
0.016
0.015
0.100
-0.069
-0.103
0.005
-0.026
0.019
-0.013
-0.099
-0.125
0.033
0.008
0.050
0.014
-0.132
0.029
-0.001
0.040
-0.126
0.005
-0.076
-0.118
0.031
-0.047
-0.030
0.105
-0.039
-0.038
-0.031
-0.063
0.071
-0.063
-0.028
-0.058
-0.001
0.001
-0.003
0.028
-0.034
-0.073
-0.038
0.011
-0.171
-0.039
0.082
-0.060
-0.074
0.068
0.016
-0.041
-0.125
-0.045
0.043
-0.040
0.062
0.036
-0.037
-0.163
0.081
0.011
-0.063
-0.056
-0.019
-0.005
-0.015
-0.011
-0.061
0.048
-0.112
-0.029
0.025
0.000
-0.049
-0.037
0.056
-0.075
-0.009
0.062
-0.084
0.062
-0.077
0.018
-0.055
-0.029
0.003
0.022
-0.108
0.021
-0.033
0.059
-0.101
-0.038
0.059
-0.018
-0.057
-0.107
0.054
-0.036
-0.038
-0.073
-0.043
-0.002
-0.006
0.036
0.010
-0.041
-0.032
-0.108
-0.065
-0.028
0.088
0.080
0.083
-0.017
0.030
-0.001
-0.070
-0.130
-0.017
-0.018
0.041
0.110
-0.055
-0.058
-0.092
-0.060
-0.064
0.005
-0.008
0.029
-0.010
0.041
-0.037
-0.028
-0.107
-0.009
0.008
0.080
-0.017
-0.069
0.040
-0.056
-0.052
0.014
-0.044
-0.024
0.042
-0.003
-0.054
0.063
-0.002
-0.070
-0.007
-0.046
-0.031
0.025
-0.057
-0.106
0.033
0.042
-0.043
0.012
0.066
-0.060
-0.193
-0.063
-0.044
0.025
0.138
0.045
-0.015
-0.121
-0.045
-0.133
-0.066
0.021
0.073
-0.029
-0.065
-0.018
-0.065
-0.062
0.041
0.028
0.020
0.066
-0.036
-0.046
-0.079
-0.006
-0.044
0.094
0.035
-0.072
0.047
-0.047
0.035
-0.071
0.013
-0.032
0.018
-0.029
0.087
0.020
-0.073
-0.031
-0.117
-0.010
0.008
0.060
-0.081
0.061
-0.044
-0.031
-0.011
-0.100
0.017
0.022
-0.026
-0.111
0.070
-0.038
0.007
-0.016
-0.083
-0.055
-0.017
0.028
0.056
-0.028
-0.113
0.041
0.035
0.053
-0.036
0.041
-0.038
0.043
-0.055
-0.029
-0.050
0.086
0.033
0.058
-0.071
-0.046
0.016
-0.023
-0.021
0.042
0.044
-0.003
0.084
0.021
-0.062
-0.055
0.090
-0.125
0.023
-0.103
-0.004
-0.035
0.056
-0.123
-0.043
-0.071
-0.071
0.077
-0.106
-0.023
0.025
0.021
0.036
-0.032
-0.021
-0.118
0.046
-0.004
-0.083
-0.040
0.038
0.004
0.038
-0.045
-0.016
0.048
-0.069
-0.016
0.068
-0.120
0.005
0.042
-0.052
-0.141
-0.030
0.094
-0.066
0.041
-0.063
-0.120
-0.023
-0.025
-0.021
0.064
0.092
-0.053
-0.070
0.028
0.056
-0.013
-0.085
-0.077
-0.092
-0.045
0.011
0.090
0.112
-0.023
-0.050
-0.197
0.004
-0.017
-0.012
-0.016
-0.013
-0.032
0.002
-0.018
0.022
-0.021
-0.037
0.009
-0.028
0.011
-0.086
-0.073
0.048
-0.062
-0.108
-0.034
0.062
0.032
0.039
0.055
-0.129
0.007
0.048
-0.045
-0.118
0.017
-0.007
-0.018
0.010
-0.020
-0.045
0.008
-0.026
0.027
-0.025
0.071
0.008
-0.070
-0.014
0.014
-0.026
0.001
-0.011
-0.072
-0.021
-0.055
-0.006
0.003
0.025
-0.120
-0.062
0.090
-0.026
0.036
-0.037
0.020
0.029
-0.135
-0.016
0.077
-0.012
-0.085
-0.107
0.061
-0.048
0.012
-0.044
-0.058
0.047
0.035
-0.075
-0.159
-0.057
0.016
0.063
-0.030
0.049
0.028
-0.033
-0.080
-0.062
-0.009
-0.112
0.125
-0.068
-0.064
0.075
0.044
-0.088
-0.133
-0.093
-0.148
0.062
0.064
0.042
-0.026
-0.158
-0.099
0.045
0.077
-0.083
-0.015
0.040
-0.002
-0.016
0.112
-0.027
0.078
-0.134
-0.011
-0.052
0.016
0.023
0.022
0.019
-0.095
-0.022
-0.033
-0.026
0.006
0.020
-0.101
-0.111
-0.020
-0.008
0.115
-0.017
-0.128
-0.041
-0.002
-0.030
0.095
-0.094
-0.073
-0.004
-0.007
-0.020
0.024
-0.013
-0.125
-0.041
-0.060
0.026
0.129
0.006
-0.035
-0.052
-0.058
-0.041
0.074
-0.014
-0.143
-0.523
0.740
0.409
-0.224
-0.270
-0.145
-0.004
0.006
0.028
-0.084
-0.026
-0.075
0.130
0.074
-0.065
-0.010
-0.118
-0.040
0.045
-0.029
-0.037
-0.016
0.021
0.014
0.021
0.006
-0.055
0.083
0.030
-0.089
-0.130
-0.020
-0.042
-0.057
-0.034
-0.041
-0.055
0.135
0.001
-0.032
-0.187
-0.001
0.051
0.094
-0.053
-0.026
0.024
-0.052
-0.069
-0.093
0.080
-0.082
-0.006
0.021
-0.033
-0.012
-0.070
-0.000
0.046
0.074
-0.069
0.021
-0.057
-0.055
-0.026
0.005
-0.037
-0.216
-0.120
0.159
0.135
0.030
-0.112
-0.089
-0.047
-0.017
0.002
0.070
-0.067
-0.071
0.000
-0.017
-0.023
0.026
-0.130
-0.103
-0.018
0.027
-0.008
-0.025
-0.007
-0.079
-0.031
0.052
-0.102
0.022
0.108
-0.059
-0.214
0.098
-0.049
-0.043
-0.023
-0.072
-0.018
-0.037
-0.011
-0.078
0.029
0.029
0.041
-0.015
-0.010
-0.032
-0.089
-0.114
-0.166
0.014
0.106
0.001
-0.065
-0.025
-0.041
-0.084
-0.001
-0.010
-0.018
0.029
-0.017
-0.002
-0.053
-0.056
0.040
-0.093
-0.000
0.031
-0.102
-0.149
0.039
0.086
-0.061
-0.033
-0.030
-0.051
0.050
0.048
-0.082
0.059
-0.001
-0.012
-0.098
-0.000
-0.004
0.003
0.042
-0.083
-0.028
-0.073
0.074
-0.028
-0.010
-0.147
-0.059
0.068
0.029
-0.111
0.062
0.024
-0.186
0.023
0.013
-0.017
-0.035
0.067
-0.049
-0.048
0.110
-0.117
-0.092
0.049
-0.059
-0.105
0.055
0.010
-0.016
-0.026
0.032
0.025
0.022
0.038
0.020
-0.153
0.009
0.005
-0.063
-0.054
-0.008
-0.075
-0.081
0.018
0.045
0.019
0.025
-0.093
-0.080
0.011
-0.121
-0.025
0.038
0.044
0.009
-0.213
0.048
0.053
0.048
-0.066
0.068
-0.095
-0.050
-0.116
-0.038
0.050
-0.116
-0.148
-0.185
0.225
0.289
0.017
-0.200
-0.157
-0.122
0.053
0.032
-0.066
0.040
0.050
-0.057
-0.040
0.069
-0.167
-0.117
-0.004
0.110
-0.015
0.029
-0.086
-0.132
0.038
0.012
0.065
-0.012
-0.091
-0.073
0.077
-0.026
-0.079
-0.063
-0.068
-0.038
-0.012
0.006
-0.065
0.077
-0.080
-0.119
-0.020
-0.066
0.075
0.038
0.015
-0.156
-0.031
-0.003
-0.033
0.016
0.050
0.015
0.053
-0.099
-0.109
-0.022
-0.003
0.020
-0.065
0.009
-0.063
0.013
0.057
-0.072
-0.079
-0.001
-0.009
-0.056
-0.043
-0.104
0.057
-0.031
0.037
0.052
-0.013
0.014
-0.023
-0.101
-0.032
-0.054
0.021
-0.094
-0.005
0.014
-0.025
-0.093
-0.061
-0.046
-0.001
-0.075
0.004
-0.028
-0.077
-0.132
0.028
0.011
0.141
0.178
-0.245
-0.164
-0.083
0.002
-0.078
0.023
0.077
0.048
0.001
-0.057
-0.011
0.059
-0.023
-0.065
0.003
-0.067
-0.113
-0.028
0.045
0.041
-0.046
0.083
-0.089
-0.033
0.054
-0.089
-0.072
0.083
-0.024
-0.035
-0.008
-0.018
-0.037
0.079
-0.054
-0.015
0.041
-0.002
-0.067
0.001
-0.090
-0.035
-0.093
0.036
0.132
-0.051
-0.023
-0.043
-0.039
-0.120
0.017
0.023
-0.046
0.015
-0.090
-0.099
0.080
0.045
0.006
0.036
-0.018
-0.032
0.004
-0.036
-0.042
-0.037
-0.026
0.028
0.046
-0.072
0.055
-0.009
-0.212
-0.019
0.171
0.116
0.085
-0.051
-0.120
-0.069
-0.082
0.010
0.130
0.028
0.009
0.001
-0.040
-0.076
-0.027
-0.034
-0.053
0.010
0.025
-0.025
-0.061
-0.012
-0.102
0.006
-0.131
0.031
0.014
0.021
0.051
-0.024
-0.061
-0.016
0.045
0.006
-0.069
-0.099
0.006
-0.077
-0.011
0.088
-0.027
-0.043
0.006
-0.056
-0.024
-0.083
-0.061
-0.056
-0.035
0.053
0.074
0.067
0.022
-0.106
-0.064
-0.072
0.015
0.131
0.064
-0.071
-0.103
-0.091
0.040
0.005
0.120
-0.017
-0.147
-0.011
-0.078
-0.010
-0.005
-0.001
0.063
-0.034
0.044
-0.084
-0.127
-0.080
-0.043
0.007
-0.017
-0.011
-0.061
0.043
0.115
-0.078
-0.076
-0.067
0.024
0.027
0.034
-0.094
-0.026
0.055
-0.011
-0.038
0.014
-0.029
0.056
0.006
-0.151
-0.018
0.067
0.009
-0.071
-0.003
-0.018
0.040
-0.045
-0.062
-0.064
-0.004
-0.024
0.020
-0.006
-0.126
-0.087
0.047
0.030
0.067
-0.086
-0.108
-0.160
0.004
0.144
-0.009
0.010
-0.229
-0.060
0.036
0.005
0.012
-0.053
-0.020
0.002
-0.057
-0.054
-0.024
0.028
-0.071
-0.059
-0.051
0.093
0.035
-0.044
0.050
-0.035
-0.148
-0.043
0.035
-0.040
-0.038
-0.097
0.011
-0.019
-0.048
-0.001
0.084
-0.056
0.069
-0.011
0.006
-0.098
0.033
0.021
-0.008
-0.023
-0.047
-0.026
-0.110
-0.060
0.062
-0.019
-0.050
-0.093
-0.080
0.030
-0.007
-0.095
0.000
0.041
-0.064
0.025
0.003
-0.013
-0.131
-0.056
-0.050
-0.038
0.014
0.052
0.028
0.062
-0.008
-0.102
-0.060
-0.087
0.006
-0.020
0.030
0.077
0.029
0.098
-0.150
-0.057
-0.004
-0.044
-0.054
-0.011
0.021
-0.007
-0.006
0.038
-0.021
-0.052
0.075
0.024
-0.070
-0.034
-0.014
-0.038
-0.092
-0.054
0.006
0.012
-0.104
0.046
-0.019
0.026
-0.001
-0.039
-0.016
-0.077
-0.023
0.036
-0.066
-0.065
0.031
0.016
-0.106
-0.023
0.009
0.012
-0.045
-0.132
0.061
0.117
0.042
-0.076
-0.037
-0.068
0.004
-0.107
-0.058
0.014
-0.022
0.091
-0.001
-0.110
-0.059
0.026
-0.012
-0.060
-0.060
0.011
0.063
-0.056
-0.114
0.079
-0.045
-0.084
0.018
-0.027
-0.019
0.007
0.015
0.032
-0.050
-0.052
-0.131
-0.004
0.115
-0.003
-0.065
-0.010
-0.007
-0.040
-0.017
-0.104
0.052
-0.009
-0.050
-0.036
-0.071
0.025
0.039
0.090
-0.038
-0.122
0.065
0.004
0.140
0.028
-0.146
0.055
-0.128
0.004
0.035
-0.009
0.006
0.055
-0.100
-0.030
-0.078
-0.006
-0.086
0.073
0.028
-0.044
-0.044
-0.017
-0.123
-0.114
-0.040
0.139
0.056
-0.006
-0.094
-0.082
0.009
-0.017
0.039
0.047
0.024
-0.081
0.103
-0.053
0.008
-0.040
-0.074
0.057
-0.119
-0.046
-0.015
0.022
-0.028
-0.030
-0.094
-0.058
0.102
-0.036
-0.094
-0.086
0.002
0.001
0.013
-0.026
-0.020
-0.085
-0.074
-0.047
0.031
-0.030
-0.046
-0.038
-0.048
0.062
0.016
-0.072
-0.005
-0.062
0.001
-0.052
0.013
-0.022
-0.025
-0.061
-0.043
-0.020
-0.035
0.071
-0.028
-0.054
-0.050
-0.054
0.006
-0.049
-0.046
0.007
0.009
0.021
0.036
-0.135
-0.138
0.023
-0.030
-0.030
-0.044
0.059
-0.054
-0.123
-0.084
0.001
0.130
-0.001
-0.012
-0.135
-0.035
-0.068
0.045
0.019
-0.037
0.005
-0.039
-0.087
-0.095
-0.010
-0.006
0.072
0.003
0.040
-0.053
-0.074
0.004
0.014
-0.070
0.096
-0.006
-0.066
-0.017
-0.068
0.096
-0.078
-0.047
0.044
-0.056
-0.169
-0.022
0.052
0.083
-0.083
0.036
0.046
-0.106
-0.038
0.132
-0.035
-0.150
0.012
-0.032
0.024
-0.028
0.006
-0.047
-0.099
0.032
-0.066
-0.020
0.052
-0.123
0.078
-0.008
-0.095
-0.028
-0.008
0.041
-0.010
-0.055
0.037
-0.073
-0.075
-0.007
-0.057
-0.070
0.046
-0.077
-0.027
0.103
-0.039
-0.063
-0.087
0.125
0.095
0.005
-0.126
-0.244
0.027
0.177
0.024
-0.010
-0.060
-0.043
-0.077
-0.037
-0.038
0.107
-0.032
-0.044
-0.045
-0.064
-0.017
0.086
0.033
-0.026
0.054
-0.031
-0.094
-0.035
-0.107
-0.011
0.095
-0.053
0.004
-0.038
-0.014
0.068
-0.076
-0.110
0.097
0.078
-0.073
-0.026
-0.037
0.034
0.060
0.022
-0.113
-0.061
-0.020
0.036
-0.085
0.003
-0.023
0.001
0.021
-0.052
-0.083
-0.020
-0.058
0.078
-0.087
-0.093
-0.002
0.002
-0.012
0.011
-0.053
-0.048
-0.076
-0.102
-0.029
0.105
-0.001
-0.024
-0.018
-0.106
-0.058
0.040
0.044
0.017
0.107
-0.036
-0.060
-0.068
-0.056
-0.025
-0.011
-0.079
-0.079
0.049
-0.058
-0.058
-0.035
-0.003
0.017
-0.016
-0.016
0.011
0.010
0.013
-0.168
-0.083
-0.061
-0.074
0.060
0.014
0.023
0.024
0.002
-0.025
-0.091
-0.126
-0.101
-0.014
-0.010
0.006
-0.056
0.041
-0.201
-0.005
-0.082
0.025
-0.073
-0.091
-0.025
-0.008
0.012
0.000
0.018
-0.056
-0.071
0.016
-0.017
0.020
0.007
-0.056
-0.102
-0.031
0.055
-0.097
0.001
0.087
-0.054
-0.003
0.090
-0.108
-0.018
-0.017
-0.059
-0.051
-0.008
0.041
0.000
-0.037
0.015
-0.079
0.001
-0.065
-0.041
0.033
-0.005
-0.097
-0.002
-0.039
-0.046
0.005
-0.146
-0.032
-0.006
0.049
-0.004
-0.104
0.002
0.051
0.003
0.039
0.003
0.007
0.029
-0.131
-0.140
-0.025
0.181
0.034
-0.147
-0.139
-0.020
-0.021
0.047
0.041
-0.008
-0.096
-0.020
0.045
0.015
0.073
-0.021
-0.128
-0.031
0.072
-0.044
-0.012
-0.036
0.025
-0.014
-0.001
-0.003
-0.034
-0.124
0.059
-0.029
0.032
0.025
-0.032
0.066
0.013
-0.044
-0.105
-0.022
-0.051
-0.031
-0.011
-0.052
-0.001
0.031
-0.017
0.034
-0.085
-0.053
-0.079
-0.008
-0.000
-0.087
-0.012
-0.062
0.092
-0.028
-0.094
-0.070
0.012
-0.082
-0.005
-0.013
0.017
-0.020
0.002
-0.098
-0.012
0.037
-0.009
-0.046
-0.046
-0.014
0.053
-0.021
-0.066
0.022
-0.081
0.009
-0.017
-0.039
-0.001
-0.156
0.013
0.040
0.004
0.015
-0.025
-0.041
-0.044
-0.049
-0.105
0.000
-0.039
-0.004
-0.009
0.003
-0.029
-0.008
-0.008
0.006
-0.046
-0.086
0.045
-0.080
-0.025
0.036
-0.041
0.029
0.067
-0.098
-0.118
-0.056
0.022
-0.016
-0.033
0.120
-0.037
-0.049
-0.055
0.006
0.019
-0.048
-0.043
0.018
-0.079
0.031
0.026
-0.060
0.016
0.090
-0.088
-0.066
0.041
0.064
-0.058
0.117
-0.088
-0.071
0.005
-0.073
0.010
0.011
-0.011
-0.054
-0.010
0.014
0.014
-0.041
-0.075
-0.040
0.097
0.079
-0.084
-0.002
-0.116
-0.036
-0.007
0.066
0.060
0.037
-0.062
-0.046
-0.049
0.011
-0.047
0.001
-0.035
-0.033
0.071
-0.039
-0.067
-0.042
0.004
-0.077
0.032
0.088
-0.010
-0.066
-0.202
-0.013
-0.057
-0.065
-0.090
-0.009
0.069
0.021
0.134
-0.006
0.003
-0.039
-0.152
0.038
0.024
0.041
-0.077
0.017
-0.013
-0.066
-0.100
0.028
-0.041
-0.062
-0.012
-0.036
0.058
-0.005
-0.044
-0.003
0.002
-0.022
0.008
-0.062
0.004
0.023
-0.026
0.010
-0.097
0.042
0.018
0.014
-0.068
-0.099
-0.080
-0.101
0.027
0.055
0.026
0.041
0.005
-0.119
0.035
-0.056
-0.034
0.000
-0.047
-0.052
-0.083
0.047
0.052
-0.078
-0.072
0.035
-0.039
-0.037
-0.085
-0.073
0.006
0.111
-0.049
-0.001
-0.100
0.020
-0.091
0.076
-0.080
0.097
-0.086
-0.013
-0.044
-0.106
-0.017
0.041
0.004
-0.028
-0.010
-0.048
-0.012
-0.016
0.002
0.064
-0.011
-0.039
-0.016
-0.006
-0.091
-0.084
-0.006
0.005
0.026
0.077
-0.052
-0.079
-0.037
-0.030
-0.081
-0.010
0.023
0.031
-0.029
-0.088
-0.022
-0.116
-0.040
-0.043
-0.065
-0.013
0.029
0.086
-0.035
-0.140
0.005
0.030
-0.034
-0.037
-0.112
0.017
0.087
-0.128
-0.015
-0.092
-0.076
-0.090
0.004
-0.005
0.039
0.044
0.001
-0.082
0.084
-0.025
0.057
0.062
0.018
-0.007
-0.150
-0.011
0.062
-0.011
-0.049
-0.013
-0.038
-0.081
-0.009
0.067
0.013
-0.036
0.001
-0.049
-0.063
0.020
-0.039
-0.057
-0.056
-0.020
0.008
-0.062
0.049
0.028
-0.032
-0.062
0.019
0.028
-0.038
-0.156
-0.118
0.107
0.055
-0.014
-0.009
-0.136
0.009
-0.054
0.117
-0.035
-0.019
-0.040
-0.052
-0.129
0.024
-0.038
0.091
-0.008
-0.083
-0.077
-0.070
0.002
-0.014
-0.022
-0.057
0.025
0.028
-0.019
0.016
-0.053
0.134
-0.087
-0.056
0.048
-0.000
0.065
-0.049
-0.058
-0.017
0.015
-0.005
-0.044
-0.039
-0.119
-0.038
-0.038
0.017
0.031
-0.003
-0.025
-0.078
-0.056
-0.028
-0.010
-0.070
-0.007
0.009
-0.121
0.047
-0.046
-0.009
-0.102
-0.077
-0.109
0.004
-0.013
-0.040
0.084
-0.046
-0.125
-0.000
-0.027
0.043
-0.008
0.002
-0.005
-0.024
-0.043
0.007
-0.038
-0.054
0.027
0.058
-0.020
-0.045
-0.006
-0.076
-0.031
-0.112
-0.090
0.052
0.084
-0.065
-0.031
-0.048
-0.212
-0.162
0.042
-0.015
0.098
-0.109
-0.140
-0.046
-0.004
0.010
-0.021
0.006
-0.005
-0.032
-0.044
-0.010
-0.006
-0.003
-0.031
0.048
-0.014
0.004
-0.181
0.114
0.168
-0.090
-0.061
-0.076
-0.048
-0.062
0.052
-0.057
-0.064
-0.043
0.067
-0.000
-0.022
-0.142
-0.085
-0.041
-0.009
-0.038
-0.073
-0.040
-0.105
-0.131
-0.102
0.102
-0.022
-0.072
0.078
0.008
-0.125
0.040
0.020
0.068
-0.038
-0.055
0.081
0.010
-0.150
-0.002
-0.059
-0.084
-0.003
0.046
-0.021
0.106
-0.070
-0.010
-0.019
-0.059
-0.068
-0.004
0.010
-0.029
0.000
0.072
0.007
-0.090
-0.049
-0.055
0.072
-0.041
-0.066
-0.105
0.015
-0.028
-0.057
0.035
0.052
-0.047
-0.057
-0.055
0.027
0.100
0.008
0.019
-0.015
-0.048
0.006
-0.036
-0.044
-0.092
-0.060
-0.080
0.041
-0.050
0.007
-0.143
-0.030
-0.048
-0.027
-0.034
0.016
0.084
-0.068
-0.050
0.037
0.003
0.014
0.054
-0.069
-0.137
0.075
0.010
-0.002
-0.052
-0.122
0.020
0.064
0.048
-0.066
-0.032
-0.163
0.029
0.070
-0.038
-0.026
0.016
-0.007
-0.043
-0.073
-0.114
-0.108
0.074
0.025
-0.073
-0.046
-0.074
-0.012
-0.045
0.071
-0.034
-0.025
-0.124
0.067
-0.133
-0.025
0.106
0.017
0.024
-0.041
-0.047
0.061
-0.048
-0.074
-0.013
-0.065
0.004
0.015
0.010
-0.044
-0.018
-0.085
0.073
-0.052
-0.119
-0.006
-0.013
-0.062
-0.034
-0.045
0.089
-0.042
-0.043
0.053
0.070
-0.041
-0.131
-0.091
0.115
-0.045
0.025
-0.045
-0.027
0.050
-0.008
-0.048
0.061
0.039
-0.031
0.037
-0.010
-0.073
-0.060
-0.073
0.021
-0.043
0.037
-0.088
0.088
0.001
-0.038
-0.044
-0.038
-0.032
-0.030
-0.031
0.001
0.037
0.020
0.126
-0.173
-0.032
-0.101
0.041
0.129
0.001
-0.099
-0.078
0.029
0.069
0.053
-0.129
-0.106
-0.059
0.018
-0.055
0.092
0.010
-0.079
-0.058
0.016
-0.054
0.014
0.001
-0.129
0.048
-0.041
0.038
-0.110
-0.051
-0.019
-0.070
-0.065
0.036
-0.039
-0.049
0.018
-0.128
0.009
-0.109
0.009
0.092
0.029
-0.047
-0.039
-0.128
-0.069
0.092
0.004
-0.021
-0.040
0.009
-0.099
-0.168
0.026
0.067
-0.046
0.026
-0.140
-0.080
-0.076
-0.039
0.087
0.078
-0.025
-0.032
0.005
-0.041
-0.046
-0.180
0.003
0.006
0.000
0.016
0.029
-0.008
-0.118
-0.059
0.012
-0.041
-0.009
0.027
0.024
-0.059
-0.009
-0.032
-0.067
0.027
-0.111
0.008
-0.046
-0.059
-0.133
0.039
-0.001
0.081
-0.026
-0.084
0.018
-0.050
0.045
0.007
-0.061
0.002
-0.062
-0.083
0.069
-0.003
0.016
-0.065
-0.027
-0.081
0.055
0.067
0.025
-0.017
-0.013
-0.053
-0.154
-0.058
-0.056
0.070
0.064
-0.064
-0.011
-0.075
-0.045
0.009
-0.046
0.030
-0.059
-0.054
0.039
0.045
0.025
-0.037
-0.031
-0.031
-0.070
0.029
0.000
0.013
-0.076
-0.054
0.069
-0.082
-0.077
-0.097
-0.025
0.001
0.029
-0.085
0.012
-0.081
-0.101
-0.005
0.084
-0.002
-0.079
-0.068
-0.014
-0.008
0.019
-0.003
0.036
0.023
-0.139
-0.044
0.011
-0.052
0.012
-0.014
-0.052
-0.058
-0.060
-0.052
0.034
-0.000
-0.056
-0.003
0.028
-0.077
-0.115
0.090
-0.005
-0.012
-0.191
-0.070
0.007
-0.012
0.113
0.007
-0.029
0.098
-0.036
-0.020
-0.101
-0.081
0.070
-0.042
-0.030
-0.071
-0.052
-0.001
-0.011
-0.102
0.074
0.017
-0.057
-0.020
-0.007
0.017
0.119
0.032
-0.109
-0.043
-0.050
0.005
-0.028
-0.040
0.017
-0.047
-0.105
-0.067
-0.041
-0.008
-0.104
-0.015
0.095
0.026
-0.027
-0.013
-0.045
-0.097
-0.014
0.014
0.057
-0.049
-0.056
-0.007
-0.072
0.029
0.104
-0.021
-0.021
-0.059
-0.122
0.057
0.034
-0.027
0.015
-0.065
-0.029
-0.021
0.035
0.001
0.073
-0.077
-0.086
-0.019
-0.047
0.011
0.047
-0.118
-0.073
-0.052
0.103
0.033
-0.033
-0.097
-0.015
-0.018
0.012
-0.018
-0.049
0.015
0.043
0.003
-0.059
-0.078
-0.041
-0.063
0.093
0.028
-0.041
0.039
0.018
0.043
-0.035
-0.055
-0.029
-0.086
0.080
-0.092
0.049
-0.050
-0.045
0.014
-0.001
-0.056
-0.119
-0.021
0.020
0.072
-0.055
0.040
-0.017
-0.062
-0.040
-0.052
-0.113
-0.156
0.037
0.274
0.241
-0.091
-0.188
-0.017
0.022
-0.038
0.019
-0.000
-0.015
0.067
-0.046
0.002
-0.019
-0.024
-0.035
-0.049
-0.062
0.043
-0.038
-0.064
0.121
-0.001
-0.041
-0.042
-0.033
0.003
0.059
0.021
-0.002
-0.079
-0.050
-0.048
-0.015
-0.010
0.014
-0.072
-0.007
-0.027
-0.066
0.036
0.014
-0.088
-0.097
-0.070
0.009
-0.053
0.045
0.032
0.081
0.003
-0.132
-0.097
-0.046
-0.010
-0.044
0.034
0.045
-0.107
-0.038
-0.139
0.006
0.159
0.081
-0.056
-0.081
-0.192
-0.039
0.169
0.037
0.076
-0.126
-0.000
-0.069
-0.043
0.069
0.046
0.019
-0.080
-0.097
-0.039
-0.191
-0.020
0.135
-0.039
-0.014
0.043
-0.048
0.001
0.032
0.036
-0.048
-0.010
-0.061
-0.056
0.044
-0.045
0.006
0.125
0.014
-0.049
-0.004
-0.258
-0.119
0.049
0.171
0.044
-0.102
0.025
-0.047
-0.054
-0.023
0.051
-0.123
0.003
0.109
-0.035
0.007
0.050
-0.017
-0.042
-0.030
-0.043
-0.080
-0.031
0.031
-0.036
-0.007
0.009
-0.079
0.023
0.046
-0.087
-0.052
0.010
0.019
-0.010
-0.118
0.062
0.027
0.101
-0.029
-0.110
0.008
-0.040
-0.042
0.040
0.087
-0.032
-0.020
-0.061
-0.001
0.057
-0.069
0.007
-0.089
-0.118
0.020
0.034
0.065
-0.023
-0.035
-0.007
-0.059
0.056
-0.007
0.021
-0.092
-0.059
-0.053
-0.012
0.046
-0.036
-0.111
-0.092
0.020
0.051
-0.114
-0.012
0.003
-0.010
-0.041
-0.069
-0.051
-0.018
0.072
-0.011
-0.001
-0.044
-0.088
0.037
0.099
-0.080
-0.078
-0.091
0.071
-0.008
-0.096
0.001
0.046
-0.033
-0.058
-0.021
-0.002
-0.046
-0.002
0.031
0.040
-0.003
0.054
-0.055
-0.006
-0.012
-0.045
-0.043
-0.050
-0.028
0.014
-0.042
0.011
0.026
-0.065
-0.106
0.021
-0.020
-0.046
-0.045
-0.044
-0.124
0.041
0.052
0.004
-0.072
0.078
-0.184
0.052
-0.025
-0.062
-0.025
-0.004
-0.129
-0.091
0.118
0.150
0.029
-0.212
-0.140
-0.059
0.113
-0.037
-0.023
0.018
0.033
0.063
-0.092
-0.022
0.056
-0.036
-0.081
0.015
-0.070
-0.164
-0.067
0.045
0.064
-0.053
-0.001
0.005
-0.073
-0.025
0.018
-0.028
-0.109
0.003
0.048
0.035
-0.111
-0.037
0.078
-0.035
0.039
-0.034
-0.023
-0.181
0.003
0.032
0.076
-0.081
-0.023
-0.018
-0.086
-0.029
-0.014
-0.057
0.005
-0.032
-0.038
0.081
-0.007
-0.062
-0.066
-0.013
0.008
-0.012
0.024
-0.061
-0.051
0.042
0.095
-0.050
-0.079
-0.026
-0.058
-0.017
-0.025
0.020
0.014
-0.005
-0.287
-0.041
0.269
0.089
-0.117
-0.102
-0.106
0.060
-0.048
-0.080
0.045
0.001
0.023
-0.082
-0.030
-0.022
0.018
0.011
-0.020
-0.021
0.057
-0.096
0.011
0.064
-0.053
0.091
-0.009
-0.039
-0.067
-0.115
-0.048
0.016
-0.036
-0.019
-0.025
-0.055
0.006
0.035
0.023
-0.082
-0.008
-0.050
-0.096
0.084
-0.003
-0.004
0.040
-0.027
0.005
-0.023
-0.012
0.023
-0.072
-0.022
-0.089
0.062
0.066
0.022
0.056
-0.105
-0.067
-0.035
0.016
0.102
-0.053
-0.070
-0.101
0.015
-0.015
-0.059
0.006
-0.026
-0.136
0.049
0.013
0.033
0.015
-0.140
-0.018
0.013
0.106
-0.137
0.000
0.077
0.016
0.012
-0.065
-0.008
-0.034
0.005
-0.018
0.047
0.017
-0.089
0.009
0.013
0.001
-0.026
0.040
-0.037
0.027
0.003
0.041
-0.102
0.035
-0.076
-0.114
-0.121
-0.079
0.042
0.007
-0.120
0.053
0.106
-0.087
-0.102
-0.071
0.015
-0.148
0.009
0.059
-0.031
0.137
0.056
-0.062
-0.060
-0.045
-0.013
-0.056
-0.074
0.046
-0.029
0.039
-0.045
-0.017
-0.070
-0.018
0.019
0.022
0.010
0.040
-0.093
-0.040
0.001
0.003
-0.074
0.027
-0.121
-0.079
0.024
-0.051
-0.050
0.046
0.035
0.110
-0.047
-0.022
0.024
-0.264
-0.113
0.145
0.167
0.054
-0.115
-0.118
-0.099
-0.032
-0.028
0.051
-0.077
0.007
-0.018
-0.062
0.066
0.074
-0.049
-0.093
0.057
-0.041
-0.042
0.005
0.067
0.074
-0.022
-0.083
-0.008
-0.025
-0.089
-0.078
0.040
-0.005
-0.020
0.049
-0.034
-0.027
-0.027
0.011
-0.049
0.023
-0.010
0.004
-0.040
-0.089
0.009
0.047
-0.025
-0.005
0.027
0.019
-0.057
-0.036
-0.050
-0.066
0.030
0.001
-0.026
-0.119
0.007
0.135
-0.032
-0.033
-0.094
-0.068
-0.050
-0.022
-0.043
-0.019
-0.052
0.155
-0.004
-0.145
-0.064
0.112
0.027
-0.042
-0.059
-0.004
-0.038
0.011
-0.010
0.023
-0.042
0.038
0.025
-0.052
-0.036
-0.095
-0.164
-0.126
0.040
0.003
0.034
-0.024
0.155
0.048
-0.102
-0.116
-0.120
-0.001
-0.082
-0.056
-0.040
-0.037
0.035
0.022
0.039
-0.106
-0.045
-0.075
-0.011
-0.020
-0.039
-0.030
-0.009
-0.118
0.021
-0.004
-0.072
0.003
0.011
0.040
0.048
-0.115
-0.016
-0.024
-0.002
-0.056
-0.054
-0.038
0.012
-0.102
0.029
0.014
0.025
-0.034
-0.025
-0.071
-0.071
0.007
0.019
0.065
-0.128
0.047
-0.012
0.078
-0.072
-0.127
-0.058
0.001
0.053
0.045
-0.064
-0.153
-0.061
-0.059
0.017
0.018
-0.107
0.001
0.017
-0.016
-0.127
0.047
0.017
-0.076
-0.100
-0.012
0.038
0.046
-0.033
0.082
0.035
-0.129
-0.066
-0.033
-0.009
-0.034
0.029
-0.080
-0.051
-0.028
-0.048
-0.021
0.120
-0.103
0.065
0.019
-0.027
-0.009
0.040
-0.008
-0.074
0.020
-0.065
-0.046
-0.023
-0.012
-0.013
-0.007
-0.012
0.038
-0.016
-0.139
-0.048
-0.020
0.035
-0.054
0.059
-0.020
-0.098
0.033
0.053
-0.157
0.082
-0.032
-0.057
-0.050
-0.004
-0.032
-0.005
0.051
0.010
-0.126
0.006
-0.050
-0.001
-0.058
-0.075
-0.019
0.124
0.006
0.001
-0.071
-0.112
-0.017
-0.022
-0.076
-0.043
0.071
0.038
0.004
-0.002
-0.091
-0.023
-0.032
-0.060
0.014
0.068
-0.040
-0.054
0.047
-0.101
-0.149
-0.025
0.120
0.138
-0.103
-0.144
-0.099
-0.008
-0.050
0.017
-0.062
0.010
-0.038
-0.028
0.021
-0.045
-0.014
0.027
0.058
-0.015
-0.081
-0.177
-0.116
-0.045
0.083
-0.009
0.058
-0.051
-0.098
-0.064
-0.068
-0.080
-0.007
0.026
0.120
-0.055
-0.127
0.039
0.083
-0.062
-0.006
-0.026
-0.018
-0.079
-0.068
-0.023
-0.136
-0.037
-0.052
-0.062
0.011
0.039
0.008
-0.033
0.068
-0.157
-0.046
0.014
0.037
0.033
-0.084
-0.094
-0.055
0.022
0.002
-0.039
0.009
-0.073
-0.100
-0.075
-0.009
-0.045
0.059
-0.013
-0.017
0.009
-0.075
0.072
0.007
-0.147
0.039
-0.025
-0.045
-0.083
-0.015
0.022
-0.012
-0.059
-0.082
-0.004
0.008
-0.042
0.066
-0.026
-0.045
-0.001
-0.132
0.071
0.032
0.069
-0.061
-0.041
-0.136
0.030
0.073
-0.037
0.000
-0.103
-0.078
-0.022
0.141
-0.085
-0.034
0.025
0.013
-0.119
-0.161
0.001
-0.037
0.007
0.028
-0.125
0.041
0.052
-0.110
0.008
-0.059
-0.024
-0.038
-0.032
-0.111
0.002
0.030
0.042
0.003
-0.011
-0.040
-0.082
-0.024
0.134
0.012
0.018
-0.103
-0.068
-0.034
-0.050
-0.062
0.027
0.025
-0.035
-0.079
0.016
-0.006
-0.082
-0.117
0.016
0.067
0.026
0.033
-0.076
-0.006
-0.059
0.018
0.024
-0.059
0.047
-0.076
-0.125
-0.129
0.089
0.006
-0.008
0.005
0.009
-0.034
-0.103
-0.010
0.062
-0.004
-0.138
-0.109
0.020
0.135
-0.004
0.023
-0.132
-0.100
-0.012
0.086
0.085
-0.057
0.001
-0.040
-0.006
-0.027
-0.098
-0.015
0.078
-0.018
0.067
-0.062
-0.020
-0.045
0.016
-0.100
0.010
0.005
0.054
-0.063
-0.001
0.003
0.018
-0.115
0.075
0.032
-0.113
-0.097
0.055
-0.081
-0.028
-0.036
-0.006
0.018
-0.110
-0.071
-0.029
0.027
-0.010
-0.104
0.012
-0.028
0.117
0.089
-0.108
-0.083
0.002
-0.125
-0.043
0.018
0.089
-0.037
-0.027
-0.077
0.004
-0.028
-0.046
-0.093
-0.052
-0.016
0.033
0.039
0.008
-0.045
-0.030
0.014
-0.037
-0.051
-0.061
-0.061
0.008
-0.014
-0.070
-0.053
-0.056
-0.036
-0.001
0.086
-0.040
0.012
-0.052
-0.053
-0.131
-0.020
0.011
0.034
-0.063
-0.010
-0.076
-0.022
-0.050
-0.142
0.071
-0.002
-0.149
-0.026
0.070
-0.036
-0.065
-0.013
0.103
-0.039
0.010
-0.003
-0.061
0.032
0.012
-0.072
-0.005
0.005
0.081
0.023
-0.073
-0.003
-0.024
0.020
0.046
-0.094
-0.030
-0.031
-0.048
-0.061
0.123
0.019
-0.024
-0.083
0.037
0.033
-0.017
-0.084
-0.076
0.065
-0.071
-0.026
-0.066
0.030
-0.016
-0.048
0.066
0.029
-0.003
-0.068
-0.110
0.036
-0.007
-0.125
-0.021
0.004
0.069
0.000
-0.050
0.002
0.007
0.022
-0.072
0.001
-0.022
-0.033
0.018
-0.017
-0.033
-0.067
-0.081
0.095
0.044
-0.109
-0.047
0.059
-0.017
-0.017
-0.244
0.008
0.036
0.009
0.003
-0.081
-0.067
-0.007
-0.071
0.033
0.100
-0.001
-0.138
-0.038
-0.053
-0.024
0.048
-0.097
0.049
-0.055
-0.033
-0.012
-0.084
0.039
-0.011
-0.013
-0.018
-0.039
-0.008
0.060
0.083
-0.063
-0.103
-0.046
-0.001
-0.141
-0.035
0.005
0.067
0.003
0.001
-0.045
-0.112
-0.236
0.007
0.157
0.135
-0.075
-0.108
-0.080
-0.108
0.008
0.023
-0.061
0.036
0.024
0.076
0.012
-0.096
-0.059
-0.084
-0.051
0.002
0.025
-0.031
-0.098
0.020
0.107
-0.028
-0.089
0.035
-0.043
0.062
0.070
0.077
-0.036
-0.090
0.006
-0.048
-0.083
-0.083
-0.135
0.093
-0.034
0.017
0.028
-0.009
0.038
0.008
0.030
-0.075
-0.184
-0.036
-0.116
-0.164
-0.080
0.264
0.272
-0.009
-0.195
-0.172
-0.079
-0.114
0.030
0.038
0.021
-0.108
-0.071
0.029
0.069
0.054
-0.110
-0.054
-0.134
-0.135
0.090
0.008
-0.001
0.101
-0.053
-0.059
-0.012
0.005
-0.053
0.098
-0.011
-0.048
-0.015
-0.042
-0.014
-0.049
0.050
-0.028
-0.066
-0.039
-0.056
-0.053
0.064
-0.099
-0.118
-0.108
0.021
0.015
-0.009
-0.119
-0.015
-0.031
-0.076
-0.028
0.004
-0.017
-0.036
0.048
0.016
0.008
-0.156
0.032
-0.033
-0.039
-0.044
-0.058
-0.018
0.026
-0.045
-0.079
0.034
0.014
-0.013
-0.024
-0.004
0.042
-0.138
0.009
0.042
0.006
0.021
-0.102
-0.047
-0.122
-0.045
-0.007
-0.036
-0.005
-0.036
-0.050
-0.019
-0.047
-0.014
-0.101
0.063
0.027
-0.032
-0.072
-0.041
-0.024
-0.070
0.107
0.001
0.001
-0.171
-0.008
-0.068
-0.132
0.044
-0.034
0.042
-0.034
-0.102
-0.046
-0.083
0.028
0.081
-0.003
-0.036
-0.045
0.048
-0.026
-0.001
-0.100
-0.004
0.067
-0.008
-0.038
-0.068
-0.036
-0.066
-0.072
0.105
-0.057
-0.287
-0.105
0.136
0.232
0.137
-0.023
-0.158
0.013
-0.091
0.014
0.011
0.005
0.072
-0.036
-0.059
0.063
-0.077
-0.103
-0.051
-0.091
-0.116
-0.006
0.113
0.023
-0.036
-0.057
-0.050
-0.003
-0.030
-0.037
0.027
0.034
-0.017
-0.079
-0.064
-0.053
0.146
-0.021
0.020
-0.023
0.066
-0.187
0.036
0.024
-0.003
-0.028
-0.065
-0.007
-0.098
-0.028
0.118
0.018
-0.042
-0.049
0.022
0.014
-0.101
-0.016
-0.167
-0.158
0.034
0.229
0.204
0.001
-0.150
-0.039
-0.221
0.046
0.023
0.100
0.073
0.004
-0.069
-0.031
0.008
0.012
-0.136
-0.029
0.017
-0.046
-0.112
0.000
-0.006
0.034
0.041
-0.146
-0.127
-0.019
0.147
0.097
-0.015
0.018
-0.035
-0.120
-0.112
-0.095
-0.029
0.037
-0.010
-0.001
-0.007
0.032
-0.013
-0.093
-0.044
0.021
-0.005
0.005
-0.062
0.037
-0.016
0.038
-0.135
0.013
0.096
-0.038
0.022
-0.050
-0.035
-0.031
0.019
-0.112
-0.124
-0.036
-0.071
0.079
-0.046
-0.031
0.041
-0.033
0.025
-0.007
-0.004
-0.099
-0.061
0.019
-0.010
-0.016
-0.025
-0.009
-0.042
-0.014
0.045
-0.059
-0.074
0.003
-0.070
0.011
-0.031
-0.016
-0.044
-0.080
-0.099
-0.065
0.005
0.025
0.011
0.052
-0.091
0.038
0.004
-0.024
-0.009
-0.064
-0.118
-0.066
0.069
0.055
0.087
-0.098
-0.218
-0.077
0.158
0.116
-0.030
-0.153
-0.068
-0.025
-0.029
-0.049
-0.010
0.003
-0.017
-0.012
-0.058
-0.044
0.024
0.027
-0.088
0.032
-0.100
-0.040
-0.027
-0.017
-0.063
-0.031
-0.019
0.081
-0.020
-0.050
-0.040
-0.036
-0.079
-0.004
0.026
0.025
-0.057
0.009
-0.042
-0.081
-0.011
0.021
0.023
-0.090
-0.130
0.127
0.101
0.020
-0.064
-0.054
-0.011
-0.139
0.061
-0.060
0.002
-0.062
-0.059
-0.049
0.036
-0.036
-0.090
0.009
-0.021
0.009
-0.083
-0.030
-0.062
0.002
-0.045
-0.049
-0.016
-0.055
-0.085
0.045
-0.007
-0.086
-0.067
-0.027
-0.099
-0.151
0.096
0.191
0.086
-0.062
-0.166
-0.121
-0.059
-0.025
0.021
0.089
-0.049
0.082
0.031
-0.042
-0.001
-0.018
-0.017
-0.007
-0.100
-0.035
-0.071
-0.031
0.021
0.074
0.028
-0.071
-0.026
-0.131
-0.123
0.030
0.038
-0.125
-0.034
-0.053
-0.048
-0.005
0.103
-0.021
-0.060
-0.030
-0.095
0.017
0.013
-0.103
-0.020
-0.017
-0.000
0.038
-0.243
-0.066
0.081
0.048
-0.042
-0.039
-0.053
-0.076
-0.077
0.061
0.064
-0.098
-0.031
-0.043
-0.105
0.014
0.017
-0.026
-0.001
-0.048
-0.006
-0.052
-0.044
0.011
0.179
0.004
0.043
-0.034
-0.099
-0.004
-0.069
0.029
-0.082
-0.059
0.052
-0.005
0.005
-0.181
-0.063
0.000
0.028
0.036
0.002
-0.052
-0.096
0.107
0.023
-0.116
-0.133
-0.055
0.007
0.042
-0.036
0.073
-0.113
-0.091
-0.067
0.028
0.017
0.019
-0.033
-0.036
0.004
-0.053
-0.032
0.039
0.023
0.086
0.040
-0.082
0.000
0.015
-0.115
-0.018
0.051
-0.062
-0.004
-0.025
-0.024
0.009
0.026
0.036
-0.027
-0.071
-0.042
0.010
-0.006
0.022
0.084
-0.040
0.007
-0.042
-0.079
-0.022
-0.048
0.087
0.054
-0.128
-0.097
-0.034
-0.028
0.041
-0.037
0.049
-0.008
-0.071
-0.046
-0.044
0.056
0.075
-0.028
-0.104
-0.057
0.018
0.064
-0.035
-0.072
-0.020
-0.126
0.037
-0.038
0.069
0.068
-0.106
-0.101
-0.072
0.043
0.111
0.047
0.073
-0.086
-0.135
-0.011
0.007
-0.038
-0.025
-0.010
-0.006
-0.033
-0.023
-0.008
-0.031
-0.017
-0.169
-0.126
-0.106
0.105
-0.013
0.046
0.034
0.004
-0.093
-0.110
-0.035
-0.046
0.026
0.061
0.046
0.017
-0.069
0.027
-0.014
-0.068
-0.023
0.023
0.140
0.027
-0.067
-0.107
-0.083
0.056
0.059
-0.071
-0.042
-0.018
0.013
-0.076
-0.202
-0.000
-0.040
0.028
0.006
-0.001
-0.161
0.007
0.141
0.061
0.015
-0.064
-0.161
-0.063
-0.074
0.050
0.004
-0.099
0.018
-0.019
-0.055
0.023
-0.020
0.040
-0.006
0.009
-0.073
0.013
-0.036
-0.014
0.024
-0.017
0.057
-0.022
-0.018
0.000
0.026
-0.014
-0.107
-0.085
0.102
0.021
0.037
0.070
-0.009
-0.012
-0.076
-0.120
-0.003
0.033
-0.051
-0.017
0.019
-0.141
-0.084
-0.033
0.119
-0.070
0.105
-0.104
-0.110
0.042
0.076
-0.100
-0.001
-0.036
-0.008
-0.033
0.000
0.000
-0.005
-0.118
-0.008
-0.012
0.022
-0.004
-0.036
-0.063
-0.053
0.030
-0.018
-0.058
-0.042
0.027
-0.015
0.001
0.073
-0.022
-0.047
0.066
0.049
-0.015
-0.014
0.028
0.019
-0.095
-0.037
-0.074
0.034
0.017
0.043
-0.034
-0.045
-0.034
-0.063
-0.057
-0.000
-0.119
-0.102
-0.023
0.062
-0.054
-0.038
-0.016
-0.048
-0.070
-0.131
-0.047
0.104
0.069
-0.083
-0.042
0.041
-0.047
-0.023
-0.061
-0.104
0.011
0.045
-0.037
-0.084
0.161
0.060
-0.057
-0.043
-0.003
-0.033
-0.154
0.013
-0.062
-0.048
-0.115
0.046
0.092
0.003
-0.006
-0.063
-0.095
-0.099
0.012
0.022
-0.027
-0.140
-0.074
0.136
0.052
0.020
-0.139
0.045
-0.149
-0.007
0.005
-0.010
0.011
-0.041
-0.161
-0.045
0.073
-0.064
0.025
-0.017
-0.005
-0.069
-0.012
0.001
0.067
-0.182
-0.002
-0.013
-0.032
-0.113
-0.054
0.053
-0.060
-0.069
0.008
-0.006
-0.002
-0.044
-0.043
-0.015
-0.078
0.110
-0.032
-0.017
0.111
-0.032
-0.051
-0.005
-0.041
-0.001
-0.020
-0.014
-0.115
-0.033
0.054
-0.117
-0.004
0.027
-0.020
-0.058
-0.103
0.073
0.060
-0.139
-0.171
0.124
0.015
-0.026
-0.020
-0.052
-0.091
0.001
-0.101
-0.025
0.003
-0.073
0.016
0.123
0.036
-0.143
0.026
-0.094
-0.072
0.099
-0.013
0.078
-0.160
0.010
-0.050
-0.003
-0.036
0.000
-0.002
-0.050
-0.140
0.005
0.005
-0.032
-0.064
-0.020
0.023
0.097
0.015
0.009
-0.048
0.031
-0.004
-0.077
0.010
-0.001
0.036
-0.173
-0.047
-0.028
0.040
-0.142
-0.008
-0.055
0.033
0.098
0.026
-0.055
-0.104
-0.079
0.035
-0.040
0.126
0.003
0.011
0.011
-0.106
-0.145
-0.057
0.013
0.156
-0.026
-0.032
0.084
-0.184
-0.056
-0.015
-0.153
0.043
0.170
0.023
-0.032
-0.199
-0.156
0.051
0.062
0.196
-0.053
-0.102
-0.129
-0.013
0.037
0.009
-0.118
-0.070
0.039
0.021
-0.018
0.006
0.044
-0.037
-0.064
-0.064
0.088
0.011
-0.040
-0.091
-0.032
0.002
-0.023
0.005
-0.005
-0.042
0.046
-0.050
-0.019
-0.142
0.103
0.060
0.004
0.030
-0.103
-0.077
-0.101
-0.030
0.039
0.039
-0.016
-0.074
-0.034
-0.066
0.012
-0.045
-0.034
0.049
-0.050
-0.074
-0.043
-0.028
-0.030
0.003
-0.068
0.011
-0.045
0.021
-0.083
0.006
0.028
0.062
-0.120
-0.009
-0.005
-0.027
0.059
-0.079
-0.007
0.013
-0.160
0.006
0.059
0.007
0.086
-0.074
0.033
-0.024
-0.004
-0.088
0.047
0.034
-0.100
-0.006
0.045
-0.090
0.033
-0.055
-0.131
0.011
-0.037
0.042
0.028
-0.029
-0.137
0.070
0.010
0.011
0.052
-0.109
0.012
-0.051
-0.041
-0.130
-0.048
0.042
0.055
-0.013
-0.016
-0.027
-0.073
-0.151
-0.005
0.035
-0.027
0.032
-0.072
0.060
-0.004
-0.038
0.039
0.124
0.048
-0.027
-0.022
-0.038
-0.059
-0.038
-0.030
-0.111
0.069
0.064
0.059
-0.096
-0.144
0.047
0.135
0.047
-0.020
-0.106
-0.008
-0.022
-0.060
-0.059
0.012
0.037
-0.004
0.002
-0.016
-0.081
-0.029
-0.045
-0.029
0.057
-0.066
-0.000
0.057
-0.012
-0.150
-0.126
-0.009
0.094
0.113
0.054
0.046
-0.084
-0.105
-0.029
0.004
-0.085
-0.023
0.008
0.064
-0.076
0.027
-0.020
-0.067
0.080
-0.171
0.001
-0.005
0.019
0.062
-0.084
0.004
-0.110
0.026
-0.023
0.019
-0.046
-0.076
-0.034
-0.062
-0.016
-0.044
0.068
0.029
-0.060
-0.024
-0.054
-0.060
-0.024
-0.112
0.006
-0.127
-0.017
0.026
0.042
-0.094
-0.052
0.052
-0.056
-0.042
0.009
-0.058
0.044
-0.005
-0.099
0.054
-0.003
-0.053
-0.103
-0.170
-0.019
0.087
0.097
0.046
-0.148
0.029
-0.164
0.022
-0.021
-0.002
0.006
0.007
-0.041
-0.054
-0.025
-0.071
0.016
0.039
-0.098
-0.083
0.010
0.010
-0.077
-0.055
0.056
-0.037
-0.056
-0.091
0.004
-0.140
-0.049
-0.067
0.103
0.017
0.055
-0.008
-0.120
-0.094
-0.064
0.015
0.007
-0.000
0.131
0.039
-0.016
0.054
-0.047
-0.089
-0.090
0.001
0.066
-0.044
-0.150
0.089
0.070
-0.073
0.028
-0.112
-0.112
-0.075
-0.080
0.042
-0.027
0.059
0.081
-0.172
-0.206
-0.071
0.082
0.037
-0.015
-0.001
-0.112
0.025
-0.004
-0.139
-0.016
-0.022
-0.032
0.052
-0.073
0.008
0.025
-0.117
-0.174
0.013
0.081
-0.007
-0.096
-0.042
0.002
0.003
-0.027
-0.090
0.018
-0.037
0.047
0.035
0.015
-0.035
-0.048
-0.068
-0.087
0.008
-0.064
0.076
0.020
0.005
-0.073
-0.018
0.012
-0.046
-0.062
0.022
-0.112
-0.032
-0.039
-0.003
0.074
-0.138
-0.117
-0.015
0.073
0.064
-0.095
-0.002
-0.014
-0.026
-0.052
-0.034
-0.011
0.030
0.068
-0.040
-0.103
0.056
-0.088
-0.099
0.015
-0.022
0.045
0.044
-0.090
-0.092
-0.069
0.054
0.025
0.109
0.027
-0.037
-0.040
-0.051
0.084
-0.075
-0.087
0.046
0.000
0.032
-0.049
0.002
0.027
-0.096
-0.057
-0.029
-0.052
0.035
-0.091
-0.066
0.080
0.050
-0.048
-0.015
-0.097
0.010
0.015
-0.051
-0.050
-0.061
0.020
0.062
-0.044
-0.059
0.041
-0.091
-0.083
0.026
-0.063
-0.032
0.033
-0.004
-0.021
-0.115
0.041
-0.078
-0.008
-0.017
-0.091
0.045
0.006
-0.055
-0.049
-0.043
-0.042
0.034
0.005
-0.041
0.067
0.043
-0.038
-0.025
-0.104
-0.089
-0.013
0.038
-0.060
-0.027
-0.032
0.058
0.040
-0.007
-0.091
-0.003
-0.009
-0.008
-0.049
0.008
-0.093
-0.037
0.002
0.016
-0.020
0.029
-0.050
-0.018
0.010
-0.015
-0.041
0.014
-0.041
0.018
0.070
-0.029
-0.013
-0.079
0.062
-0.009
-0.051
-0.024
0.013
-0.098
-0.086
-0.002
0.051
-0.015
0.003
-0.011
-0.068
-0.043
0.045
-0.109
-0.034
-0.064
0.075
0.038
-0.103
-0.004
0.024
-0.003
-0.022
-0.087
0.080
-0.001
-0.017
-0.037
0.087
-0.132
-0.126
-0.017
0.029
0.071
0.021
-0.109
0.053
-0.104
-0.057
-0.019
-0.039
0.025
0.141
-0.032
-0.144
-0.048
-0.039
-0.002
-0.053
-0.005
-0.043
0.057
-0.026
-0.058
0.086
-0.112
-0.055
0.062
-0.039
-0.006
-0.050
-0.040
0.070
-0.115
-0.023
-0.092
-0.057
-0.071
0.092
0.017
-0.004
-0.081
-0.046
-0.085
-0.069
0.062
0.092
-0.113
-0.030
0.006
-0.009
-0.020
-0.055
0.019
-0.027
0.041
-0.027
0.018
0.034
-0.020
-0.086
-0.021
0.056
-0.119
0.018
-0.044
-0.059
-0.013
-0.042
-0.035
-0.080
-0.054
0.033
-0.024
-0.012
-0.011
-0.078
0.129
-0.011
-0.023
-0.017
0.012
0.087
-0.063
0.058
0.057
-0.096
0.030
-0.048
-0.046
-0.039
-0.103
0.060
0.021
0.166
-0.073
-0.050
-0.075
-0.122
-0.069
0.076
0.017
0.070
-0.024
-0.192
-0.074
-0.091
0.054
0.064
-0.006
0.043
-0.031
-0.076
-0.095
0.018
-0.001
-0.044
-0.039
0.012
0.037
-0.028
-0.005
0.058
-0.012
-0.032
-0.051
-0.074
0.017
-0.025
-0.029
0.007
-0.065
-0.036
-0.055
0.015
-0.067
-0.089
0.016
0.053
-0.010
0.072
-0.022
-0.082
-0.090
0.077
-0.040
-0.019
0.043
-0.039
-0.047
-0.049
-0.021
0.115
-0.019
-0.021
-0.108
-0.123
-0.169
0.062
0.021
-0.002
0.000
0.132
-0.100
-0.037
-0.185
0.020
-0.020
0.071
-0.030
-0.075
-0.044
-0.004
-0.010
0.060
-0.079
0.079
0.052
-0.095
-0.021
0.026
-0.063
0.029
-0.010
-0.021
0.037
-0.019
-0.152
-0.018
-0.107
-0.045
-0.034
0.095
-0.070
-0.015
-0.087
-0.113
-0.039
0.127
-0.081
-0.005
0.054
-0.111
-0.003
0.084
0.010
-0.068
-0.007
0.015
-0.035
-0.075
-0.059
0.072
0.010
-0.062
-0.054
0.046
-0.050
0.001
0.035
0.017
-0.050
-0.018
-0.015
-0.150
-0.022
0.081
0.074
-0.093
-0.022
-0.076
-0.174
0.057
0.062
-0.049
-0.138
0.005
0.026
-0.075
0.036
-0.135
-0.032
0.049
-0.005
0.034
0.014
-0.045
-0.043
-0.051
-0.007
-0.085
0.027
0.013
-0.067
-0.111
-0.068
-0.161
-0.054
0.000
0.084
0.081
-0.029
0.042
-0.060
-0.032
-0.012
-0.004
-0.023
-0.010
0.013
0.083
-0.006
-0.151
-0.039
0.016
-0.049
-0.090
-0.016
0.007
0.037
0.040
-0.013
-0.006
-0.065
0.012
-0.009
0.087
-0.050
-0.230
-0.128
0.090
0.258
0.100
-0.044
-0.234
-0.237
0.004
0.037
0.024
0.084
-0.147
-0.017
-0.034
-0.011
0.067
-0.077
-0.030
-0.112
0.013
-0.017
-0.009
-0.062
-0.024
-0.100
0.031
-0.068
0.139
0.051
-0.076
0.018
0.016
0.056
-0.140
-0.026
0.068
0.018
-0.008
-0.092
0.016
0.050
-0.033
-0.050
-0.090
0.041
0.019
-0.050
-0.143
0.051
0.011
0.006
-0.006
0.013
-0.015
-0.013
-0.020
-0.047
0.021
-0.036
-0.019
0.040
-0.066
-0.004
0.022
-0.064
-0.122
-0.069
-0.001
-0.067
0.118
-0.014
-0.028
-0.033
0.002
-0.075
0.056
-0.041
-0.130
-0.087
-0.112
0.024
0.174
0.034
-0.053
-0.052
-0.163
-0.094
0.010
0.101
0.041
-0.074
0.060
-0.072
-0.096
-0.003
0.011
0.085
-0.011
-0.088
0.007
-0.052
0.027
-0.024
0.022
-0.024
-0.001
-0.050
-0.068
-0.051
0.045
0.016
-0.047
-0.037
0.022
-0.085
-0.106
0.066
0.041
-0.084
0.086
-0.064
-0.091
-0.009
0.020
-0.043
-0.055
-0.046
0.020
-0.068
-0.154
-0.082
-0.056
0.096
-0.019
0.140
-0.096
-0.017
-0.061
0.084
-0.024
-0.111
0.009
-0.045
0.013
-0.066
0.035
-0.000
-0.110
0.075
0.007
0.055
-0.020
0.029
-0.079
-0.143
-0.156
0.105
0.006
-0.068
-0.001
0.050
-0.056
0.004
-0.090
0.016
-0.002
0.017
-0.076
-0.067
0.045
0.160
0.108
0.011
-0.136
-0.033
-0.059
0.042
-0.025
-0.018
0.033
-0.119
-0.123
-0.085
0.076
0.111
0.077
-0.015
-0.216
-0.022
0.018
-0.000
-0.036
0.167
-0.095
-0.102
-0.085
-0.003
0.043
0.057
-0.012
-0.071
-0.065
-0.084
0.011
0.053
-0.010
0.012
0.027
-0.078
-0.072
-0.004
0.037
0.031
-0.039
0.021
0.009
-0.086
-0.028
-0.013
-0.044
0.033
-0.040
-0.088
-0.030
0.000
-0.040
-0.054
-0.068
0.028
0.069
0.017
0.013
-0.034
-0.129
0.004
-0.066
-0.074
0.012
0.042
0.014
-0.008
-0.013
0.024
-0.116
-0.019
0.022
-0.028
0.019
-0.010
-0.039
0.092
-0.021
-0.037
0.012
-0.046
-0.032
-0.010
-0.019
0.023
-0.155
-0.017
-0.063
-0.046
0.028
0.044
-0.037
-0.071
0.035
0.041
-0.071
-0.174
-0.076
0.117
0.159
-0.016
-0.076
-0.040
-0.027
-0.029
0.009
-0.062
-0.069
-0.024
0.036
0.036
-0.070
0.055
-0.081
0.022
-0.012
-0.036
-0.056
-0.034
-0.017
0.016
-0.004
0.045
-0.048
-0.070
0.013
0.066
-0.086
-0.001
-0.005
0.063
-0.040
-0.032
-0.030
-0.065
-0.108
-0.067
0.025
0.038
0.021
-0.078
0.061
0.022
-0.133
-0.016
-0.025
0.018
-0.051
-0.005
-0.030
0.043
-0.048
-0.074
0.037
-0.032
-0.026
-0.021
-0.063
-0.098
-0.096
-0.015
0.013
-0.037
0.036
0.062
-0.040
-0.062
-0.045
0.006
-0.057
-0.072
0.028
-0.002
-0.029
0.007
-0.086
-0.096
-0.066
-0.020
-0.008
0.054
-0.052
0.057
-0.099
-0.006
-0.022
-0.094
-0.115
0.097
0.011
0.029
0.017
-0.005
-0.150
-0.039
0.084
-0.018
-0.005
-0.157
0.013
-0.027
0.010
0.018
0.048
-0.075
-0.010
-0.091
-0.024
0.003
-0.036
-0.092
-0.163
0.083
0.103
0.052
0.027
-0.152
-0.160
-0.057
0.045
-0.035
0.015
0.026
-0.046
-0.005
-0.142
0.024
0.084
0.071
-0.030
-0.056
-0.057
0.024
-0.145
0.059
0.070
-0.017
-0.003
-0.132
-0.069
-0.071
0.035
-0.055
-0.003
-0.013
0.054
-0.135
-0.074
0.073
-0.047
0.050
0.043
-0.119
0.030
-0.018
0.026
-0.034
-0.058
-0.017
-0.100
-0.072
-0.080
-0.026
-0.005
-0.025
0.017
-0.017
-0.028
0.023
-0.005
0.038
-0.094
0.018
-0.015
0.024
-0.022
-0.045
0.019
0.011
-0.038
-0.109
-0.033
-0.025
0.002
-0.067
-0.134
0.007
-0.047
-0.017
0.020
-0.023
-0.043
-0.013
0.045
-0.095
-0.011
-0.015
-0.061
-0.076
-0.102
0.088
-0.056
-0.150
0.098
-0.021
-0.057
-0.143
-0.016
-0.003
-0.073
0.001
0.137
-0.060
-0.112
0.054
0.011
-0.001
0.042
-0.020
0.011
0.057
-0.013
-0.192
-0.010
0.020
0.003
0.024
-0.056
-0.098
-0.060
-0.027
0.054
-0.015
0.018
0.007
-0.136
0.034
0.055
-0.021
-0.113
-0.032
0.045
-0.017
-0.043
0.034
-0.034
0.058
-0.030
0.005
0.040
-0.126
-0.040
-0.011
-0.134
0.005
0.128
-0.056
0.001
-0.028
-0.077
-0.066
0.040
-0.028
-0.040
-0.131
0.032
-0.030
-0.047
0.074
0.064
0.012
0.023
-0.054
-0.049
-0.040
0.066
-0.064
-0.002
0.080
-0.087
-0.001
-0.049
0.003
-0.070
-0.046
-0.040
0.107
-0.011
-0.089
0.014
0.021
-0.122
0.047
-0.038
0.032
-0.041
0.029
-0.007
-0.098
-0.040
0.038
0.022
-0.003
-0.118
0.022
-0.018
0.056
0.065
-0.022
-0.080
-0.049
-0.063
0.050
0.001
-0.043
-0.047
-0.018
-0.050
-0.078
-0.055
-0.095
0.060
0.085
-0.091
-0.127
-0.037
-0.068
0.064
-0.027
-0.030
0.067
-0.065
-0.092
-0.064
0.015
0.004
-0.000
-0.013
-0.046
0.003
0.044
0.036
-0.071
-0.005
0.073
0.005
0.019
-0.066
-0.049
-0.018
-0.113
0.017
0.049
-0.036
-0.065
0.002
-0.028
0.026
-0.126
-0.092
0.092
-0.055
-0.067
0.053
-0.000
-0.033
0.081
-0.143
-0.013
-0.079
0.036
0.082
-0.120
0.045
0.004
0.049
-0.116
-0.134
-0.032
0.084
0.052
-0.122
-0.106
-0.016
0.073
-0.048
-0.202
0.009
0.019
0.025
0.009
-0.146
-0.048
-0.025
-0.006
-0.094
-0.022
0.109
-0.004
0.013
-0.069
-0.050
-0.197
-0.080
0.101
0.098
0.026
-0.106
0.025
-0.008
-0.113
-0.082
-0.023
0.168
0.176
-0.050
-0.071
-0.137
0.087
0.023
-0.082
-0.034
-0.218
0.063
0.250
-0.076
-0.058
-0.051
-0.076
-0.104
0.012
-0.012
0.001
-0.033
-0.062
-0.022
0.042
0.005
0.005
-0.012
0.025
-0.044
-0.042
0.052
-0.146
0.015
0.002
0.003
-0.061
-0.223
0.038
0.012
-0.071
-0.076
0.069
-0.069
0.094
-0.066
-0.056
-0.016
-0.093
0.007
0.102
-0.020
-0.023
0.024
0.015
-0.065
-0.095
0.109
-0.012
-0.053
-0.079
0.017
-0.138
0.017
0.002
0.049
-0.017
-0.051
-0.071
-0.033
0.030
0.004
-0.063
-0.122
0.019
0.019
-0.064
-0.041
0.024
0.049
-0.031
0.014
-0.069
-0.079
0.013
-0.054
0.056
-0.104
0.110
-0.029
-0.111
-0.101
0.027
0.134
-0.055
-0.066
-0.040
-0.006
-0.042
-0.123
-0.185
-0.036
0.004
0.016
0.162
-0.042
0.001
0.014
-0.209
-0.032
0.033
-0.120
0.033
0.019
-0.003
0.042
0.057
-0.041
-0.033
-0.017
-0.060
0.024
-0.101
0.001
0.071
-0.109
-0.161
0.018
0.091
0.016
0.055
-0.031
-0.110
0.043
-0.090
0.059
-0.016
-0.135
-0.039
0.046
0.095
-0.050
-0.026
-0.030
0.070
0.015
-0.016
-0.010
-0.044
-0.002
-0.095
-0.007
-0.033
-0.031
0.046
0.011
-0.031
-0.083
-0.009
0.090
-0.108
-0.100
0.052
-0.009
0.007
-0.056
0.048
-0.089
-0.058
0.021
-0.035
0.032
0.068
-0.106
-0.096
0.037
0.026
0.005
0.026
-0.052
0.044
0.044
-0.005
-0.087
-0.093
-0.135
-0.017
0.083
0.050
0.006
-0.038
-0.058
-0.024
-0.039
-0.001
0.049
-0.031
-0.030
0.004
-0.010
-0.046
-0.027
-0.134
-0.014
-0.026
-0.021
-0.011
0.049
-0.033
-0.159
-0.040
0.011
0.019
-0.006
-0.077
-0.055
-0.162
0.191
0.084
-0.108
-0.004
-0.061
-0.021
0.026
-0.034
-0.050
-0.065
-0.027
0.016
0.004
-0.072
0.059
-0.047
-0.016
-0.020
-0.111
-0.012
-0.110
0.008
-0.060
-0.025
-0.022
-0.029
-0.085
-0.054
-0.090
0.048
0.027
0.031
-0.086
0.021
-0.026
-0.212
-0.152
0.022
0.079
-0.042
0.072
0.025
-0.083
-0.175
-0.052
0.023
0.142
0.046
-0.073
-0.115
-0.003
0.010
-0.015
0.065
-0.096
0.037
0.004
-0.074
-0.150
0.056
0.089
0.018
-0.137
-0.030
-0.027
-0.015
0.048
0.017
0.031
-0.053
-0.023
-0.122
0.035
0.016
-0.039
-0.015
-0.051
-0.060
-0.059
-0.045
0.039
0.014
-0.051
-0.041
-0.049
-0.068
0.106
-0.007
0.095
-0.069
-0.036
-0.041
-0.047
-0.016
0.055
0.082
0.065
-0.197
-0.250
-0.034
0.215
0.192
-0.008
-0.023
-0.116
-0.240
-0.009
0.107
-0.010
0.048
-0.090
0.022
-0.049
0.102
-0.071
-0.111
-0.013
-0.004
0.001
0.015
-0.066
-0.078
0.050
0.021
0.031
-0.081
-0.082
-0.046
-0.004
-0.096
0.007
-0.051
-0.096
0.034
0.073
-0.018
-0.095
-0.033
-0.048
-0.012
0.040
0.018
0.005
-0.002
0.024
-0.025
-0.064
-0.209
-0.060
0.089
0.207
0.181
-0.105
-0.091
-0.098
0.020
-0.065
0.026
-0.071
-0.030
-0.080
-0.004
0.007
-0.041
-0.072
-0.019
-0.045
-0.010
-0.077
0.033
0.010
0.005
-0.038
-0.069
-0.015
0.016
0.101
0.019
0.015
0.100
0.059
-0.009
-0.071
-0.067
-0.019
-0.115
-0.170
-0.056
0.014
0.004
0.078
-0.050
-0.101
-0.073
0.040
-0.027
-0.057
0.031
-0.042
0.045
0.013
-0.019
-0.066
0.091
0.067
-0.013
0.018
-0.096
-0.104
0.049
0.006
-0.068
0.036
-0.142
-0.067
-0.044
0.084
-0.029
-0.037
-0.070
-0.102
-0.037
0.054
0.012
-0.032
0.049
-0.044
-0.046
-0.112
0.057
-0.029
-0.069
0.011
-0.039
-0.052
-0.115
0.040
-0.060
-0.052
-0.093
0.037
-0.070
-0.015
-0.038
-0.044
0.137
-0.008
0.001
-0.050
-0.022
-0.022
-0.059
0.028
-0.004
-0.011
-0.003
-0.015
-0.048
-0.084
-0.096
-0.172
-0.108
0.054
0.214
0.054
-0.013
-0.118
-0.069
-0.024
-0.101
-0.118
-0.091
0.169
0.005
0.047
0.013
-0.045
-0.080
-0.101
0.004
0.122
-0.038
-0.011
-0.112
0.016
-0.025
0.020
0.004
0.051
-0.062
-0.084
-0.047
-0.040
-0.075
0.016
-0.010
-0.041
0.097
0.010
-0.130
-0.034
0.019
-0.053
-0.024
-0.069
0.026
0.055
-0.044
-0.062
-0.018
-0.130
-0.007
-0.045
-0.092
0.140
0.088
-0.032
-0.024
-0.036
0.024
-0.062
-0.028
-0.031
-0.007
-0.063
0.056
-0.001
-0.134
0.013
-0.053
-0.048
0.035
-0.045
0.000
-0.014
-0.032
-0.047
0.027
0.027
-0.073
0.008
0.042
-0.008
-0.104
-0.074
0.146
-0.070
-0.030
-0.007
0.042
-0.134
-0.078
0.130
0.002
-0.032
0.015
-0.035
-0.021
-0.048
0.016
0.019
0.012
-0.018
-0.015
-0.005
0.045
-0.015
-0.047
-0.068
-0.118
0.061
0.008
-0.023
-0.099
-0.062
-0.072
-0.107
0.102
0.012
0.004
-0.031
-0.036
0.011
0.076
-0.052
0.008
-0.041
-0.037
0.062
0.023
0.016
-0.047
-0.002
-0.027
-0.031
-0.027
-0.094
-0.025
-0.006
0.019
0.035
-0.056
-0.016
0.138
-0.019
-0.127
-0.159
-0.058
0.057
-0.042
0.050
0.119
-0.196
-0.167
0.042
-0.011
-0.093
0.050
-0.022
-0.068
-0.042
0.004
-0.051
-0.005
-0.027
-0.015
-0.101
0.051
-0.045
-0.021
-0.113
-0.037
-0.106
-0.011
-0.006
0.015
0.076
-0.086
-0.146
0.093
-0.044
-0.006
0.010
-0.142
0.069
0.005
-0.071
0.001
-0.049
0.023
0.028
-0.016
-0.089
-0.021
0.026
-0.037
0.017
0.044
-0.190
-0.086
-0.142
-0.120
0.124
0.193
-0.013
-0.053
-0.062
-0.115
0.027
-0.019
-0.090
0.026
0.085
0.094
-0.062
-0.060
0.002
-0.034
-0.131
-0.017
-0.038
0.011
-0.027
-0.028
-0.115
0.011
0.084
-0.074
-0.093
-0.014
0.042
-0.010
-0.017
0.040
-0.059
-0.017
0.071
-0.144
-0.023
0.007
0.069
0.001
-0.086
0.035
-0.041
-0.016
-0.015
-0.045
-0.021
-0.003
-0.043
-0.056
-0.036
-0.064
0.085
0.010
-0.058
0.003
-0.086
-0.050
-0.019
0.107
-0.078
-0.082
0.015
0.043
-0.007
0.002
-0.054
-0.041
-0.062
-0.131
-0.065
0.112
0.191
-0.073
-0.149
-0.076
0.018
-0.105
-0.023
0.086
-0.013
-0.039
0.001
-0.052
-0.020
0.060
0.008
0.041
-0.116
0.012
-0.071
-0.057
-0.115
-0.047
0.046
-0.110
-0.023
0.050
0.007
-0.054
-0.034
-0.142
-0.046
0.047
0.062
-0.020
-0.021
0.002
-0.103
-0.002
0.154
-0.010
0.055
-0.105
-0.025
0.003
0.033
-0.020
-0.051
-0.032
0.016
0.001
-0.170
-0.006
-0.027
0.052
-0.033
0.000
0.092
-0.057
-0.020
0.038
-0.087
-0.077
-0.111
0.052
-0.032
-0.049
-0.038
-0.004
0.013
-0.055
-0.093
-0.056
0.013
0.019
-0.015
-0.088
-0.018
0.044
-0.030
-0.023
-0.095
-0.077
0.049
0.012
-0.082
-0.005
-0.020
0.034
-0.054
-0.075
0.089
-0.083
-0.054
0.027
0.048
0.031
-0.054
-0.067
-0.048
-0.135
-0.089
0.070
0.065
0.017
-0.021
-0.014
-0.047
-0.048
0.113
-0.006
-0.059
-0.110
0.014
-0.036
-0.098
-0.020
0.098
0.030
-0.156
-0.003
-0.051
0.015
-0.044
0.011
-0.065
-0.006
-0.032
-0.022
-0.082
-0.038
0.029
0.006
0.076
-0.090
0.011
0.000
-0.046
-0.098
0.012
0.104
-0.093
-0.048
0.041
0.039
-0.057
-0.042
-0.068
-0.106
-0.029
-0.026
0.070
-0.032
-0.077
0.002
-0.073
0.023
-0.023
0.047
-0.012
-0.058
-0.062
-0.003
0.026
0.017
0.030
-0.021
-0.029
-0.029
0.082
-0.082
-0.018
-0.015
-0.052
0.005
-0.061
-0.058
-0.016
-0.074
0.024
-0.049
0.022
-0.069
-0.061
-0.090
0.041
0.033
0.039
-0.037
-0.033
0.006
0.023
-0.038
-0.052
0.009
-0.071
-0.182
-0.090
-0.025
-0.026
0.097
-0.036
-0.121
-0.074
-0.047
0.004
0.001
0.010
-0.077
0.045
0.023
-0.113
0.037
0.080
-0.044
-0.039
-0.056
-0.025
0.017
-0.080
0.044
-0.062
0.017
-0.129
-0.061
-0.055
0.059
0.098
0.101
-0.057
-0.187
-0.147
0.091
-0.125
-0.063
0.007
0.048
0.013
-0.042
-0.039
-0.079
-0.132
0.033
0.018
0.025
0.092
0.044
-0.137
0.128
0.025
-0.077
-0.108
-0.124
-0.059
-0.037
0.129
0.213
0.003
-0.144
-0.197
-0.089
0.016
0.034
0.004
-0.058
0.038
0.034
-0.123
0.009
-0.035
-0.037
-0.051
0.051
-0.017
0.058
-0.042
-0.113
0.015
-0.055
-0.055
0.024
-0.097
0.085
0.037
-0.103
0.032
0.020
0.001
0.021
-0.047
0.005
0.042
0.014
-0.052
-0.063
0.037
-0.014
-0.111
-0.125
0.073
0.021
-0.018
-0.075
0.032
0.015
0.018
-0.086
0.015
-0.026
0.043
-0.019
-0.067
0.007
0.049
-0.028
-0.061
0.036
-0.030
-0.120
-0.091
0.033
0.025
-0.012
-0.100
0.053
0.082
-0.031
-0.132
-0.022
-0.070
0.064
-0.077
-0.048
-0.042
-0.048
-0.008
0.057
-0.090
-0.093
-0.045
0.154
-0.011
-0.033
-0.063
-0.119
0.015
0.110
0.012
0.020
-0.141
0.012
-0.012
-0.060
-0.164
-0.057
0.024
0.004
-0.027
0.042
0.016
-0.075
-0.081
-0.023
0.029
-0.099
-0.078
0.009
0.018
-0.005
-0.037
-0.032
-0.003
-0.045
-0.060
-0.048
-0.027
0.067
0.094
-0.123
-0.177
-0.034
0.092
-0.024
-0.028
-0.068
0.002
-0.089
0.014
-0.050
-0.097
0.032
0.072
-0.034
-0.083
0.000
-0.019
-0.047
0.031
0.055
0.061
-0.172
-0.175
-0.006
0.050
-0.081
0.020
-0.071
-0.033
-0.024
0.004
-0.037
0.027
-0.071
-0.004
-0.009
-0.054
-0.110
-0.027
-0.044
0.085
0.032
0.010
-0.034
-0.117
-0.049
0.083
-0.000
-0.009
0.058
-0.082
-0.024
0.008
-0.051
0.015
-0.040
-0.024
0.030
-0.071
-0.011
0.069
-0.017
-0.130
-0.013
0.086
0.019
0.000
-0.129
-0.086
0.076
0.028
-0.022
-0.173
0.067
0.115
-0.047
-0.177
-0.033
0.074
0.078
-0.090
-0.045
-0.041
-0.083
-0.045
0.026
0.084
-0.060
0.032
-0.077
0.006
-0.055
0.057
0.003
0.040
-0.068
-0.132
-0.071
0.049
-0.096
0.028
0.023
-0.024
0.040
0.010
-0.046
0.018
0.020
0.030
-0.114
-0.048
-0.101
-0.016
0.017
0.120
-0.072
0.009
-0.062
-0.052
-0.048
0.003
-0.000
0.056
0.100
-0.100
-0.049
-0.067
-0.065
-0.012
0.068
0.077
-0.106
-0.122
-0.019
-0.101
-0.054
0.128
-0.098
-0.022
-0.161
0.064
-0.004
-0.047
-0.064
0.086
0.021
0.029
0.053
-0.073
0.023
-0.009
-0.010
-0.062
-0.022
-0.030
-0.088
-0.105
0.053
-0.056
-0.060
-0.085
-0.014
0.036
-0.025
-0.028
-0.064
0.002
-0.056
-0.003
0.112
-0.063
-0.038
-0.057
0.007
-0.059
-0.014
-0.059
0.031
-0.049
-0.009
-0.045
0.025
-0.066
-0.011
-0.017
0.014
0.003
-0.009
-0.059
-0.007
-0.093
-0.006
-0.097
0.044
0.057
-0.074
0.035
-0.096
0.027
0.069
0.007
-0.140
0.032
-0.025
0.089
-0.021
-0.180
-0.016
0.031
-0.022
-0.030
-0.074
-0.041
0.026
-0.088
0.058
-0.074
-0.017
-0.007
-0.007
0.006
-0.017
0.013
-0.019
-0.011
-0.000
-0.024
-0.053
-0.097
-0.061
0.051
-0.160
-0.204
0.107
0.153
0.151
-0.064
-0.178
-0.152
-0.090
-0.062
0.083
0.147
0.044
-0.034
-0.019
0.003
0.041
-0.150
0.032
0.132
-0.088
-0.146
-0.032
-0.031
-0.070
0.071
0.107
-0.063
-0.098
-0.042
-0.028
-0.127
-0.042
0.020
0.055
-0.063
0.029
-0.037
0.028
-0.000
0.022
0.088
-0.097
-0.092
-0.040
-0.045
0.015
0.007
-0.139
-0.019
-0.055
0.083
-0.030
0.015
-0.059
0.009
-0.089
-0.070
-0.008
0.047
-0.106
0.009
-0.082
0.009
-0.040
-0.013
-0.016
0.002
0.007
-0.131
-0.020
0.047
0.080
0.021
-0.072
0.060
0.013
-0.057
-0.034
0.024
-0.048
-0.084
-0.070
0.034
0.058
-0.028
-0.055
-0.044
-0.090
0.065
-0.047
0.009
-0.018
-0.070
-0.053
0.071
-0.084
-0.050
-0.049
0.040
0.024
-0.080
-0.063
0.024
-0.067
-0.007
-0.004
-0.036
-0.044
0.064
0.007
-0.077
-0.105
0.190
-0.020
0.002
-0.125
0.022
-0.125
-0.071
-0.012
-0.064
-0.024
-0.077
-0.050
0.086
0.018
0.044
0.003
-0.063
-0.072
-0.061
0.051
-0.060
-0.140
-0.038
0.028
-0.022
-0.004
0.075
-0.057
-0.062
-0.157
0.005
0.041
-0.031
-0.067
0.036
-0.045
-0.068
-0.044
-0.017
-0.013
-0.003
-0.042
0.017
-0.052
-0.008
-0.050
-0.065
-0.069
0.018
-0.067
-0.015
0.007
0.044
-0.058
-0.101
-0.074
-0.032
-0.013
0.018
-0.047
-0.035
-0.101
0.005
-0.019
-0.023
-0.008
-0.059
-0.001
0.022
-0.081
-0.025
-0.066
-0.012
-0.036
0.000
-0.066
-0.103
-0.029
0.011
-0.079
0.067
-0.089
-0.105
-0.133
-0.026
0.030
-0.068
0.019
-0.032
-0.020
-0.013
0.046
-0.008
0.040
-0.025
-0.034
-0.037
-0.012
-0.132
0.005
-0.026
0.036
-0.008
-0.032
-0.031
-0.101
-0.069
-0.025
0.055
-0.040
-0.023
0.015
-0.061
-0.028
0.026
-0.014
-0.033
0.064
-0.046
-0.022
-0.141
-0.062
0.026
0.048
0.026
-0.140
0.053
-0.004
0.043
-0.020
-0.057
-0.063
0.087
0.008
0.086
-0.070
-0.061
-0.080
-0.004
-0.076
-0.103
-0.035
-0.041
0.066
0.058
-0.080
-0.061
-0.102
-0.069
-0.049
0.041
0.037
0.005
0.013
0.113
0.049
-0.042
-0.076
-0.018
0.035
-0.007
0.075
0.048
0.029
-0.048
-0.034
-0.021
0.028
-0.002
-0.057
0.007
-0.090
-0.006
0.111
-0.040
-0.085
-0.174
-0.004
-0.027
0.009
0.072
-0.035
-0.041
-0.131
0.008
0.045
-0.041
0.008
-0.093
0.049
0.030
-0.086
0.015
-0.083
-0.040
-0.075
-0.018
-0.073
-0.017
-0.037
0.046
0.036
-0.024
-0.020
0.026
0.036
-0.048
-0.025
0.059
-0.026
0.046
-0.037
-0.044
-0.064
-0.066
-0.033
0.038
-0.014
-0.100
-0.049
-0.033
-0.028
0.034
0.043
-0.013
-0.079
-0.155
-0.134
-0.069
0.179
0.234
-0.018
-0.148
-0.137
-0.102
0.095
-0.040
-0.040
-0.052
-0.001
0.132
-0.060
-0.048
-0.079
-0.090
-0.038
0.011
0.063
-0.004
-0.128
0.002
-0.072
-0.014
0.002
-0.002
-0.113
-0.014
0.131
0.013
-0.073
-0.083
-0.025
-0.029
-0.165
0.038
0.182
0.082
-0.073
-0.064
-0.197
0.132
0.077
0.075
0.031
-0.168
-0.186
-0.055
0.088
0.098
-0.064
-0.104
0.035
0.057
-0.048
-0.112
-0.007
-0.074
-0.015
0.035
0.033
0.006
0.004
-0.016
-0.086
-0.080
0.008
0.012
0.020
-0.016
-0.093
-0.002
-0.012
-0.038
0.016
0.032
-0.046
-0.093
-0.051
-0.104
0.068
0.060
0.025
-0.050
-0.070
-0.016
-0.026
0.028
0.019
-0.159
-0.026
0.007
-0.010
-0.116
0.034
-0.029
0.000
0.062
0.064
-0.050
0.045
-0.066
0.048
-0.023
-0.111
0.052
-0.081
-0.148
-0.109
-0.048
0.105
0.040
-0.053
-0.115
-0.097
-0.051
-0.020
-0.065
-0.148
-0.034
0.161
0.188
0.101
-0.146
-0.149
-0.181
-0.037
0.100
0.044
0.056
0.006
-0.032
0.032
0.016
-0.112
-0.020
0.001
0.006
-0.110
-0.087
0.024
-0.013
0.064
-0.098
-0.093
-0.022
0.011
0.015
0.005
-0.026
0.067
0.030
-0.106
-0.113
-0.041
0.024
0.042
-0.032
-0.004
0.050
0.031
-0.055
-0.122
-0.026
-0.022
-0.060
-0.040
0.108
-0.039
0.036
-0.044
-0.004
0.023
-0.061
0.002
-0.072
0.024
0.029
-0.007
-0.029
-0.007
-0.030
-0.051
-0.014
-0.047
0.017
-0.070
0.098
-0.067
0.065
-0.023
-0.004
-0.103
-0.045
-0.054
0.039
0.028
-0.025
-0.036
-0.058
-0.065
0.011
-0.055
0.024
0.004
0.077
-0.095
-0.031
0.004
-0.048
-0.012
-0.082
0.069
0.049
-0.098
-0.047
-0.022
-0.077
-0.036
-0.002
0.003
-0.047
-0.078
0.039
-0.054
0.033
0.032
-0.020
0.010
-0.031
-0.029
-0.045
-0.092
0.009
0.078
0.030
-0.104
-0.047
0.020
-0.012
-0.012
-0.015
-0.038
0.028
-0.046
-0.090
0.006
-0.040
-0.137
-0.071
0.001
0.032
-0.005
0.039
-0.018
0.055
0.027
0.046
-0.133
-0.040
-0.047
-0.042
-0.024
0.062
-0.007
0.017
-0.048
-0.019
-0.057
-0.032
-0.029
0.047
-0.038
-0.017
-0.092
-0.048
-0.048
0.169
0.072
-0.111
-0.122
0.069
-0.035
-0.123
-0.106
-0.027
-0.004
0.047
0.069
-0.023
-0.060
-0.109
-0.025
-0.031
-0.042
0.025
0.043
0.081
-0.126
-0.014
0.026
-0.041
-0.066
-0.074
0.009
-0.027
-0.000
-0.021
-0.047
-0.021
-0.021
-0.094
-0.121
0.034
-0.033
0.007
0.001
0.005
-0.030
0.067
-0.066
0.016
-0.035
-0.046
0.081
-0.003
-0.076
-0.028
-0.031
0.023
-0.029
0.037
-0.003
-0.018
-0.076
-0.070
-0.082
-0.036
0.052
-0.039
-0.070
-0.031
0.044
-0.059
-0.129
0.007
-0.021
-0.105
-0.051
-0.077
-0.028
0.077
-0.045
0.040
-0.007
-0.008
-0.057
-0.080
-0.052
0.088
0.068
-0.009
-0.046
0.033
0.025
-0.068
-0.074
0.007
0.087
-0.004
-0.063
-0.059
0.002
-0.032
-0.075
-0.066
-0.011
0.036
0.044
-0.017
-0.067
-0.060
-0.030
0.087
-0.077
-0.026
-0.001
-0.052
-0.042
0.013
-0.081
0.016
-0.003
0.026
-0.093
-0.013
0.038
-0.043
0.041
-0.041
-0.003
0.016
-0.081
0.073
-0.119
0.000
0.008
-0.082
-0.038
-0.104
-0.014
0.051
-0.028
0.036
0.054
-0.153
-0.183
-0.048
0.016
0.120
0.023
-0.182
-0.014
-0.009
-0.001
0.051
0.070
-0.015
-0.022
-0.110
-0.016
0.016
0.032
0.004
0.009
0.015
0.024
-0.202
0.014
-0.028
-0.079
-0.000
-0.042
-0.008
0.064
-0.084
0.047
-0.011
-0.111
-0.019
0.029
-0.070
-0.002
-0.023
-0.096
-0.037
-0.021
0.034
0.021
0.011
0.073
-0.085
-0.023
-0.040
0.004
-0.070
0.012
-0.030
-0.006
0.010
0.091
-0.027
-0.075
-0.087
0.013
-0.103
0.011
0.024
-0.068
-0.047
-0.046
-0.051
-0.046
0.026
-0.093
-0.123
0.094
0.037
-0.015
-0.044
-0.071
-0.070
0.046
-0.027
0.020
-0.018
0.036
-0.001
0.010
0.007
-0.054
0.047
-0.077
-0.126
0.011
0.046
-0.089
-0.019
-0.088
0.018
-0.063
-0.032
-0.066
0.027
-0.030
0.003
-0.010
-0.013
-0.033
-0.007
-0.068
0.013
0.035
-0.010
0.003
-0.037
-0.040
-0.006
-0.051
-0.054
0.041
-0.052
-0.045
0.092
-0.094
-0.112
-0.134
0.026
0.121
-0.045
-0.129
-0.103
0.039
-0.021
0.039
-0.199
0.014
0.081
-0.078
0.012
0.014
-0.035
0.020
0.122
-0.051
-0.113
-0.175
-0.048
-0.013
0.077
0.088
-0.132
0.001
-0.020
0.060
0.058
-0.073
-0.033
-0.032
-0.082
-0.046
0.040
-0.014
-0.053
0.069
0.042
-0.061
-0.018
-0.066
-0.068
-0.030
-0.050
-0.033
0.007
-0.027
-0.031
0.026
0.021
-0.003
-0.035
-0.016
-0.065
-0.037
-0.018
0.007
-0.030
-0.090
-0.028
0.001
0.010
0.002
0.056
-0.024
-0.007
-0.074
-0.035
0.028
-0.010
0.104
-0.077
-0.045
0.040
-0.055
-0.086
-0.052
-0.027
-0.082
-0.003
0.139
0.025
-0.017
-0.058
-0.018
-0.037
-0.078
0.046
0.034
-0.007
-0.112
0.022
0.072
-0.051
0.045
-0.081
0.001
-0.001
-0.090
0.094
0.037
-0.123
-0.038
-0.043
-0.026
-0.081
-0.005
-0.075
-0.002
0.079
0.001
-0.083
-0.122
0.035
0.112
-0.021
0.040
0.027
-0.026
-0.084
0.100
-0.031
-0.031
0.009
0.101
0.053
-0.044
-0.035
-0.085
-0.012
0.015
0.055
-0.000
-0.092
-0.101
-0.076
0.037
-0.020
0.073
0.029
-0.138
0.020
-0.116
-0.036
0.038
-0.003
0.083
-0.013
-0.103
0.034
0.054
-0.031
0.040
-0.159
0.030
-0.023
-0.057
0.004
-0.019
-0.013
0.020
0.042
-0.062
-0.073
0.078
0.104
0.003
-0.044
-0.066
0.010
0.038
-0.031
-0.009
-0.112
-0.029
0.033
0.048
0.024
-0.065
-0.058
-0.115
-0.095
0.034
0.005
0.044
0.036
0.030
-0.055
-0.078
0.003
-0.106
-0.055
0.021
-0.003
0.123
0.034
-0.166
-0.055
-0.169
0.030
0.015
-0.003
0.009
-0.022
0.008
-0.014
0.103
-0.059
-0.039
0.119
-0.010
-0.060
-0.118
-0.091
-0.139
-0.008
-0.008
-0.014
-0.088
-0.041
0.044
0.022
-0.030
0.047
-0.114
-0.072
-0.072
0.087
-0.011
-0.074
0.022
-0.049
0.028
0.080
-0.098
-0.097
0.039
-0.000
-0.039
0.052
-0.017
-0.123
-0.127
0.097
0.080
-0.174
-0.127
-0.126
-0.013
0.058
-0.050
-0.087
-0.131
0.050
0.020
-0.066
-0.018
-0.009
-0.011
-0.004
0.010
0.073
-0.115
-0.071
-0.049
-0.047
-0.039
-0.143
0.021
0.049
0.076
-0.024
-0.098
-0.032
-0.054
-0.095
-0.177
0.095
0.048
-0.118
-0.001
0.088
-0.024
0.072
-0.026
-0.041
-0.080
0.028
0.000
-0.060
0.007
-0.063
-0.059
-0.027
0.063
-0.031
-0.019
-0.130
-0.024
-0.042
-0.150
0.051
0.033
0.022
-0.122
-0.028
-0.102
-0.065
0.053
0.061
-0.027
0.026
-0.071
-0.118
-0.032
-0.015
0.004
0.021
-0.040
0.032
0.022
-0.021
-0.144
0.020
0.031
0.053
-0.093
0.076
-0.055
-0.043
-0.102
-0.058
0.038
-0.028
0.085
-0.104
-0.045
0.076
0.041
-0.003
0.061
-0.019
-0.026
-0.103
-0.053
-0.037
-0.002
-0.032
-0.015
-0.077
-0.104
0.062
0.027
-0.056
-0.045
-0.073
0.045
0.002
-0.033
-0.184
-0.043
-0.051
0.219
0.094
-0.084
-0.049
-0.120
-0.037
-0.036
0.062
-0.034
-0.011
0.046
0.010
0.004
-0.036
-0.026
-0.069
0.049
-0.026
-0.022
-0.028
-0.107
-0.090
-0.033
-0.031
-0.003
0.043
-0.067
-0.046
-0.004
0.035
0.014
-0.005
0.075
-0.057
-0.055
-0.004
0.053
0.081
-0.028
0.003
-0.073
-0.072
-0.010
-0.054
0.025
0.005
-0.060
0.053
-0.018
-0.029
-0.080
0.026
-0.065
-0.038
-0.056
0.044
-0.007
0.033
-0.099
0.045
-0.003
0.016
0.011
-0.006
-0.034
-0.003
-0.041
-0.029
-0.070
0.005
0.043
-0.017
-0.021
-0.047
-0.003
-0.016
-0.117
-0.003
0.080
0.035
-0.037
0.007
-0.011
-0.139
0.060
0.088
0.021
-0.025
-0.113
-0.010
-0.048
-0.048
0.013
0.038
0.034
-0.043
0.021
-0.035
0.015
-0.059
-0.031
-0.049
-0.074
0.001
-0.088
-0.028
0.005
-0.051
0.003
0.031
-0.059
-0.034
-0.078
-0.059
0.042
-0.037
0.083
-0.062
-0.021
-0.092
-0.223
0.081
0.057
0.048
0.034
-0.049
0.007
-0.135
-0.080
-0.040
0.015
0.068
-0.034
-0.046
-0.034
-0.066
0.000
0.010
0.117
0.054
-0.098
-0.161
0.017
-0.011
-0.080
-0.042
0.028
-0.046
-0.009
0.037
-0.018
-0.023
-0.045
-0.142
0.033
0.107
0.033
0.008
-0.175
-0.115
0.005
-0.022
0.037
0.032
-0.047
-0.052
-0.060
-0.070
-0.057
0.018
0.007
-0.047
0.048
-0.095
0.012
0.056
0.007
0.016
-0.099
-0.021
-0.108
-0.170
-0.019
0.215
0.149
-0.008
-0.103
-0.175
-0.063
-0.055
-0.016
0.112
0.139
-0.080
0.064
0.064
-0.067
-0.159
-0.020
0.020
0.031
0.049
0.006
-0.093
-0.041
0.006
-0.060
-0.022
-0.050
-0.031
-0.081
0.024
0.117
-0.084
-0.004
-0.099
-0.102
-0.029
0.022
0.054
0.023
-0.104
0.038
-0.045
0.119
-0.034
-0.002
-0.059
0.027
-0.163
0.075
0.103
-0.009
-0.032
-0.036
-0.079
-0.017
-0.060
0.055
-0.025
-0.114
0.044
0.072
-0.080
-0.098
0.018
0.033
-0.079
0.037
0.003
-0.007
-0.043
0.008
0.032
0.074
0.009
-0.197
-0.124
0.040
0.144
0.230
-0.036
-0.120
-0.068
-0.075
0.079
-0.087
0.086
-0.027
-0.025
-0.057
0.058
-0.066
-0.005
-0.025
0.036
-0.087
0.006
-0.071
0.021
-0.006
0.066
-0.014
-0.013
0.006
0.034
0.002
-0.155
-0.020
-0.050
0.004
-0.036
-0.077
-0.021
-0.007
0.007
0.021
-0.165
0.044
-0.067
-0.039
-0.023
0.073
0.017
0.011
-0.022
-0.091
0.077
-0.024
-0.056
0.043
-0.058
-0.008
-0.111
0.044
0.068
-0.119
-0.014
-0.070
-0.008
-0.011
0.006
-0.020
-0.044
-0.005
-0.027
-0.119
-0.130
0.027
0.055
-0.017
0.028
-0.008
-0.138
-0.005
-0.066
0.169
-0.043
0.060
-0.067
-0.007
-0.026
-0.141
-0.045
-0.013
-0.010
-0.035
-0.076
0.069
0.007
-0.205
0.026
-0.020
-0.016
0.023
0.051
-0.062
-0.029
-0.031
-0.047
0.029
0.048
0.012
-0.020
-0.021
-0.060
0.034
-0.053
0.024
-0.014
-0.078
0.094
-0.063
-0.094
0.004
-0.006
0.022
-0.008
-0.071
0.003
0.018
-0.027
-0.009
-0.035
0.013
-0.064
0.025
-0.231
-0.148
0.047
0.210
0.224
-0.115
-0.184
-0.109
-0.021
-0.037
0.001
0.013
-0.009
0.031
-0.040
0.047
0.001
-0.052
-0.031
-0.110
-0.041
-0.023
0.039
-0.014
-0.042
-0.092
0.041
0.051
-0.055
-0.050
-0.012
-0.015
-0.019
0.015
-0.051
-0.042
-0.027
0.007
-0.079
-0.029
-0.046
-0.053
0.091
0.084
-0.019
-0.086
-0.112
-0.073
-0.292
-0.018
0.046
0.075
0.027
0.016
-0.053
-0.221
-0.163
-0.050
0.003
0.055
0.005
0.005
-0.045
0.005
-0.078
0.037
-0.045
-0.014
-0.035
-0.021
0.054
-0.001
-0.091
0.071
-0.004
-0.039
-0.001
-0.067
-0.038
0.013
0.023
-0.081
-0.021
-0.054
0.035
-0.150
-0.047
-0.080
0.019
0.038
0.038
-0.044
-0.020
0.019
-0.098
0.025
0.021
-0.027
0.034
-0.173
0.004
0.047
-0.034
-0.076
0.036
-0.003
-0.096
0.004
0.110
0.008
-0.016
-0.080
0.065
0.001
-0.108
0.008
0.056
-0.115
-0.131
-0.030
0.035
0.065
0.055
-0.110
-0.076
-0.065
-0.038
0.060
-0.045
0.044
0.032
-0.212
0.027
0.101
0.041
-0.003
-0.072
-0.118
0.079
-0.048
-0.034
0.068
0.054
-0.036
-0.014
0.040
-0.090
0.005
0.034
-0.027
-0.117
0.033
-0.037
0.068
-0.016
0.061
-0.049
-0.153
-0.020
0.127
-0.074
0.040
-0.053
-0.022
0.031
-0.041
-0.070
-0.026
0.111
-0.103
-0.106
0.049
0.039
-0.056
-0.141
-0.122
0.026
-0.094
-0.044
0.076
-0.074
-0.068
-0.012
0.056
0.056
-0.025
-0.082
-0.093
-0.013
0.023
-0.073
0.020
0.071
-0.102
0.035
-0.072
-0.081
-0.030
-0.027
0.051
-0.031
0.117
-0.093
-0.013
-0.006
-0.054
0.112
-0.027
-0.056
-0.072
-0.042
-0.048
0.031
-0.043
-0.047
-0.028
-0.144
-0.044
-0.074
-0.077
0.012
0.156
0.188
-0.012
-0.151
-0.004
-0.144
-0.098
0.001
-0.050
0.097
0.013
0.029
0.078
-0.022
-0.094
-0.125
-0.087
-0.020
-0.048
-0.088
0.027
-0.102
0.063
0.006
-0.141
0.014
-0.003
0.014
-0.015
0.005
0.002
-0.012
-0.055
-0.055
0.010
0.088
0.059
-0.093
-0.078
-0.026
-0.079
-0.115
0.042
-0.067
-0.010
0.073
0.170
0.069
-0.119
-0.161
-0.056
-0.010
0.054
0.101
0.055
-0.096
-0.012
0.012
0.036
-0.020
0.049
0.006
-0.087
-0.050
-0.059
-0.097
-0.022
-0.014
0.060
0.078
-0.120
-0.028
-0.059
-0.124
-0.065
0.098
0.008
0.049
0.001
-0.041
-0.047
-0.080
-0.004
-0.052
-0.018
0.021
0.035
-0.083
-0.077
-0.006
-0.036
0.038
0.006
-0.129
-0.092
0.000
-0.042
0.016
0.045
-0.031
-0.001
-0.033
0.018
0.080
-0.027
-0.090
0.090
0.052
-0.019
-0.019
-0.013
-0.071
-0.024
0.006
-0.020
0.078
-0.029
-0.035
0.039
-0.104
-0.087
-0.089
-0.004
0.094
0.024
-0.041
-0.193
-0.042
-0.026
0.003
-0.087
0.101
-0.106
0.010
0.015
0.063
0.008
-0.059
-0.050
-0.010
0.026
-0.116
-0.092
0.104
-0.064
-0.021
-0.035
-0.067
-0.105
-0.190
-0.012
0.232
0.146
-0.052
-0.109
-0.079
-0.044
-0.036
-0.055
0.025
-0.034
-0.060
0.112
-0.056
0.027
-0.055
0.021
0.046
-0.047
-0.024
-0.150
-0.054
-0.041
0.011
0.026
-0.057
0.027
-0.096
-0.029
-0.048
-0.051
-0.038
0.076
-0.002
-0.006
-0.027
-0.102
-0.014
0.003
-0.051
0.019
0.021
-0.014
-0.096
-0.028
-0.038
-0.066
0.013
-0.014
-0.055
-0.018
-0.011
-0.076
-0.089
0.097
-0.017
0.066
-0.019
0.002
-0.053
-0.093
-0.058
0.119
-0.029
0.002
-0.115
-0.098
0.063
-0.061
-0.020
0.087
-0.034
-0.127
0.095
-0.072
-0.017
-0.027
-0.050
-0.124
0.015
-0.004
-0.028
-0.029
-0.001
-0.182
0.061
0.093
0.025
-0.046
-0.059
-0.104
-0.037
-0.008
0.072
0.012
-0.048
-0.050
-0.045
-0.027
-0.028
0.049
0.060
-0.099
0.013
0.007
-0.019
-0.102
-0.000
-0.057
-0.070
0.045
-0.001
0.015
0.057
-0.084
-0.044
-0.044
-0.092
0.013
0.090
-0.078
0.047
0.001
-0.087
-0.014
-0.084
-0.017
-0.037
0.030
-0.036
-0.121
-0.097
-0.028
0.004
-0.059
-0.062
0.030
-0.072
0.018
-0.054
-0.043
0.003
-0.072
0.069
-0.043
0.035
-0.027
0.009
0.003
0.082
-0.034
0.006
-0.081
-0.049
0.010
0.012
0.039
-0.052
0.075
-0.024
-0.139
-0.222
-0.006
0.135
-0.013
0.051
-0.058
-0.142
-0.020
-0.026
-0.096
0.012
-0.002
0.048
-0.029
-0.036
-0.045
-0.064
-0.028
0.004
0.010
-0.084
-0.091
-0.071
0.003
-0.085
-0.070
0.033
0.072
0.028
0.010
-0.078
0.062
0.031
-0.128
-0.034
-0.122
0.048
0.012
0.078
-0.061
0.015
-0.026
-0.167
-0.111
-0.021
0.005
0.006
0.001
-0.027
-0.014
-0.091
-0.063
0.050
-0.042
-0.003
0.036
-0.056
-0.058
0.027
0.117
-0.006
-0.120
-0.081
-0.003
0.066
-0.020
-0.055
-0.022
0.005
-0.119
-0.122
0.011
0.106
-0.062
0.009
0.040
-0.080
-0.028
0.022
0.118
-0.082
-0.022
-0.146
0.066
0.020
-0.017
-0.103
-0.056
-0.064
0.026
0.020
-0.106
-0.035
0.034
0.100
-0.176
-0.080
0.092
-0.035
0.041
-0.047
-0.005
-0.010
-0.028
-0.035
-0.003
0.037
-0.001
-0.029
0.015
0.042
0.099
-0.051
-0.051
0.006
-0.011
-0.102
-0.047
0.084
0.087
-0.069
-0.032
0.010
0.004
-0.108
-0.021
0.105
-0.113
-0.072
-0.017
-0.022
0.046
0.024
-0.106
-0.117
0.002
0.004
-0.027
-0.022
-0.021
-0.031
-0.131
-0.093
0.000
-0.049
-0.077
0.011
-0.056
0.104
-0.054
0.076
-0.021
-0.015
-0.047
-0.102
0.112
-0.022
0.015
-0.038
-0.006
0.075
-0.079
0.123
-0.035
0.008
0.014
0.029
-0.144
-0.119
0.025
0.001
-0.020
-0.064
0.033
-0.053
0.017
-0.089
-0.061
-0.055
0.010
-0.041
-0.058
0.000
-0.107
0.054
-0.054
-0.015
-0.055
-0.021
0.079
-0.044
-0.001
0.030
-0.077
-0.137
0.048
0.032
0.010
-0.082
0.039
-0.105
-0.180
-0.009
0.114
0.250
-0.103
-0.098
-0.136
-0.113
-0.063
-0.091
0.185
0.066
-0.011
0.007
0.091
-0.035
-0.035
-0.120
0.022
-0.038
-0.009
0.038
-0.105
-0.117
-0.093
-0.045
0.027
-0.044
-0.053
-0.081
-0.110
-0.013
0.090
0.009
-0.069
-0.134
0.020
-0.041
0.023
-0.047
0.074
-0.038
-0.017
0.092
-0.056
0.052
0.023
-0.100
-0.058
-0.139
-0.045
0.111
0.072
0.045
-0.087
-0.147
-0.129
-0.066
-0.215
0.126
0.186
0.116
-0.026
-0.112
-0.074
-0.115
-0.048
0.036
-0.066
-0.060
-0.044
-0.026
-0.035
-0.072
-0.174
-0.238
0.056
0.160
0.189
-0.062
-0.083
-0.193
-0.079
-0.071
0.104
0.065
-0.065
0.071
0.078
-0.011
-0.096
-0.053
-0.064
0.001
-0.085
0.065
0.064
-0.020
-0.054
-0.124
-0.032
-0.042
0.007
0.066
-0.053
-0.030
-0.065
-0.119
-0.011
-0.055
-0.098
0.018
0.037
0.031
-0.042
-0.131
-0.044
0.022
-0.033
-0.023
-0.041
-0.011
-0.030
-0.102
-0.002
-0.048
-0.098
-0.035
-0.085
0.060
0.009
-0.027
0.034
0.078
-0.141
-0.062
-0.056
-0.054
0.003
-0.045
0.019
0.031
0.007
-0.070
-0.071
-0.109
-0.012
-0.011
0.147
-0.079
0.037
-0.098
0.008
0.028
-0.117
0.052
0.009
-0.033
-0.010
-0.015
-0.166
-0.123
-0.098
-0.010
-0.028
0.086
0.004
0.006
0.007
-0.089
-0.012
-0.038
0.026
-0.050
0.029
0.078
0.080
-0.028
-0.104
-0.171
0.001
0.071
0.095
-0.068
-0.012
-0.076
-0.068
-0.177
-0.021
0.062
-0.005
-0.071
0.126
-0.043
-0.055
0.096
-0.097
-0.106
0.030
-0.066
-0.035
-0.037
-0.031
0.065
-0.148
-0.069
-0.012
0.215
0.161
-0.041
0.052
-0.050
-0.229
-0.016
0.036
0.062
0.047
0.099
-0.092
-0.216
-0.065
0.008
0.032
0.112
-0.041
-0.141
-0.095
-0.031
-0.005
-0.034
0.100
0.006
-0.048
-0.008
0.089
-0.062
0.068
-0.086
-0.021
-0.092
-0.013
-0.034
0.036
0.011
-0.067
-0.016
-0.045
-0.056
0.021
0.002
0.041
-0.030
-0.101
-0.012
0.020
0.022
-0.041
-0.030
-0.027
0.045
0.018
-0.027
-0.098
-0.075
-0.031
0.028
-0.043
0.040
-0.126
-0.011
0.013
0.039
0.003
-0.082
-0.041
0.021
-0.008
-0.049
-0.192
-0.069
-0.066
-0.075
0.007
0.074
-0.033
0.023
-0.019
0.017
-0.056
-0.071
-0.013
-0.048
-0.080
-0.045
0.074
0.016
-0.001
-0.012
-0.057
-0.154
0.123
-0.032
-0.007
-0.032
-0.010
0.044
-0.105
0.003
-0.014
-0.091
-0.058
0.050
-0.019
-0.076
-0.016
-0.016
-0.067
0.077
-0.023
-0.068
0.000
-0.057
0.037
-0.039
-0.084
-0.064
-0.053
-0.047
-0.060
-0.034
-0.082
-0.074
-0.071
0.022
-0.075
-0.007
-0.031
0.014
0.040
0.038
0.006
0.038
-0.091
-0.053
0.040
0.111
-0.035
-0.049
-0.162
-0.062
0.090
0.143
0.047
-0.088
-0.124
-0.063
-0.103
-0.050
0.004
0.043
-0.011
0.069
0.037
-0.119
0.090
0.056
-0.071
-0.113
-0.015
0.003
-0.051
-0.007
-0.028
0.003
-0.112
-0.044
-0.057
0.004
0.081
-0.063
-0.149
0.006
-0.023
-0.084
0.065
0.023
-0.118
-0.043
-0.050
-0.115
-0.083
0.005
0.038
-0.054
-0.053
0.005
-0.051
-0.048
0.031
-0.106
-0.062
-0.008
0.036
0.060
-0.121
0.007
-0.028
0.187
-0.060
-0.075
-0.039
-0.082
-0.156
-0.022
0.000
0.115
0.122
0.010
-0.027
-0.066
-0.074
-0.046
-0.002
-0.027
0.009
0.034
-0.168
-0.071
-0.004
0.033
-0.009
0.030
0.040
-0.100
-0.082
-0.023
0.005
-0.049
0.045
-0.050
0.002
-0.070
0.088
-0.096
-0.001
-0.111
-0.046
0.013
-0.060
0.025
-0.048
-0.007
-0.062
0.053
0.040
-0.004
-0.035
-0.038
-0.138
0.012
0.078
0.035
0.081
-0.064
-0.074
-0.100
0.025
0.056
0.052
-0.037
-0.082
0.034
-0.048
0.030
0.022
0.021
-0.003
-0.003
-0.076
-0.030
-0.080
-0.001
0.072
-0.025
-0.082
-0.052
0.039
0.062
-0.015
0.014
-0.114
-0.135
-0.063
0.025
0.158
-0.015
-0.085
-0.145
-0.105
-0.094
0.097
0.027
-0.133
-0.124
-0.046
0.036
0.149
0.007
-0.136
-0.033
-0.038
0.046
-0.023
0.006
0.044
-0.019
-0.091
0.008
0.001
-0.044
-0.025
-0.169
-0.147
0.091
0.011
-0.012
-0.031
0.065
-0.054
-0.070
0.014
-0.014
-0.012
-0.018
0.081
-0.008
-0.023
-0.030
-0.138
-0.077
-0.110
0.066
-0.029
-0.032
-0.022
0.099
-0.086
0.023
-0.049
-0.032
0.014
0.029
-0.059
-0.092
-0.032
0.015
-0.038
0.089
0.018
-0.115
-0.110
-0.032
-0.029
-0.019
-0.032
-0.007
-0.011
0.058
-0.109
0.032
0.044
-0.044
-0.067
-0.016
-0.076
0.014
-0.007
-0.017
-0.040
-0.000
-0.070
-0.074
-0.056
0.043
-0.013
-0.032
-0.045
-0.016
0.008
-0.065
0.007
-0.091
0.056
-0.007
-0.068
-0.036
0.010
0.062
-0.054
-0.100
0.008
-0.063
-0.105
-0.040
0.020
0.041
-0.002
-0.038
0.075
-0.157
-0.031
0.017
0.010
0.016
-0.024
-0.158
-0.079
-0.049
0.078
-0.030
-0.037
0.012
-0.086
-0.056
-0.040
0.039
-0.076
-0.006
-0.056
-0.040
-0.050
-0.014
0.023
-0.026
-0.023
-0.004
-0.025
-0.026
0.019
-0.014
-0.047
-0.011
-0.102
0.060
-0.008
0.102
0.054
-0.098
-0.120
-0.109
0.066
0.106
-0.091
-0.088
-0.040
0.032
0.029
-0.032
-0.013
-0.040
0.001
0.040
-0.061
0.048
-0.111
-0.006
-0.047
-0.065
0.059
-0.050
0.023
-0.115
-0.004
0.065
0.011
-0.018
-0.007
-0.085
-0.193
-0.039
0.065
0.125
0.060
-0.142
-0.018
-0.072
-0.170
0.061
0.086
0.095
0.001
-0.057
-0.030
-0.052
-0.146
0.057
0.099
-0.023
-0.052
0.027
-0.088
-0.048
-0.086
-0.068
-0.003
-0.004
-0.107
-0.023
0.047
-0.017
-0.010
0.028
-0.118
-0.038
-0.003
0.067
0.108
-0.032
-0.059
-0.009
0.095
-0.010
-0.084
0.087
-0.022
0.005
-0.065
-0.036
-0.020
0.003
-0.125
-0.036
0.025
0.012
0.023
-0.111
0.024
-0.025
0.022
-0.108
-0.006
-0.054
0.013
0.066
-0.037
0.027
-0.080
0.009
0.012
-0.058
0.067
-0.034
-0.104
0.000
0.011
-0.073
0.144
0.086
-0.004
-0.086
-0.109
-0.113
0.058
0.045
-0.106
-0.064
-0.015
0.123
0.020
-0.107
0.014
-0.060
0.007
-0.013
0.004
0.093
0.036
-0.012
0.009
0.069
0.057
-0.022
-0.016
-0.146
0.028
-0.004
-0.045
-0.007
-0.032
-0.104
-0.065
-0.007
-0.063
-0.217
-0.053
0.167
0.169
0.022
-0.115
0.024
-0.143
-0.153
-0.003
0.039
-0.092
-0.022
0.035
0.012
-0.003
0.026
-0.076
-0.042
-0.067
-0.031
-0.018
-0.066
-0.042
0.042
-0.003
0.004
0.049
0.044
-0.005
-0.085
-0.086
0.014
0.009
-0.021
0.083
-0.074
-0.032
-0.092
-0.034
-0.028
-0.109
-0.132
-0.089
0.209
0.099
0.034
-0.109
-0.163
-0.069
-0.017
-0.015
0.084
-0.023
0.045
0.015
-0.072
0.043
-0.147
0.047
-0.024
-0.003
0.068
-0.089
-0.154
0.075
0.031
-0.037
0.002
-0.001
0.007
-0.006
-0.013
-0.010
0.074
-0.115
0.027
0.004
0.002
0.053
-0.069
-0.047
-0.088
0.034
-0.040
-0.040
-0.069
0.024
0.007
0.025
-0.054
-0.043
-0.045
-0.064
-0.029
-0.056
-0.029
0.028
-0.009
0.044
0.019
0.036
-0.056
0.049
-0.038
-0.103
-0.035
0.035
0.037
-0.147
-0.087
0.090
0.163
0.166
0.001
-0.141
-0.025
-0.118
-0.007
0.068
0.033
-0.019
0.020
-0.002
-0.016
-0.045
0.007
-0.133
-0.079
-0.026
-0.052
0.003
-0.004
0.020
-0.084
-0.028
-0.037
-0.012
-0.132
-0.007
0.031
-0.011
-0.089
-0.023
-0.080
-0.076
0.084
-0.033
0.020
-0.070
0.096
-0.049
-0.002
-0.092
-0.038
-0.067
0.045
0.036
-0.015
-0.065
-0.124
0.104
-0.029
-0.101
-0.101
0.026
0.005
-0.005
-0.080
0.003
0.038
-0.033
0.038
-0.089
-0.051
-0.026
-0.027
0.014
0.038
0.125
-0.066
-0.157
-0.030
0.029
0.003
-0.069
-0.080
-0.029
-0.026
-0.066
0.067
-0.088
0.020
0.023
-0.187
-0.074
-0.072
-0.044
-0.013
0.035
-0.039
-0.056
0.090
-0.164
0.003
0.045
-0.034
-0.016
0.066
0.010
-0.005
0.002
0.021
0.002
-0.090
-0.140
0.006
0.036
-0.008
0.070
0.001
-0.022
-0.031
-0.074
-0.018
-0.095
-0.008
-0.035
-0.021
-0.008
-0.021
-0.033
-0.009
-0.000
-0.050
-0.148
0.001
-0.036
-0.056
0.081
0.039
-0.043
-0.067
-0.014
-0.031
0.009
0.023
-0.031
-0.106
-0.060
0.139
0.195
-0.023
-0.161
-0.049
-0.087
-0.074
-0.053
0.026
-0.005
0.025
-0.109
-0.017
0.002
0.030
0.006
-0.003
-0.055
-0.125
-0.075
-0.053
0.047
0.043
-0.030
-0.100
-0.070
-0.018
0.072
0.005
-0.062
0.093
-0.013
-0.105
-0.054
-0.053
0.048
-0.043
-0.024
-0.086
-0.021
-0.189
-0.018
-0.105
0.029
0.098
0.006
-0.125
-0.084
-0.003
0.046
-0.034
-0.026
-0.041
-0.023
0.031
-0.062
0.085
-0.096
-0.051
0.007
-0.009
0.022
0.034
-0.004
-0.099
-0.026
-0.020
-0.012
-0.156
0.057
0.015
-0.007
0.029
-0.072
-0.090
-0.024
0.015
0.010
0.010
0.031
-0.066
-0.038
0.052
-0.002
0.006
-0.000
-0.040
-0.034
-0.113
-0.048
0.017
-0.011
0.059
-0.010
-0.052
-0.067
-0.053
-0.086
-0.098
-0.118
0.379
0.162
-0.149
-0.184
0.018
-0.045
-0.041
0.014
-0.084
0.046
-0.033
0.029
0.040
-0.066
-0.036
-0.054
-0.105
-0.006
0.024
-0.004
0.101
-0.082
-0.005
-0.064
-0.120
-0.054
0.007
0.057
-0.007
0.049
-0.087
0.054
-0.081
-0.100
-0.145
-0.025
0.075
-0.004
-0.024
-0.039
0.012
-0.130
0.012
0.029
-0.073
0.097
-0.097
-0.074
0.021
-0.021
-0.055
0.022
-0.065
-0.055
0.019
-0.093
-0.012
-0.117
0.007
-0.019
-0.022
0.007
0.085
-0.117
0.044
0.039
-0.058
-0.016
-0.093
0.046
-0.071
0.073
0.003
-0.051
-0.018
-0.102
-0.114
0.051
0.038
-0.031
-0.047
0.032
-0.080
0.045
-0.056
-0.111
0.052
-0.084
-0.052
0.053
0.021
-0.016
-0.016
-0.016
-0.049
-0.063
0.016
-0.048
-0.005
0.022
0.046
0.066
-0.072
-0.058
-0.107
-0.048
-0.065
-0.054
-0.029
0.104
0.016
0.021
0.004
-0.039
0.002
0.022
-0.155
-0.040
0.061
0.033
0.043
0.029
-0.105
-0.216
0.039
0.084
-0.013
-0.028
-0.101
0.002
0.042
0.009
0.042
-0.010
-0.016
-0.089
-0.095
-0.047
-0.054
0.001
-0.105
-0.027
-0.039
-0.007
-0.066
0.046
-0.038
-0.131
-0.094
0.117
-0.028
0.047
-0.134
-0.028
0.033
-0.002
-0.023
0.022
-0.101
-0.032
-0.007
0.129
0.009
-0.093
0.041
-0.092
-0.081
-0.050
-0.005
-0.088
-0.009
-0.064
-0.069
0.002
-0.028
-0.023
-0.001
0.044
-0.028
-0.052
-0.037
-0.070
0.019
0.116
-0.004
-0.103
0.012
-0.011
-0.052
-0.002
-0.069
-0.053
-0.042
-0.019
0.060
-0.020
-0.119
-0.069
0.144
-0.087
0.164
-0.051
-0.046
-0.051
-0.116
0.022
-0.041
0.081
0.058
-0.078
-0.149
-0.123
0.083
0.155
0.093
-0.019
-0.122
-0.160
-0.057
0.228
-0.009
-0.004
-0.100
-0.104
0.004
-0.072
-0.054
-0.050
-0.028
0.140
-0.098
-0.044
-0.051
-0.018
-0.052
0.019
0.059
-0.033
-0.034
0.031
-0.004
-0.082
-0.070
0.011
0.130
0.008
0.015
-0.108
0.075
-0.055
-0.016
-0.012
-0.060
-0.011
-0.058
0.010
-0.064
-0.097
0.067
-0.031
-0.102
0.060
-0.065
-0.031
0.003
-0.006
0.020
-0.022
-0.085
-0.082
-0.055
-0.029
0.050
0.065
0.003
0.088
-0.075
-0.075
0.003
-0.081
-0.056
-0.002
-0.031
0.088
-0.044
0.006
-0.009
0.012
0.037
-0.055
-0.114
-0.023
0.087
-0.084
-0.083
0.003
-0.064
0.071
-0.137
-0.098
-0.063
-0.091
0.047
0.045
-0.175
-0.144
0.156
0.038
-0.016
-0.054
0.013
-0.017
-0.048
-0.081
-0.004
-0.048
-0.047
-0.013
0.009
0.004
0.037
0.061
-0.158
-0.098
0.039
0.090
-0.039
-0.013
-0.029
-0.059
-0.057
-0.034
0.022
-0.090
0.032
-0.042
0.006
-0.007
-0.139
-0.151
0.057
0.125
-0.116
-0.012
-0.111
0.044
-0.017
0.035
-0.025
-0.071
-0.046
0.018
0.044
-0.063
0.015
0.092
-0.039
-0.081
-0.059
-0.101
0.011
-0.007
-0.024
-0.075
-0.022
0.001
-0.021
-0.067
-0.041
-0.115
0.002
-0.086
0.025
0.043
0.097
-0.055
-0.152
0.045
-0.021
-0.057
0.030
0.023
-0.005
0.048
-0.111
0.002
-0.063
-0.031
-0.062
-0.066
-0.053
0.009
0.127
-0.062
-0.095
0.015
-0.047
-0.055
0.058
0.042
0.072
0.028
-0.125
-0.025
-0.009
0.076
-0.110
-0.034
0.000
-0.092
-0.078
-0.018
0.076
0.009
0.098
-0.087
-0.123
-0.048
-0.006
0.092
-0.006
-0.055
-0.054
-0.045
-0.071
0.021
0.055
0.010
0.015
-0.017
-0.147
-0.066
0.070
0.071
-0.093
-0.242
-0.182
0.057
0.124
0.030
0.122
-0.040
-0.088
-0.006
-0.080
0.028
-0.038
0.001
-0.018
0.080
-0.006
-0.026
-0.071
-0.124
0.070
0.064
0.055
0.014
0.007
-0.149
0.056
-0.006
0.082
-0.026
0.016
-0.056
-0.094
-0.070
0.046
0.113
-0.100
-0.014
-0.091
-0.041
0.057
-0.047
0.053
-0.026
-0.082
-0.028
0.009
-0.057
0.043
-0.024
0.056
0.094
-0.096
-0.093
0.001
-0.033
0.119
0.057
-0.062
-0.137
-0.109
0.056
0.043
-0.040
-0.158
0.032
-0.152
0.035
0.065
-0.125
-0.010
-0.022
-0.017
-0.064
-0.018
0.014
-0.101
-0.053
0.032
0.084
-0.005
-0.052
-0.111
-0.089
-0.008
0.028
0.053
-0.128
-0.089
0.109
0.187
0.081
-0.139
-0.048
-0.079
-0.091
-0.045
-0.039
0.035
0.061
-0.165
0.042
-0.019
-0.071
0.055
-0.010
-0.121
0.046
-0.041
-0.069
-0.079
0.079
-0.063
-0.117
-0.032
-0.005
0.023
-0.022
-0.123
-0.071
-0.009
0.027
0.045
-0.065
-0.037
-0.032
-0.078
0.002
-0.011
-0.070
0.016
-0.001
0.058
-0.043
-0.035
-0.105
-0.002
-0.039
0.020
0.071
-0.038
-0.011
-0.046
0.010
-0.054
-0.095
-0.051
-0.101
-0.018
0.051
-0.154
-0.081
0.024
0.060
-0.002
-0.036
-0.019
-0.027
-0.058
-0.001
0.054
0.021
0.007
0.036
0.035
-0.108
0.010
0.013
-0.057
-0.063
-0.161
0.001
0.022
0.217
0.052
-0.145
-0.183
-0.071
-0.050
0.088
-0.006
0.032
0.012
-0.110
-0.023
0.005
-0.010
0.003
-0.080
0.009
-0.016
-0.071
-0.054
-0.018
-0.000
0.028
-0.071
-0.119
0.014
0.101
-0.046
-0.058
-0.073
-0.014
0.001
-0.043
-0.049
0.038
0.050
0.035
-0.094
-0.055
0.026
0.029
-0.028
0.024
-0.017
-0.123
0.073
-0.075
0.035
0.022
-0.039
0.036
-0.004
0.063
-0.055
-0.046
-0.155
0.016
0.069
-0.045
-0.096
-0.023
-0.001
0.026
-0.016
-0.063
-0.082
-0.052
0.059
0.071
0.083
-0.132
-0.032
-0.004
-0.035
-0.013
0.039
-0.037
-0.075
-0.003
-0.011
0.097
-0.163
0.035
-0.073
0.039
0.050
-0.072
0.020
0.046
-0.031
0.013
0.010
-0.023
-0.090
-0.032
-0.046
-0.079
0.017
0.057
-0.160
0.033
-0.029
-0.107
-0.000
0.020
0.050
-0.036
-0.034
-0.138
0.128
0.024
-0.013
-0.073
0.010
0.076
-0.042
-0.054
-0.031
-0.009
-0.087
0.046
0.009
-0.036
-0.037
0.063
0.017
-0.030
-0.021
-0.114
0.092
-0.070
-0.105
0.052
-0.090
0.014
-0.050
0.041
-0.083
0.021
-0.011
0.026
-0.082
-0.018
-0.076
-0.007
-0.056
0.048
0.034
-0.029
-0.066
-0.015
-0.026
-0.065
0.083
-0.009
0.004
-0.112
0.028
-0.017
-0.027
-0.039
0.001
-0.094
-0.140
0.037
-0.066
-0.050
-0.068
0.059
0.065
-0.118
-0.055
0.058
-0.085
-0.100
-0.030
-0.120
0.101
0.059
0.078
-0.099
-0.057
-0.062
-0.104
0.005
-0.010
0.038
-0.009
-0.004
0.046
0.068
-0.137
-0.145
-0.038
-0.003
0.020
0.043
0.016
-0.212
-0.150
0.022
0.020
-0.032
-0.031
-0.041
0.071
-0.039
-0.045
-0.048
-0.110
-0.003
0.081
0.037
-0.040
-0.063
-0.037
-0.064
-0.019
-0.049
-0.075
0.060
-0.117
0.002
0.122
-0.024
0.030
-0.052
-0.032
-0.125
-0.063
0.007
0.057
-0.032
0.044
0.006
-0.066
-0.131
0.004
-0.052
0.063
-0.006
-0.044
0.023
-0.048
-0.078
-0.102
0.032
-0.007
0.017
-0.019
-0.015
-0.064
-0.033
-0.037
0.036
-0.050
0.055
-0.017
-0.064
0.054
-0.033
-0.066
-0.028
-0.082
0.022
0.022
-0.022
-0.056
-0.071
-0.039
-0.100
-0.033
-0.003
-0.005
-0.051
-0.047
-0.047
0.032
-0.047
-0.096
0.013
0.056
-0.028
-0.051
-0.014
0.020
-0.096
0.041
-0.066
-0.030
-0.025
0.050
-0.010
-0.059
-0.030
-0.041
-0.013
-0.102
0.023
-0.036
0.000
0.002
0.012
-0.005
-0.040
-0.156
-0.029
-0.005
0.012
-0.069
-0.069
-0.020
0.019
-0.030
-0.040
0.003
0.006
-0.111
-0.083
-0.081
-0.082
-0.019
0.088
-0.098
0.012
-0.003
-0.080
-0.004
-0.054
-0.088
0.033
-0.040
-0.053
0.105
-0.072
0.021
-0.008
0.017
0.066
-0.064
-0.071
0.012
-0.059
-0.023
0.000
-0.029
-0.065
-0.037
0.076
-0.050
-0.097
0.020
-0.027
0.022
0.012
-0.028
-0.023
-0.147
-0.009
0.037
0.055
0.034
0.021
-0.102
-0.025
-0.038
-0.025
-0.218
-0.057
0.098
0.042
-0.011
-0.053
-0.028
-0.084
-0.009
-0.018
-0.045
0.001
0.032
-0.010
-0.057
0.008
0.041
-0.176
-0.068
0.011
-0.015
0.046
0.006
0.040
-0.042
-0.101
0.004
0.084
-0.063
0.051
-0.041
0.029
-0.099
-0.030
0.029
-0.036
-0.017
-0.052
0.017
-0.056
0.014
0.002
-0.020
-0.007
-0.113
0.031
-0.000
-0.075
-0.036
0.012
0.019
0.045
-0.022
-0.026
-0.052
-0.036
0.010
-0.030
0.044
-0.012
-0.033
-0.075
-0.100
-0.092
-0.033
-0.021
0.155
0.015
-0.072
-0.002
-0.037
-0.076
-0.003
0.010
0.007
-0.045
-0.102
-0.009
0.019
-0.007
-0.025
0.018
0.005
0.026
0.022
-0.292
-0.083
0.150
0.170
0.072
-0.114
-0.268
-0.100
0.017
0.114
-0.020
-0.043
-0.008
0.000
0.048
-0.114
-0.069
-0.041
-0.077
-0.064
0.051
-0.033
-0.095
-0.031
0.196
0.002
-0.065
-0.036
-0.174
0.099
0.004
-0.071
0.019
-0.056
0.033
-0.077
0.035
-0.018
-0.048
-0.102
-0.038
0.049
0.012
0.071
-0.093
-0.098
-0.054
-0.065
0.071
0.003
0.037
0.017
0.001
-0.056
0.001
0.026
-0.027
-0.012
-0.093
-0.112
0.015
0.059
0.034
-0.089
-0.131
-0.153
-0.067
0.136
0.051
-0.032
-0.087
-0.011
-0.098
0.096
0.067
-0.100
-0.157
-0.028
0.054
0.041
-0.048
-0.071
0.101
-0.023
0.061
-0.073
0.084
0.083
-0.088
-0.039
-0.019
0.050
-0.077
-0.053
-0.239
-0.072
0.164
0.217
0.089
-0.045
-0.269
-0.082
-0.018
-0.043
0.117
-0.039
0.082
-0.006
-0.025
-0.059
-0.025
-0.127
-0.092
-0.070
-0.060
-0.076
0.022
0.062
-0.040
0.012
-0.033
-0.041
-0.005
0.083
-0.068
-0.088
-0.037
0.044
-0.072
0.009
-0.015
-0.068
-0.036
-0.084
-0.005
-0.061
-0.032
0.003
0.012
0.013
-0.053
-0.019
-0.083
-0.082
-0.065
0.072
0.065
0.008
-0.135
-0.101
-0.011
0.156
0.000
-0.039
-0.033
-0.091
-0.023
0.015
0.013
-0.037
-0.046
0.001
-0.024
-0.067
-0.036
0.025
0.080
-0.041
0.040
0.038
-0.095
-0.116
-0.024
-0.099
-0.055
0.010
-0.052
0.068
0.043
-0.068
-0.023
0.000
-0.035
-0.095
-0.014
-0.022
-0.022
0.048
-0.046
0.068
-0.069
0.034
-0.024
-0.038
-0.004
0.028
-0.056
-0.087
0.037
-0.025
-0.072
0.001
-0.008
-0.049
-0.028
0.014
-0.001
-0.087
0.054
0.016
-0.012
-0.078
0.013
0.018
-0.057
0.025
-0.089
-0.017
-0.029
0.059
0.001
-0.056
0.024
0.109
-0.056
-0.066
-0.071
-0.130
0.008
0.014
0.093
-0.010
-0.037
-0.051
0.009
0.008
-0.123
-0.018
0.012
0.095
-0.010
-0.019
-0.087
-0.094
-0.069
0.021
-0.029
-0.064
-0.004
-0.027
-0.027
-0.039
-0.052
0.040
0.059
0.056
-0.107
-0.093
0.039
-0.044
0.035
-0.033
-0.001
-0.001
-0.092
-0.007
0.049
-0.030
-0.071
0.051
-0.067
-0.025
-0.035
-0.068
0.005
0.110
-0.041
-0.075
-0.044
0.065
0.004
-0.068
0.043
-0.042
-0.066
-0.123
0.014
-0.033
0.104
-0.051
0.010
-0.066
-0.059
0.003
0.024
-0.141
-0.036
-0.020
0.012
0.117
-0.048
-0.043
-0.001
0.006
-0.060
0.016
-0.007
-0.033
-0.087
-0.025
0.045
-0.032
-0.115
0.030
-0.067
0.074
-0.013
-0.060
-0.017
-0.069
0.033
-0.046
0.030
-0.160
-0.027
-0.018
0.048
-0.030
0.059
-0.032
0.015
-0.172
-0.074
0.010
-0.044
-0.051
0.054
-0.031
0.068
-0.057
-0.008
-0.013
-0.147
-0.004
0.072
0.074
-0.014
-0.120
-0.037
0.048
-0.112
-0.081
-0.050
-0.008
-0.016
-0.028
-0.003
0.010
-0.147
-0.018
0.015
0.089
0.017
-0.035
-0.060
-0.095
-0.130
0.114
0.075
0.089
-0.079
-0.087
-0.034
-0.155
0.043
0.006
0.026
0.023
-0.013
0.060
-0.082
-0.037
-0.016
0.042
-0.004
-0.046
0.041
0.009
-0.018
-0.054
-0.092
-0.024
-0.030
0.034
0.014
-0.039
0.020
-0.095
-0.007
0.098
-0.122
-0.033
-0.110
0.039
-0.016
-0.059
-0.033
0.021
-0.001
-0.068
0.001
0.017
-0.138
-0.001
0.119
-0.034
0.017
-0.115
-0.031
0.088
-0.124
0.064
0.009
-0.025
-0.045
-0.063
0.036
0.108
-0.067
0.027
-0.062
0.049
-0.084
-0.015
-0.001
-0.092
-0.011
-0.024
-0.049
-0.021
-0.074
-0.145
0.064
0.008
-0.122
-0.002
0.089
0.029
0.009
-0.041
0.015
-0.072
-0.105
0.033
-0.111
-0.113
-0.009
0.038
0.123
-0.065
-0.054
-0.081
0.039
-0.105
-0.158
-0.085
-0.031
0.025
0.050
0.064
0.036
-0.105
-0.118
-0.045
-0.059
0.091
0.056
0.038
0.015
-0.050
-0.115
-0.003
-0.011
-0.082
0.041
-0.096
-0.055
-0.022
0.003
-0.084
-0.073
0.027
0.035
0.031
0.017
0.020
-0.025
-0.048
0.094
-0.053
0.012
-0.012
-0.153
-0.076
-0.088
0.118
-0.037
0.096
-0.013
-0.072
-0.010
-0.018
-0.124
-0.082
-0.010
0.035
0.016
0.016
0.025
0.013
-0.061
-0.033
-0.024
0.046
-0.015
0.000
-0.031
0.010
-0.075
-0.026
-0.005
-0.020
-0.030
0.025
-0.076
0.047
0.063
0.016
-0.089
-0.093
-0.036
0.096
0.052
-0.024
0.005
-0.033
-0.042
0.047
-0.033
-0.050
0.026
0.029
0.078
-0.096
-0.071
-0.008
-0.007
-0.052
0.136
-0.043
-0.104
0.002
0.053
-0.049
-0.072
0.072
0.074
-0.121
-0.020
-0.055
-0.003
-0.034
-0.004
0.000
-0.063
-0.089
-0.023
-0.054
-0.007
-0.007
0.020
0.063
-0.016
-0.062
-0.051
-0.027
-0.029
-0.028
0.019
-0.036
-0.069
-0.057
0.124
-0.026
-0.039
-0.042
0.041
-0.029
-0.038
0.004
-0.021
-0.040
0.011
-0.026
0.093
-0.001
-0.041
-0.008
-0.032
0.035
-0.012
0.021
-0.107
-0.122
0.050
0.030
-0.029
-0.056
0.003
-0.016
-0.072
-0.040
-0.033
0.053
-0.046
-0.017
0.005
-0.025
-0.052
-0.110
-0.065
-0.108
-0.035
0.021
0.014
-0.067
0.022
-0.068
0.048
0.066
0.002
-0.069
-0.064
0.004
0.219
-0.023
-0.059
-0.041
-0.152
-0.017
-0.053
-0.053
0.065
0.074
-0.017
-0.031
-0.062
-0.080
0.036
-0.141
-0.095
0.022
0.134
0.073
-0.065
-0.079
0.013
0.012
-0.119
-0.074
0.102
-0.107
-0.031
0.033
-0.061
-0.006
-0.033
-0.070
0.041
-0.039
-0.102
0.105
-0.054
-0.015
-0.033
-0.118
-0.034
0.045
0.052
0.065
-0.123
-0.074
-0.035
-0.092
0.024
0.032
-0.023
-0.125
-0.068
0.079
0.078
-0.001
-0.049
-0.059
-0.020
0.032
-0.065
-0.042
0.173
0.037
-0.153
-0.131
-0.030
0.134
0.003
-0.088
0.047
-0.096
-0.016
-0.050
-0.079
-0.020
-0.008
0.003
0.001
0.003
-0.049
0.014
-0.016
0.011
-0.017
-0.053
0.044
-0.039
-0.091
-0.066
-0.048
0.078
0.044
-0.075
0.133
0.002
-0.123
0.017
-0.024
0.004
-0.078
-0.075
0.110
0.005
-0.033
0.074
-0.020
-0.072
-0.072
-0.054
-0.037
0.074
-0.019
-0.026
-0.058
-0.050
-0.068
-0.011
-0.083
-0.011
0.024
-0.069
0.076
-0.075
0.063
-0.084
-0.031
0.055
-0.016
-0.045
0.005
-0.041
-0.088
0.002
0.010
-0.079
0.013
0.047
0.020
0.071
-0.000
-0.139
-0.059
0.070
-0.024
0.005
-0.092
-0.175
-0.159
0.002
0.187
0.066
0.015
-0.130
-0.109
-0.060
-0.035
0.065
-0.070
-0.007
-0.051
0.071
0.027
-0.011
-0.012
-0.044
0.031
-0.054
-0.099
-0.125
-0.057
-0.082
-0.064
0.024
0.006
0.098
0.004
-0.012
-0.019
0.042
-0.097
-0.113
-0.066
0.051
0.009
0.016
-0.097
0.039
0.055
-0.032
-0.005
-0.060
-0.043
0.002
-0.019
0.031
-0.101
-0.009
-0.066
-0.048
-0.073
-0.069
-0.009
0.051
0.022
-0.043
-0.058
0.070
-0.015
-0.056
-0.066
-0.105
-0.008
-0.104
-0.121
0.140
0.171
0.133
-0.081
-0.213
-0.044
-0.032
-0.090
0.119
0.083
0.009
-0.006
-0.071
-0.111
0.021
-0.019
-0.110
-0.079
0.063
-0.041
0.109
0.055
-0.145
-0.081
0.010
-0.059
-0.031
-0.031
-0.030
0.008
-0.001
0.018
-0.051
0.026
-0.061
0.040
0.000
0.016
0.018
-0.117
-0.145
-0.024
-0.057
-0.030
0.049
-0.049
0.027
-0.054
-0.051
0.050
-0.001
0.042
0.050
-0.059
-0.019
-0.066
-0.003
0.043
-0.021
-0.035
-0.010
-0.099
-0.171
-0.003
-0.002
0.058
-0.023
-0.117
0.040
-0.056
-0.107
0.149
-0.064
-0.036
0.052
0.073
-0.034
-0.022
-0.087
0.085
-0.009
-0.064
0.088
-0.036
0.032
-0.068
0.057
-0.115
0.013
-0.024
-0.077
-0.017
0.061
-0.092
-0.053
-0.055
-0.001
-0.050
-0.039
0.047
-0.132
0.064
0.053
-0.014
0.142
0.002
-0.022
-0.154
-0.070
-0.046
0.061
-0.054
0.099
-0.025
0.047
0.081
-0.049
-0.068
-0.078
-0.033
0.024
0.026
0.008
-0.009
0.004
-0.040
0.091
-0.033
0.034
-0.187
-0.058
0.046
0.116
-0.039
-0.106
-0.162
-0.019
0.044
0.011
-0.022
-0.019
-0.006
-0.087
0.039
-0.000
-0.101
0.018
0.018
0.043
0.153
-0.066
-0.041
-0.095
-0.019
-0.014
-0.077
0.012
0.002
-0.029
-0.049
-0.011
-0.049
-0.137
-0.006
-0.053
-0.025
-0.078
0.015
0.041
0.021
-0.022
-0.066
-0.080
0.062
-0.042
-0.087
0.070
0.033
-0.106
-0.129
-0.094
0.064
0.006
-0.032
-0.203
-0.122
0.059
0.037
-0.022
-0.043
-0.018
-0.226
-0.009
0.083
-0.058
-0.121
0.150
0.028
-0.085
0.001
0.002
0.077
-0.112
0.048
-0.004
-0.031
-0.081
0.064
-0.058
-0.077
0.012
-0.023
-0.052
0.016
-0.081
-0.087
-0.052
0.003
-0.006
-0.011
-0.036
-0.077
0.011
0.056
-0.128
-0.027
0.029
-0.069
0.010
0.088
-0.005
-0.061
-0.085
0.009
-0.054
0.056
-0.089
-0.001
0.023
0.068
0.005
-0.045
-0.002
-0.025
-0.052
0.070
0.018
-0.078
-0.198
0.045
0.063
0.049
-0.045
-0.085
-0.085
0.049
0.041
-0.070
0.113
0.006
-0.150
0.043
-0.003
-0.073
0.067
-0.084
0.069
-0.035
-0.056
-0.035
-0.061
0.042
0.078
-0.103
-0.064
0.034
-0.036
-0.000
-0.158
-0.041
-0.076
-0.137
-0.169
0.130
0.128
-0.101
-0.088
0.048
-0.091
-0.043
-0.067
0.016
-0.076
-0.050
0.022
0.052
-0.059
-0.065
-0.044
-0.062
-0.081
-0.002
0.093
-0.102
0.059
0.032
0.004
-0.052
-0.072
-0.024
0.014
-0.053
-0.050
-0.012
-0.071
-0.011
-0.066
-0.012
-0.002
-0.061
0.022
0.004
-0.120
-0.002
-0.040
-0.103
-0.101
-0.107
0.076
0.019
-0.029
-0.012
-0.103
-0.078
0.061
0.001
0.039
0.025
-0.105
0.009
-0.038
0.000
0.095
-0.031
-0.053
0.094
-0.020
-0.018
-0.022
-0.105
-0.051
-0.094
-0.041
-0.096
0.029
0.059
-0.073
-0.116
-0.030
0.000
0.005
0.015
0.013
0.019
-0.082
-0.071
-0.008
-0.145
0.024
0.181
0.194
-0.111
-0.155
-0.134
0.069
0.028
-0.103
-0.030
0.050
-0.043
-0.008
0.034
-0.011
-0.107
-0.075
-0.003
-0.023
-0.081
0.050
-0.042
-0.075
0.087
-0.052
-0.012
-0.103
-0.010
-0.021
-0.001
-0.037
-0.056
-0.084
-0.017
-0.083
0.014
-0.090
-0.072
-0.014
0.057
-0.062
0.075
-0.018
-0.063
0.000
-0.041
0.080
-0.094
0.007
-0.173
-0.057
-0.066
0.025
-0.059
-0.053
-0.037
-0.073
0.015
-0.039
-0.025
-0.032
0.082
0.049
0.003
-0.130
-0.090
0.041
0.027
-0.043
-0.033
0.018
0.001
-0.027
-0.044
-0.023
0.028
0.022
0.013
-0.027
-0.070
0.120
-0.140
-0.096
-0.041
0.031
-0.027
-0.020
-0.114
-0.016
0.082
-0.069
-0.108
0.049
0.006
-0.081
-0.076
0.015
0.012
0.069
0.046
-0.000
-0.088
-0.067
-0.057
0.012
0.003
0.103
-0.007
-0.050
-0.047
-0.032
0.029
-0.012
0.027
-0.059
-0.018
-0.016
-0.021
-0.062
-0.098
0.040
0.012
-0.046
-0.089
0.036
0.029
0.024
-0.140
-0.142
-0.029
0.036
0.043
0.026
-0.005
0.159
-0.075
0.063
-0.080
-0.081
-0.081
0.059
-0.053
0.020
-0.022
-0.009
0.005
-0.087
-0.085
-0.004
0.032
0.026
-0.051
0.040
-0.073
0.024
-0.011
-0.072
0.004
0.008
0.014
-0.029
-0.029
-0.030
-0.070
-0.107
0.028
-0.055
0.011
0.089
-0.031
0.002
-0.030
0.022
-0.008
-0.051
-0.137
0.058
-0.014
-0.005
0.051
-0.035
0.025
-0.023
-0.197
-0.258
0.424
0.261
-0.119
-0.198
-0.125
-0.003
-0.044
0.037
0.003
-0.160
0.005
0.137
0.121
-0.081
-0.125
-0.163
-0.028
-0.031
-0.018
-0.008
0.073
0.083
-0.002
-0.055
-0.046
-0.024
0.005
-0.014
-0.052
-0.023
0.021
-0.066
0.029
-0.089
-0.006
-0.019
0.019
-0.025
0.046
0.069
-0.067
-0.122
-0.071
0.045
0.108
-0.016
-0.059
0.024
-0.068
-0.096
-0.019
0.024
0.016
-0.071
-0.060
-0.057
-0.143
0.106
0.028
-0.054
-0.032
-0.120
-0.001
-0.011
-0.062
-0.037
-0.102
-0.079
0.056
0.125
0.034
-0.073
-0.087
-0.024
-0.080
0.005
0.065
-0.134
0.086
-0.005
-0.215
-0.084
0.079
0.117
0.060
0.023
-0.138
-0.144
-0.012
0.035
0.046
-0.026
-0.067
0.012
0.018
-0.033
0.038
-0.071
-0.045
-0.012
-0.036
0.017
-0.038
-0.020
-0.067
-0.006
0.056
-0.063
-0.014
-0.039
-0.069
0.019
0.002
0.003
-0.024
-0.140
0.043
-0.093
-0.095
-0.050
0.078
-0.022
-0.022
-0.032
0.062
-0.076
-0.149
-0.160
-0.022
0.075
0.204
0.069
-0.095
-0.182
0.080
-0.036
-0.045
-0.075
0.075
0.069
0.009
0.075
0.003
-0.024
-0.092
-0.095
-0.067
-0.075
0.009
-0.035
-0.066
0.011
0.004
-0.078
-0.069
-0.012
-0.032
0.082
-0.007
-0.010
-0.057
0.002
-0.080
0.001
-0.065
0.009
-0.005
-0.033
-0.094
0.055
-0.004
-0.086
-0.150
0.054
0.011
0.089
-0.034
0.059
0.027
-0.146
-0.133
0.000
-0.009
0.026
0.099
0.001
-0.044
-0.099
-0.077
0.071
-0.030
-0.057
0.006
-0.048
-0.005
0.023
-0.011
-0.096
-0.027
0.040
0.011
0.015
0.002
-0.160
0.014
0.006
0.011
-0.091
-0.070
0.006
-0.010
-0.081
-0.065
0.008
-0.112
-0.050
-0.026
0.037
-0.015
0.010
0.025
0.018
-0.095
-0.089
-0.043
-0.064
0.153
-0.075
-0.024
-0.005
0.002
-0.019
-0.010
-0.081
-0.002
0.043
-0.056
0.097
-0.025
-0.037
-0.050
0.045
0.027
-0.072
-0.019
-0.070
-0.014
0.003
-0.071
-0.057
-0.051
0.028
0.044
-0.085
-0.122
-0.097
-0.088
0.135
0.022
-0.032
-0.129
-0.123
-0.054
0.082
-0.084
0.006
0.034
-0.046
-0.077
-0.044
0.063
0.093
0.062
-0.027
-0.014
0.036
-0.055
-0.102
0.033
-0.082
-0.213
-0.036
0.026
0.062
-0.028
-0.068
-0.023
-0.017
-0.158
0.024
0.004
-0.038
0.010
-0.078
0.092
-0.013
0.005
-0.052
0.039
0.046
0.061
-0.126
-0.089
0.017
0.045
-0.067
0.029
0.009
-0.030
-0.013
-0.153
-0.028
0.092
-0.075
-0.045
-0.020
-0.077
0.036
-0.021
-0.093
-0.106
0.005
0.101
0.070
-0.079
-0.025
-0.122
-0.010
0.014
0.001
0.005
-0.099
-0.065
0.012
-0.005
0.003
-0.044
-0.081
0.026
-0.029
0.004
0.020
-0.033
-0.197
-0.084
-0.014
0.048
0.041
-0.092
-0.082
-0.034
-0.035
0.062
-0.033
-0.014
0.022
-0.011
0.001
-0.085
0.032
-0.060
-0.046
-0.061
0.052
-0.054
-0.035
0.082
-0.024
0.001
-0.029
-0.028
-0.173
-0.084
-0.036
0.206
0.082
-0.068
-0.154
-0.058
-0.075
-0.066
0.070
0.079
-0.093
0.013
0.042
-0.095
-0.008
-0.016
-0.130
-0.078
-0.019
0.053
-0.141
-0.096
-0.028
0.048
-0.068
-0.045
-0.072
-0.015
-0.020
0.018
-0.081
-0.020
-0.032
0.052
0.028
-0.027
-0.083
-0.106
-0.051
-0.006
-0.000
-0.048
0.042
-0.010
0.023
-0.067
-0.012
0.011
-0.051
-0.051
0.018
-0.039
0.044
-0.007
-0.002
-0.120
0.017
0.038
-0.014
-0.039
-0.028
-0.016
0.010
0.039
-0.117
-0.072
-0.145
-0.040
0.059
-0.028
-0.023
-0.040
-0.013
0.022
0.046
-0.109
-0.039
0.015
-0.111
0.013
0.054
0.033
-0.079
-0.092
-0.003
0.113
-0.092
-0.115
0.095
0.030
-0.006
-0.044
-0.070
-0.075
0.006
0.006
-0.065
0.001
-0.182
-0.062
0.068
0.100
0.060
0.101
-0.011
-0.031
-0.049
-0.072
0.038
-0.029
-0.006
-0.013
-0.021
0.036
0.132
-0.134
-0.035
-0.072
-0.039
0.060
-0.035
-0.013
-0.027
-0.058
-0.112
-0.008
0.042
0.021
0.020
-0.047
-0.027
-0.081
0.073
-0.062
-0.049
-0.181
0.022
0.023
0.002
-0.070
-0.077
-0.054
-0.022
0.066
0.075
-0.054
-0.129
-0.004
0.023
0.002
-0.019
-0.032
0.036
-0.016
0.033
0.025
-0.130
-0.074
-0.009
-0.010
-0.082
-0.013
-0.048
-0.011
-0.027
0.033
-0.091
-0.013
0.124
-0.055
-0.087
-0.236
0.029
0.035
0.027
0.052
0.036
-0.090
0.003
-0.067
-0.098
-0.039
0.058
-0.119
-0.054
-0.003
0.021
-0.018
0.016
-0.071
0.028
-0.074
-0.147
-0.017
0.056
0.059
-0.050
-0.053
0.028
-0.105
-0.032
-0.034
0.047
-0.051
-0.019
0.025
0.021
-0.041
0.016
-0.010
-0.107
-0.025
-0.045
0.027
-0.062
-0.037
-0.013
0.083
0.024
-0.074
0.072
-0.089
-0.003
-0.055
0.022
-0.055
-0.018
-0.018
-0.063
-0.010
-0.009
-0.030
-0.009
-0.092
0.006
-0.058
-0.037
0.061
0.125
-0.094
-0.054
0.007
-0.033
-0.123
-0.020
0.034
0.036
-0.050
-0.025
0.071
0.007
-0.073
-0.075
0.020
-0.038
-0.028
0.061
-0.099
-0.064
-0.025
0.039
-0.110
0.042
0.065
-0.010
-0.007
0.027
0.034
-0.178
-0.067
-0.008
-0.062
0.026
0.030
-0.001
-0.040
-0.078
-0.078
0.022
-0.007
-0.030
0.024
-0.089
-0.064
0.107
0.058
-0.008
-0.042
-0.046
-0.017
-0.038
-0.108
0.032
-0.038
-0.068
-0.014
0.066
0.041
-0.088
-0.041
-0.061
0.038
-0.008
0.019
-0.097
-0.042
-0.013
0.085
-0.064
-0.075
-0.102
0.045
0.119
0.006
0.002
-0.164
-0.089
0.033
-0.022
-0.079
-0.042
0.050
-0.060
0.001
0.032
0.024
-0.038
-0.071
-0.086
0.093
-0.029
-0.024
0.015
-0.020
0.019
0.002
-0.033
-0.039
-0.078
-0.087
0.094
-0.020
-0.081
-0.015
0.020
-0.091
-0.010
0.106
-0.038
-0.070
-0.051
-0.111
-0.014
0.040
-0.069
0.085
0.037
-0.043
-0.014
-0.063
-0.051
0.041
-0.012
-0.042
0.107
-0.034
-0.016
0.033
-0.038
0.001
-0.108
-0.077
0.070
-0.028
0.045
0.017
-0.143
-0.073
-0.059
-0.033
0.039
-0.086
0.033
-0.029
0.050
-0.080
-0.085
0.055
0.013
-0.018
-0.036
0.042
0.039
-0.035
-0.090
0.003
0.024
0.027
0.012
-0.017
-0.117
-0.020
0.000
0.001
-0.139
-0.026
0.077
-0.093
0.007
-0.068
-0.040
0.006
-0.131
0.056
0.128
-0.060
-0.053
-0.004
0.013
-0.127
-0.033
0.054
0.003
-0.040
0.014
-0.050
0.017
-0.083
-0.030
-0.024
0.023
-0.074
-0.049
0.019
0.016
0.025
-0.040
-0.094
-0.024
-0.069
-0.056
0.028
0.043
-0.024
0.079
0.060
-0.019
-0.093
-0.093
-0.018
-0.011
0.029
0.002
0.006
0.085
-0.050
-0.039
0.002
-0.039
-0.050
0.057
-0.066
-0.072
0.009
0.022
0.023
-0.057
-0.045
-0.014
-0.027
-0.091
-0.131
0.138
0.013
-0.042
-0.104
-0.057
-0.045
-0.062
0.057
-0.085
0.063
-0.016
0.087
0.049
-0.205
-0.157
0.065
0.143
0.215
0.060
-0.097
-0.137
-0.218
-0.042
-0.024
0.087
0.116
-0.091
-0.047
-0.068
-0.048
-0.002
0.038
-0.089
-0.095
-0.109
-0.007
-0.011
0.046
-0.028
-0.181
-0.006
0.197
0.091
-0.031
-0.094
-0.079
-0.023
-0.098
-0.001
-0.038
0.051
0.048
0.029
0.029
-0.037
-0.014
-0.059
-0.040
-0.046
-0.078
-0.031
-0.079
-0.164
-0.066
0.041
-0.067
-0.107
-0.030
-0.013
0.019
-0.064
0.123
-0.078
-0.015
0.076
-0.040
-0.020
-0.014
-0.169
-0.152
0.210
0.060
0.019
-0.057
-0.124
-0.134
-0.004
0.062
-0.001
-0.000
-0.005
-0.140
-0.089
-0.051
0.147
0.127
-0.071
-0.113
-0.009
-0.070
0.062
-0.038
-0.078
-0.010
0.007
0.022
-0.087
0.114
0.081
-0.062
-0.024
-0.191
-0.098
0.068
-0.074
0.004
0.022
-0.030
-0.020
-0.018
-0.028
-0.093
-0.022
-0.053
0.010
0.084
0.063
-0.111
-0.028
-0.054
-0.001
0.081
-0.016
-0.032
-0.070
-0.090
-0.008
0.023
0.036
0.007
-0.106
-0.019
-0.031
-0.020
-0.070
-0.062
0.019
0.084
-0.048
0.038
-0.033
-0.108
-0.064
0.045
-0.039
-0.014
-0.063
0.025
0.037
-0.036
0.031
-0.041
-0.003
-0.042
0.005
-0.051
0.044
-0.135
-0.012
-0.022
-0.136
-0.026
0.060
0.019
0.014
-0.025
-0.097
-0.052
-0.069
0.031
0.092
0.013
-0.040
-0.052
0.014
-0.049
0.075
-0.009
-0.109
-0.044
-0.166
-0.114
0.007
0.090
0.077
-0.085
-0.087
0.003
0.019
-0.040
-0.075
-0.032
-0.070
-0.066
0.055
-0.075
-0.017
-0.040
-0.034
0.046
-0.027
-0.094
0.023
0.062
-0.068
0.003
-0.031
0.049
-0.041
-0.013
-0.068
-0.009
0.029
0.073
-0.009
-0.095
-0.013
-0.052
-0.063
-0.077
-0.017
-0.052
-0.011
0.091
-0.018
0.063
-0.061
-0.146
-0.076
-0.034
-0.038
0.042
0.021
0.001
0.022
-0.020
0.017
-0.095
0.000
-0.079
0.033
0.021
-0.012
-0.098
-0.041
-0.027
0.032
-0.131
-0.016
0.031
-0.022
0.044
-0.110
-0.037
-0.100
0.002
0.050
0.082
-0.130
-0.097
-0.105
-0.024
-0.051
0.074
0.097
0.011
-0.091
-0.116
-0.006
0.049
0.015
-0.020
-0.103
-0.099
0.112
-0.048
-0.087
0.041
-0.018
-0.008
-0.024
-0.146
-0.053
0.059
0.082
-0.069
0.013
-0.074
-0.096
-0.041
0.030
-0.015
-0.074
-0.010
-0.115
-0.004
-0.091
-0.021
0.051
-0.132
-0.022
-0.002
-0.125
0.022
0.087
-0.161
-0.055
-0.017
0.006
-0.061
-0.039
0.035
-0.024
-0.018
-0.029
-0.017
0.002
-0.044
-0.042
-0.049
0.030
-0.017
-0.123
-0.063
-0.117
0.000
0.080
-0.004
0.005
-0.025
-0.112
-0.025
-0.129
0.084
0.046
0.012
-0.016
-0.044
0.045
-0.021
-0.105
-0.016
-0.013
-0.123
-0.003
-0.033
-0.057
0.004
0.011
-0.011
0.017
0.026
-0.059
-0.077
-0.011
-0.015
0.019
-0.058
-0.086
0.093
0.007
-0.098
-0.066
0.042
-0.026
0.028
-0.083
-0.009
-0.090
-0.034
0.033
-0.070
-0.074
-0.034
-0.037
0.056
0.067
-0.034
-0.010
-0.008
-0.028
-0.111
0.005
0.027
0.049
0.026
-0.103
-0.050
-0.051
-0.014
-0.011
-0.040
-0.008
-0.053
0.013
-0.028
-0.022
0.068
-0.007
-0.028
-0.071
0.000
-0.055
-0.032
-0.089
-0.020
0.060
0.047
0.012
0.028
-0.136
0.040
0.062
-0.129
0.006
0.047
-0.141
0.021
-0.013
0.001
0.012
-0.128
-0.119
-0.014
0.008
0.003
-0.151
-0.037
0.015
-0.018
-0.088
-0.038
-0.036
-0.102
0.014
0.006
0.066
-0.044
-0.023
-0.052
0.011
0.129
-0.044
-0.038
-0.045
-0.056
0.015
-0.018
0.032
0.045
-0.063
-0.039
-0.061
0.032
-0.057
0.011
0.008
-0.092
-0.077
-0.036
0.061
-0.099
-0.097
-0.129
0.081
0.072
0.019
-0.029
-0.075
-0.127
-0.105
-0.009
0.031
-0.003
0.028
0.034
-0.057
-0.121
0.002
0.016
0.160
-0.004
-0.109
-0.024
-0.009
-0.094
-0.018
0.012
-0.119
0.097
-0.055
0.048
-0.046
-0.121
-0.094
0.016
-0.057
0.036
0.068
0.028
-0.055
0.002
-0.023
-0.093
-0.079
-0.036
0.020
0.003
-0.073
-0.090
0.029
-0.022
-0.091
-0.004
-0.069
-0.013
0.042
0.056
0.002
0.006
0.010
-0.042
-0.096
-0.024
0.084
-0.019
-0.063
-0.084
-0.023
-0.101
-0.002
-0.002
0.015
0.017
-0.070
-0.080
-0.070
-0.071
-0.051
0.033
-0.025
-0.109
-0.106
0.051
0.069
-0.093
0.008
-0.019
-0.028
-0.045
-0.112
-0.009
0.058
-0.004
-0.054
0.023
-0.050
0.029
-0.108
-0.071
0.008
-0.007
0.023
-0.023
0.037
-0.082
-0.066
0.005
-0.053
-0.033
-0.046
-0.010
-0.019
-0.117
0.022
-0.013
-0.041
0.052
0.025
-0.033
-0.062
-0.016
-0.057
-0.023
0.022
0.023
-0.050
-0.032
-0.058
-0.003
0.027
0.001
0.017
-0.055
0.043
-0.090
