-0.126
-0.025
-0.065
0.050
0.053
0.052
0.062
-0.020
0.092
-0.009
0.051
0.081
0.078
-0.143
0.172
-0.009
0.152
-0.066
-0.082
-0.091
-0.004
-0.040
-0.074
-0.022
0.026
0.047
-0.031
0.036
0.041
0.053
-0.090
0.015
-0.052
-0.038
0.269
0.165
0.072
0.049
-0.106
-0.134
-0.091
0.044
0.099
0.093
-0.003
0.032
0.037
0.057
0.049
-0.044
-0.013
0.171
-0.221
0.075
0.032
0.070
-0.045
0.079
0.013
-0.020
0.083
-0.064
0.162
0.033
0.059
0.019
0.029
-0.007
0.033
-0.016
0.036
0.075
0.016
-0.020
0.132
0.104
-0.048
0.038
-0.085
-0.002
0.030
0.098
-0.022
-0.021
0.087
-0.033
0.043
0.007
0.031
-0.014
0.170
-0.017
-0.121
0.021
0.093
0.180
0.014
-0.058
0.037
0.026
-0.094
0.083
0.046
-0.065
0.003
0.070
0.078
0.019
0.087
0.005
0.139
0.129
0.011
-0.079
-0.037
-0.006
0.079
0.116
0.127
-0.036
-0.061
0.098
-0.057
-0.030
-0.090
0.070
0.123
-0.042
-0.094
0.076
0.022
0.025
-0.095
0.031
0.055
0.004
0.026
0.061
-0.030
-0.011
0.086
-0.069
-0.191
0.401
0.194
0.114
-0.044
0.008
-0.068
-0.099
0.020
-0.009
0.183
0.012
0.068
0.001
0.062
-0.023
-0.083
-0.034
-0.088
0.037
-0.036
-0.049
-0.016
0.092
0.057
0.056
-0.111
0.116
0.217
0.066
-0.042
-0.002
-0.057
0.035
0.039
0.011
0.082
-0.077
-0.003
0.010
0.112
-0.068
0.022
-0.043
0.078
0.092
-0.003
-0.072
0.022
0.121
-0.061
-0.012
0.047
-0.007
0.072
0.011
-0.021
0.007
0.097
0.061
-0.081
-0.003
-0.096
0.097
-0.072
0.092
0.031
0.044
0.010
0.061
-0.050
0.026
-0.020
0.086
0.068
0.067
-0.070
0.088
0.023
0.096
-0.055
-0.063
-0.005
-0.019
0.184
0.001
-0.065
0.026
-0.105
0.018
0.066
0.142
0.079
-0.018
-0.085
0.075
0.033
-0.018
0.081
-0.032
0.000
0.200
0.017
0.121
0.019
-0.085
-0.004
0.128
0.082
0.117
-0.096
-0.046
-0.397
-0.015
0.341
0.184
0.068
0.150
-0.001
-0.159
-0.147
0.028
0.046
0.017
-0.074
-0.139
0.229
0.263
-0.040
-0.083
0.002
0.029
-0.551
-0.269
0.200
-0.809
-0.923
0.277
-2.741
-3.874
1.319
3.806
3.824
1.288
-0.654
-1.627
-1.464
-0.780
0.276
1.285
1.686
1.960
2.000
1.752
1.209
0.544
0.088
-0.301
-0.541
-0.781
-1.007
-0.858
-0.906
-0.788
-0.553
-0.355
-0.266
-0.139
-0.004
-0.045
0.060
0.019
0.113
0.140
-0.009
-0.389
0.333
0.415
0.347
0.405
0.077
0.065
0.164
0.153
0.277
0.356
0.191
0.340
0.219
0.279
0.436
0.359
0.323
0.096
0.156
0.122
0.028
0.123
0.162
0.148
0.109
0.164
0.170
0.099
0.051
0.112
0.133
0.120
0.016
0.073
0.155
0.042
-0.003
-0.044
-0.050
0.146
-0.001
-0.063
-0.145
-0.063
-0.184
-0.158
0.327
0.165
-0.172
-0.097
-0.159
-0.249
-0.243
-0.083
-0.047
0.099
-0.049
0.030
-0.099
-0.170
-0.258
-0.102
-0.057
0.039
0.006
0.012
-0.209
-0.074
0.012
0.024
-0.037
-0.038
-0.045
-0.001
0.000
-0.078
-0.063
-0.029
-0.022
0.025
0.092
-0.065
0.055
0.040
0.102
0.070
-0.017
0.020
-0.097
-0.012
0.209
0.189
0.050
-0.029
-0.031
-0.030
-0.049
0.047
-0.050
-0.041
0.183
-0.050
0.028
-0.052
-0.149
-0.093
0.105
-0.030
0.089
0.066
0.067
-0.116
0.003
0.029
0.015
0.101
0.074
-0.080
-0.025
0.067
0.118
0.050
0.004
0.088
0.136
0.049
-0.017
0.043
-0.097
0.046
0.027
0.005
0.083
0.022
-0.020
-0.139
-0.199
-0.187
-0.233
-0.361
-0.597
-0.888
-1.052
-1.080
-0.950
-0.550
-1.184
-0.909
0.143
0.718
1.266
1.434
0.974
0.659
0.404
0.594
0.848
1.064
1.350
1.460
1.286
0.972
0.718
0.262
-0.204
-0.489
-0.828
-0.548
-0.586
-0.742
-0.804
-0.829
-0.740
-0.741
-0.291
-0.117
-0.098
-0.068
-0.074
-0.108
-0.111
-0.103
0.004
-0.147
0.057
0.010
-0.070
0.034
0.126
0.089
0.180
0.165
0.047
0.225
0.259
0.158
0.387
0.261
0.200
0.243
0.148
0.223
0.306
0.261
0.235
0.276
0.356
0.264
0.176
0.263
0.172
0.182
0.056
0.234
0.070
0.240
0.198
0.113
0.023
-0.024
0.054
0.175
0.132
0.098
-0.074
0.004
-0.066
-0.013
0.006
0.033
0.055
-0.053
-0.142
-0.040
-0.006
-0.138
-0.088
-0.040
-0.125
0.023
-0.015
-0.189
-0.122
-0.115
-0.107
-0.075
-0.016
-0.119
0.032
-0.089
-0.149
-0.015
0.037
-0.189
-0.108
0.037
0.080
0.135
0.057
-0.090
-0.120
-0.166
-0.270
0.439
0.254
0.179
-0.026
-0.054
-0.059
-0.015
0.048
0.021
0.078
0.119
0.127
0.074
-0.039
0.015
0.024
-0.065
0.007
-0.265
0.002
0.113
-0.135
-0.232
-0.019
0.007
0.022
0.132
0.062
-0.133
0.026
0.081
-0.056
-0.447
-1.201
-0.114
0.593
0.524
0.221
-0.188
-0.531
-0.863
-2.052
-1.454
0.380
0.678
0.357
-0.336
-0.851
-0.829
-0.658
-0.201
-0.375
-0.836
-0.276
-0.353
-0.131
1.035
1.114
0.536
-0.031
0.044
0.339
0.842
0.701
0.723
0.747
0.460
0.225
0.310
0.230
0.162
-0.011
-0.087
-0.107
-0.165
-0.585
-0.560
-0.472
-0.273
-0.438
-0.332
-0.313
-0.326
-0.235
-0.214
-0.322
-0.154
0.093
0.256
0.151
0.223
-0.004
0.089
-0.018
0.121
0.025
0.053
0.086
0.190
0.186
0.180
0.359
0.246
0.172
0.334
0.253
0.234
0.292
0.350
0.488
0.351
0.246
0.481
0.412
0.432
0.428
0.283
0.433
0.392
0.266
0.124
0.448
0.708
0.535
0.384
0.254
0.133
0.033
0.198
0.262
0.263
0.068
0.155
0.075
0.106
0.101
0.029
-0.002
0.034
0.010
-0.067
0.047
0.049
0.032
-0.012
-0.161
0.156
-0.029
-0.048
-0.086
0.093
0.077
-0.005
-0.009
-0.032
-0.159
0.038
0.046
0.060
0.057
-0.046
-0.053
-0.142
-0.007
0.010
-0.057
-0.154
0.104
0.002
0.128
-0.004
-0.159
-0.009
-0.130
0.083
-0.024
-0.057
-0.074
0.001
0.018
0.011
-0.092
-0.105
0.077
-0.016
-0.043
-0.116
-0.138
0.009
-0.038
-0.113
0.049
-0.020
-0.076
-0.076
-0.043
-0.011
-0.013
-0.106
-0.155
0.002
-0.026
0.006
-0.032
-0.128
0.075
0.051
-0.054
-0.107
0.016
0.079
-0.004
-0.019
-0.010
-0.029
0.050
-0.039
0.074
0.299
0.163
0.085
-0.029
-0.073
-0.021
-0.102
-0.054
0.095
0.262
0.190
0.134
0.007
0.189
0.084
-0.177
0.009
0.081
0.028
0.142
0.043
0.012
-0.025
0.075
0.107
0.183
0.167
-0.129
-0.018
0.101
0.205
0.144
0.106
-0.072
0.092
0.037
0.123
0.046
0.048
0.060
0.016
0.001
0.086
-0.019
0.045
-0.088
-0.056
0.030
-0.090
-0.056
-0.001
0.070
-0.032
0.022
-0.135
-0.062
-0.004
-0.133
-0.045
-0.004
0.066
-0.081
0.017
-0.099
0.122
-0.016
-0.051
-0.027
0.064
0.012
-0.141
0.017
-0.038
0.051
-0.041
0.034
0.105
-0.020
-0.044
0.058
-0.002
-0.004
0.006
-0.025
-0.038
0.048
0.081
-0.078
0.178
-0.029
0.112
0.076
0.043
0.075
0.008
0.028
0.035
-0.041
0.219
-0.008
0.114
0.014
0.002
0.224
0.175
0.034
-0.170
-0.041
0.128
0.091
0.012
-0.077
-0.008
0.046
0.146
0.142
0.014
-0.187
-0.306
0.231
0.295
0.259
0.045
-0.103
-0.081
-0.031
-0.009
0.069
-0.003
0.070
0.068
0.102
-0.001
-0.134
0.046
-0.066
0.043
-0.047
0.046
0.009
0.003
0.013
-0.021
-0.013
0.071
0.004
-0.048
0.048
0.087
0.009
-0.059
0.007
-0.059
-0.013
0.039
0.058
-0.013
-0.045
0.009
0.001
0.048
0.053
0.001
0.034
0.029
0.017
0.055
-0.002
-0.005
0.070
0.063
-0.024
0.012
-0.010
-0.034
0.054
-0.023
0.036
0.038
-0.012
0.130
0.037
-0.051
-0.091
0.074
0.131
-0.004
0.188
-0.049
-0.101
0.065
-0.057
-0.098
0.145
0.114
0.074
-0.040
0.140
-0.145
0.018
0.023
0.005
0.048
0.184
0.117
-0.096
-0.046
-0.036
-0.011
0.060
0.011
0.175
-0.084
0.034
0.003
0.092
0.010
-0.088
0.008
-0.001
0.095
-0.085
0.038
0.106
0.048
0.129
-0.069
-0.010
-0.029
0.038
-0.032
0.054
-0.070
0.000
0.040
0.021
-0.023
-0.160
0.166
0.085
0.101
0.083
0.027
-0.087
-0.079
0.004
0.024
0.062
-0.010
0.133
-0.025
0.103
-0.013
-0.074
-0.076
0.020
0.036
-0.036
0.006
0.042
0.022
-0.024
0.005
0.043
0.104
0.048
-0.041
0.023
-0.081
0.065
0.070
-0.000
-0.177
0.096
0.106
0.133
0.064
-0.015
-0.090
-0.020
0.091
0.075
-0.017
0.073
-0.037
0.191
0.025
-0.041
-0.013
0.020
-0.056
0.076
0.079
-0.060
0.033
0.043
-0.058
0.059
0.093
0.056
0.016
-0.103
-0.066
-0.016
0.026
0.120
-0.021
0.081
0.111
-0.088
-0.024
0.074
0.001
0.051
0.040
-0.084
0.079
-0.087
0.043
0.007
0.087
0.062
-0.032
0.083
0.083
0.041
0.044
0.061
0.088
0.018
-0.072
0.049
-0.109
0.062
-0.003
0.015
0.119
0.024
-0.000
-0.034
-0.060
0.018
-0.061
0.022
0.079
0.118
0.002
-0.021
0.005
-0.388
0.126
0.116
0.261
0.130
0.111
-0.141
-0.069
-0.062
0.079
0.033
0.144
0.067
0.057
-0.040
0.007
0.059
0.114
-0.126
-0.095
-0.054
0.058
0.014
0.093
0.032
-0.082
0.011
0.080
0.113
0.096
0.041
0.004
0.048
0.062
0.045
-0.072
0.032
-0.106
-0.032
0.008
-0.107
0.099
-0.051
0.044
0.068
0.035
0.109
0.095
-0.088
0.027
0.086
0.172
0.019
-0.067
-0.026
0.083
-0.011
-0.022
0.066
0.037
0.039
-0.109
0.057
-0.023
0.014
-0.073
0.009
-0.088
0.166
0.067
-0.027
0.027
0.021
0.087
-0.038
0.026
0.030
0.030
0.037
-0.056
0.051
-0.006
-0.026
-0.010
0.136
0.058
-0.126
0.015
0.102
0.176
0.055
-0.021
-0.000
0.016
0.022
0.093
0.076
0.064
-0.025
-0.015
0.020
-0.017
0.006
0.018
0.066
-0.051
0.074
-0.033
0.034
-0.045
-0.001
0.007
0.146
-0.010
0.039
0.156
0.016
-0.004
0.022
0.038
0.103
0.052
0.024
-0.020
0.033
-0.022
0.029
-0.019
0.003
0.077
0.066
-0.065
0.037
-0.125
0.047
0.054
0.112
-0.012
0.000
0.044
0.074
0.023
-0.282
0.074
0.305
0.240
0.036
-0.023
-0.112
-0.079
0.052
0.068
0.066
0.099
0.052
-0.002
-0.028
-0.021
0.076
-0.078
0.062
-0.006
-0.036
0.097
0.006
-0.130
0.052
0.156
-0.026
-0.176
-0.081
0.059
0.085
0.066
0.017
0.078
-0.080
-0.013
0.066
0.021
-0.076
-0.156
0.118
0.093
0.197
0.003
-0.020
-0.060
-0.063
-0.056
0.135
0.043
-0.011
0.064
0.036
0.105
0.046
0.103
0.056
-0.010
-0.049
-0.022
-0.043
0.005
0.046
0.028
-0.086
0.053
-0.048
0.084
0.011
-0.065
0.027
0.051
0.084
0.062
0.022
-0.042
-0.059
0.120
0.086
-0.038
-0.036
0.041
0.054
0.178
0.022
-0.102
-0.024
0.035
0.053
0.032
-0.032
0.098
-0.055
0.069
-0.025
0.060
0.039
0.025
-0.078
0.087
0.061
0.122
-0.134
-0.022
-0.103
0.050
0.018
0.006
-0.055
-0.186
-0.211
-0.252
-0.232
-0.236
-0.565
-1.089
-0.707
-0.241
0.025
-0.595
-0.595
-0.589
-0.532
-0.142
-0.013
0.471
0.833
1.248
1.213
0.816
0.646
0.492
0.613
0.490
0.635
1.029
0.860
0.635
0.276
-0.007
-0.195
-0.352
-0.567
-0.620
-0.535
-0.584
-0.459
-0.492
-0.396
-0.393
-0.324
-0.246
-0.126
-0.092
-0.054
0.023
-0.096
0.025
0.055
0.022
0.048
0.137
0.060
0.112
0.166
0.143
0.113
0.130
0.118
0.167
0.281
0.141
0.202
0.145
0.248
0.315
0.391
0.207
0.225
0.318
0.119
0.131
0.236
0.217
0.346
0.271
0.221
0.173
0.154
0.022
-0.002
0.144
0.116
0.104
0.060
-0.060
-0.019
0.051
-0.059
0.011
0.004
-0.074
-0.187
0.043
0.063
-0.037
0.060
-0.165
-0.060
-0.012
-0.097
-0.073
-0.012
0.018
-0.203
-0.080
-0.132
-0.133
0.015
-0.044
-0.117
-0.079
-0.248
-0.132
0.035
0.085
-0.010
-0.015
0.016
0.038
-0.012
-0.101
0.119
-0.007
-0.042
0.040
0.033
0.082
0.044
0.019
-0.043
0.112
0.047
-0.040
0.104
0.005
0.065
0.110
0.049
0.290
-0.179
0.001
-0.079
0.006
0.102
-0.026
-0.025
0.046
0.032
-0.047
-0.032
0.025
-0.016
-0.013
0.009
-0.013
-0.016
-0.090
0.015
0.046
-0.008
0.036
-0.001
-0.076
-0.099
0.068
-0.153
-0.110
-0.024
0.001
-0.031
-0.064
-0.152
-0.128
-0.204
-0.311
-0.283
-0.504
-0.156
-0.114
-0.330
-0.437
-0.374
-0.564
-0.211
0.058
-0.258
-0.138
0.174
0.026
0.102
0.296
-0.115
-0.998
-0.452
-0.081
-0.142
0.150
0.333
0.340
0.474
0.511
0.154
-0.067
-0.114
-0.027
0.052
-0.290
-0.240
0.287
0.358
0.385
0.212
-0.037
-0.523
-0.572
-0.554
-0.087
0.218
0.154
-0.001
0.128
-0.048
-0.057
0.058
0.202
0.228
0.428
0.354
0.449
0.159
0.186
0.266
0.063
0.088
-0.082
-0.040
-0.037
0.043
-0.041
0.043
0.005
-0.134
0.029
0.077
0.053
0.131
0.103
0.269
0.176
0.099
0.206
0.175
0.394
0.358
0.285
0.266
0.339
0.379
0.419
0.218
0.313
0.301
0.332
0.454
0.404
0.305
0.197
0.263
0.245
0.251
0.185
0.323
0.197
0.227
0.150
0.174
0.226
0.140
-0.071
0.063
0.037
0.059
0.039
0.013
-0.004
-0.118
0.016
-0.199
0.065
0.117
-0.102
-0.086
-0.178
-0.128
-0.128
-0.204
-0.227
0.018
0.047
-0.153
-0.206
-0.151
-0.087
-0.205
-0.188
-0.134
-0.158
-0.131
-0.029
-0.064
-0.223
-0.261
-0.104
-0.185
-0.225
0.272
0.152
-0.008
-0.110
-0.083
-0.097
-0.129
0.015
0.050
-0.043
0.046
0.150
0.055
-0.016
-0.151
0.021
-0.112
-0.045
0.088
-0.013
0.004
0.000
0.192
0.037
0.094
0.066
-0.069
0.094
0.084
0.002
0.102
0.059
0.062
0.026
0.012
0.043
-0.025
0.045
0.012
0.080
0.122
0.026
-0.027
0.146
0.043
0.039
0.056
0.046
0.094
0.044
-0.036
0.095
0.063
0.099
0.052
0.023
0.077
0.079
0.023
0.052
-0.009
-0.054
-0.096
0.108
0.122
0.051
0.139
-0.002
-0.065
0.055
0.093
0.106
0.213
0.032
0.090
-0.117
-0.042
0.048
0.133
0.020
0.037
-0.063
-0.019
0.167
0.029
-0.056
-0.004
-0.032
0.065
0.041
-0.039
0.020
-0.045
-0.056
-0.004
-0.025
-0.003
-0.016
-0.030
-0.108
-0.049
-0.080
-0.054
-0.037
0.018
0.006
-0.034
0.038
0.041
-0.103
-0.102
-0.003
0.020
0.137
-0.127
0.026
0.059
-0.072
0.088
-0.167
0.019
0.054
-0.086
-0.011
-0.051
0.036
0.204
0.139
-0.025
-0.015
0.008
0.036
0.053
0.040
0.059
0.023
-0.002
0.030
0.006
0.035
-0.099
-0.033
0.305
0.324
-0.006
0.062
-0.022
-0.128
0.183
0.029
0.152
0.029
0.100
0.167
-0.036
0.091
-0.204
0.030
0.227
0.050
-0.025
-0.009
0.021
-0.045
0.031
0.049
0.051
-0.016
0.187
-0.010
0.080
-0.006
-0.074
0.050
0.097
-0.042
-0.014
0.024
-0.111
0.070
-0.067
0.047
0.071
-0.041
0.027
-0.031
0.025
-0.012
-0.045
0.075
-0.033
0.031
0.052
-0.034
-0.068
0.017
-0.081
-0.042
-0.030
0.095
-0.092
0.092
-0.038
0.017
-0.039
-0.027
0.042
-0.007
0.023
0.062
0.079
-0.112
0.022
-0.010
0.028
0.121
0.061
0.112
-0.075
-0.019
-0.035
0.076
0.053
-0.004
-0.030
0.096
0.015
0.108
0.053
0.024
-0.043
0.094
-0.044
-0.008
0.008
0.101
-0.095
0.025
0.172
0.071
0.092
0.028
0.053
0.088
-0.044
0.025
0.083
0.150
0.030
0.075
-0.041
-0.106
0.039
-0.012
-0.001
-0.051
0.019
-0.009
0.041
-0.026
0.149
0.046
-0.009
0.071
-0.120
0.065
-0.057
0.111
-0.045
-0.058
0.027
0.023
-0.004
-0.096
0.018
-0.007
0.129
-0.029
0.022
0.044
0.015
-0.086
-0.062
-0.082
0.084
0.138
-0.072
-0.022
0.017
-0.115
-0.050
-0.113
-0.156
0.326
0.365
-0.007
0.056
0.040
-0.147
-0.044
-0.054
0.018
0.015
0.096
0.048
0.040
-0.041
0.033
-0.061
-0.069
-0.148
0.059
0.074
0.066
0.018
0.018
0.022
0.016
0.114
-0.076
-0.034
0.103
0.095
0.086
0.063
-0.021
0.032
0.049
0.144
-0.181
-0.016
0.083
-0.072
0.078
0.151
-0.024
-0.038
0.088
-0.009
0.007
-0.044
-0.004
0.079
0.048
0.020
0.194
0.059
0.051
0.006
-0.071
0.005
0.061
-0.090
0.052
0.029
-0.025
-0.054
-0.009
0.011
0.025
0.098
0.034
-0.069
0.018
-0.053
0.191
-0.021
0.010
0.048
0.055
-0.017
0.104
-0.033
0.059
-0.001
0.121
-0.030
0.008
-0.066
0.067
0.054
0.098
0.015
-0.058
0.021
0.080
-0.030
0.042
-0.030
0.036
-0.064
0.021
-0.073
-0.074
-0.083
0.100
0.046
-0.019
-0.078
0.074
0.004
0.053
0.021
-0.126
0.036
0.084
-0.069
-0.024
0.070
0.069
-0.069
-0.035
0.106
0.033
-0.031
0.040
-0.016
-0.231
0.202
0.304
0.147
0.009
-0.030
-0.069
-0.080
0.122
-0.042
0.003
-0.051
0.075
-0.045
-0.054
0.019
0.071
-0.091
-0.093
0.045
0.112
0.214
-0.068
-0.144
-0.006
-0.018
0.023
0.105
-0.003
0.009
0.121
0.107
0.056
0.081
-0.070
-0.097
-0.071
0.024
0.080
0.103
-0.112
0.064
0.014
-0.081
-1.951
-0.913
-0.656
1.057
1.325
0.699
0.185
-0.295
-0.329
-0.309
-0.017
0.171
0.320
0.458
0.650
0.502
0.303
0.249
0.091
-0.054
-0.033
-0.208
-0.217
-0.257
-0.202
-0.161
-0.112
-0.093
-0.074
-0.084
0.020
-0.079
0.089
0.083
0.012
-0.094
-0.037
0.037
0.016
-0.084
0.136
0.049
0.101
-0.093
0.048
0.131
-0.068
-0.134
-0.106
-0.016
0.047
0.133
0.055
-0.083
0.068
0.109
0.049
0.174
0.029
0.015
0.102
0.126
0.021
0.117
0.168
0.089
0.010
0.012
0.057
0.051
0.029
0.063
-0.047
-0.051
-0.122
-0.017
0.154
0.212
0.018
-0.100
0.028
0.017
0.001
-0.025
-0.001
0.064
-0.022
-0.014
-0.035
-0.072
-0.139
-0.243
0.156
0.299
0.139
0.067
0.021
-0.132
-0.087
-0.150
-0.048
0.057
0.149
-0.073
0.063
-0.062
0.038
-0.121
-0.011
0.026
-0.012
-0.026
0.074
0.006
-0.003
-0.042
0.078
0.000
0.007
0.017
0.077
0.141
0.016
-0.056
0.101
0.024
-0.009
0.056
-0.053
0.118
-0.021
0.073
0.021
0.023
0.082
-0.008
0.087
-0.021
0.002
0.012
0.146
-0.080
0.074
0.141
0.045
-0.016
-0.079
-0.063
0.061
-0.002
0.128
0.055
-0.000
0.094
-0.059
-0.147
0.032
-0.044
-0.144
-0.296
-0.415
-1.635
-1.347
-0.449
-0.007
0.142
-0.238
-0.775
-1.070
-1.323
-2.346
-1.406
1.377
2.943
2.384
1.347
0.486
0.220
0.320
0.603
0.927
1.320
1.283
1.111
1.087
0.675
0.306
-0.161
-0.318
-0.694
-0.791
-0.896
-0.926
-0.816
-0.760
-0.603
-0.524
-0.380
-0.205
-0.128
-0.174
-0.060
0.010
-0.069
-0.014
-0.056
-0.018
0.044
0.171
-0.016
0.084
0.054
0.155
0.073
-0.175
-0.028
0.271
0.222
0.290
0.287
0.313
0.356
0.110
0.217
0.288
0.308
0.266
0.231
0.061
0.636
0.644
0.419
0.211
0.158
-0.050
0.180
0.184
0.157
0.192
0.101
0.050
-0.008
0.053
0.028
-0.035
-0.040
-0.121
0.026
-0.080
-0.006
-0.003
-0.086
-0.139
-0.100
0.047
0.068
-0.179
-0.070
0.006
-0.297
-0.121
0.010
-0.088
0.020
-0.009
0.055
-0.081
-0.185
-0.158
-0.074
-0.060
-0.027
0.008
-0.002
0.008
-0.044
-0.009
0.068
-0.041
-0.094
-0.076
0.070
-0.055
0.081
-0.005
-0.033
0.023
-0.134
0.120
0.065
0.189
0.083
-0.115
-0.041
0.077
0.109
0.022
0.087
0.069
0.057
-0.081
-0.047
0.100
0.011
0.016
0.028
-0.029
0.023
0.082
0.044
0.168
-0.016
-0.108
0.010
-0.028
0.048
0.014
-0.018
0.028
-0.024
0.052
0.015
-0.066
-0.037
0.050
-0.052
-0.049
-0.073
-0.095
-0.051
-0.081
-0.036
-0.098
0.041
-0.240
-0.204
-0.299
-0.058
-0.078
-0.182
-0.185
-0.360
-0.526
-0.233
-0.253
-0.130
-0.175
-0.208
-0.288
-0.224
0.041
0.401
0.149
0.146
0.040
-0.014
-0.000
0.174
0.268
0.106
0.205
0.139
0.206
0.085
0.062
-0.043
-0.277
-0.061
0.232
0.048
-0.132
-0.326
-0.334
-0.233
-0.137
-0.194
0.196
-0.028
-0.120
-0.135
-0.085
-0.034
-0.285
-0.185
0.039
0.096
-0.044
-0.226
-0.089
0.111
0.196
0.399
0.205
0.126
0.146
0.024
-0.013
0.364
0.152
0.147
0.234
-0.024
0.147
0.260
0.215
0.241
0.238
0.089
0.080
-0.001
0.133
0.142
0.249
0.213
0.071
0.280
0.117
0.206
0.089
0.178
0.164
0.233
0.150
0.145
0.182
0.150
0.130
0.152
0.233
0.189
0.137
0.257
0.339
0.156
0.201
0.174
-0.007
0.203
0.258
0.136
0.316
0.114
0.156
0.232
0.065
0.094
0.017
0.038
0.087
0.155
0.051
0.011
-0.032
0.009
-0.029
0.009
-0.081
-0.058
-0.027
0.006
-0.047
-0.077
-0.068
-0.179
-0.116
-0.062
0.012
-0.144
-0.046
0.061
-0.082
-0.130
-0.164
-0.097
-0.299
-0.201
0.296
0.174
-0.025
0.020
-0.232
-0.127
-0.118
-0.054
-0.077
0.014
0.018
-0.106
0.024
-0.011
0.011
-0.099
-0.015
-0.076
0.053
-0.110
-0.002
-0.004
0.060
0.091
0.004
0.072
0.054
0.091
-0.024
0.016
-0.072
0.158
0.084
-0.004
0.219
0.110
-0.095
-0.008
-0.042
0.077
-0.004
0.132
0.084
0.056
0.058
0.065
0.051
-0.022
0.053
0.069
-0.073
-0.019
-0.059
0.122
0.159
0.095
-0.035
0.014
0.086
0.068
0.103
-0.101
0.022
0.110
0.056
-0.030
-0.027
0.124
0.074
0.105
-0.099
0.072
-0.087
0.076
0.211
-0.057
-0.066
0.060
0.053
-0.036
0.067
0.087
-0.046
0.028
-0.073
0.002
-0.013
0.128
-0.104
-0.124
0.229
0.101
0.032
-0.010
-0.160
0.020
-0.111
-0.024
0.047
-0.052
0.101
-0.121
-0.033
0.129
-0.141
0.115
-0.049
-0.076
-0.026
-0.093
0.108
-0.067
-0.035
0.021
0.138
-0.026
-0.069
0.038
0.065
-0.029
-0.107
0.049
-0.023
0.017
-0.052
0.124
-0.044
-0.125
-0.194
-0.054
0.365
0.201
0.083
0.064
-0.135
-0.184
0.040
0.086
0.054
0.144
0.045
0.044
0.025
0.112
-0.006
0.043
0.140
-0.040
0.095
-0.035
0.117
0.046
0.074
0.006
0.067
0.169
0.073
-0.063
-0.051
0.061
-0.049
0.075
-0.027
-0.054
0.123
0.055
0.064
-0.007
0.034
0.003
0.053
-0.053
0.011
0.015
0.179
0.010
-0.107
-0.044
0.036
0.068
-0.131
0.046
0.211
0.146
-0.039
0.013
-0.162
-0.131
-0.001
0.137
0.047
-0.164
0.067
0.013
0.055
0.101
-0.003
-0.044
-0.067
-0.101
-0.005
0.063
-0.101
0.114
-0.045
-0.052
0.057
-0.009
0.044
0.014
0.057
-0.039
0.000
0.090
-0.007
-0.042
-0.068
0.046
0.129
-0.017
0.062
-0.053
-0.103
0.123
-0.024
-0.017
0.096
0.038
-0.014
0.081
-0.038
0.025
0.145
-0.010
-0.020
0.091
-0.026
0.063
-0.027
0.033
0.193
0.066
-0.020
0.014
0.020
-0.042
0.062
0.015
0.049
0.094
0.093
0.013
-0.044
0.037
-0.022
0.023
0.011
0.044
0.048
0.089
0.085
0.043
0.095
-0.039
0.010
-0.114
0.034
0.340
0.182
-0.099
0.038
-0.154
0.046
-0.110
0.016
0.217
-0.035
0.065
0.012
0.025
-0.036
-0.006
-0.094
0.081
0.023
-0.067
0.121
-0.051
-0.027
0.035
0.026
-0.008
0.024
-0.030
0.100
-0.114
0.224
0.039
0.079
0.039
-0.035
0.068
-0.057
-0.079
0.000
-0.066
0.061
-0.020
-0.065
-0.132
-0.051
0.169
0.187
0.154
0.033
0.044
-0.030
-0.177
0.202
0.037
0.079
0.019
0.130
-0.110
0.045
0.101
0.042
-0.009
0.041
0.035
-0.106
0.016
-0.069
-0.073
0.052
0.142
0.024
-0.106
0.047
0.043
0.088
0.000
-0.026
-0.069
0.054
0.123
0.035
-0.016
0.024
-0.020
0.017
0.081
0.045
-0.020
0.090
0.020
0.095
0.018
0.015
0.127
0.002
0.077
-0.087
-0.013
-0.138
0.107
0.172
0.097
0.008
0.004
-0.003
-0.021
-0.058
-0.060
-0.016
-0.169
0.236
0.052
0.124
-0.112
-0.295
0.172
0.256
0.223
0.019
-0.145
-0.159
-0.036
0.001
0.091
0.173
0.131
-0.098
0.016
-0.025
-0.004
-0.001
0.040
-0.028
-0.007
-0.069
0.004
0.043
-0.041
0.006
-0.052
0.001
0.106
-0.003
0.058
0.112
0.053
0.104
-0.046
0.076
-0.038
0.060
0.068
0.151
0.007
-0.036
-0.198
-0.005
0.154
-0.050
0.083
0.080
-0.067
-0.048
-0.014
0.067
0.125
-0.045
-0.034
0.075
-0.003
-0.129
-0.015
0.086
-0.077
0.084
0.099
-0.063
0.047
0.043
-0.022
0.060
-0.034
0.015
-0.059
0.015
0.088
0.032
0.103
-0.039
0.046
-0.123
-0.002
-0.009
0.100
0.067
-0.023
0.056
0.061
-0.123
-0.056
0.036
0.206
-0.046
0.048
-0.044
0.062
0.055
-0.015
0.024
-0.089
0.133
-0.054
0.016
0.056
-0.071
0.121
-0.049
0.061
0.014
0.096
-0.070
0.028
0.016
-0.001
0.003
-0.011
0.207
-0.081
-0.053
-0.104
-0.061
-0.070
0.068
-0.010
0.041
-0.022
-0.030
-0.011
-0.008
-0.063
-0.313
0.217
0.411
0.209
-0.014
0.099
-0.091
-0.086
-0.029
0.062
0.041
0.087
0.135
-0.025
0.051
0.015
-0.073
-0.078
0.072
0.028
0.034
0.037
0.026
0.034
-0.021
0.010
0.114
-0.097
0.089
0.082
0.025
0.058
0.053
-0.031
-0.072
0.079
-0.041
0.006
-0.058
0.043
0.110
-0.101
0.044
0.006
-0.092
0.030
-0.004
-0.031
0.078
0.161
0.148
0.064
-0.085
0.019
-0.235
-0.007
0.129
0.219
0.026
-0.020
-0.029
0.016
0.013
-0.040
-0.099
0.110
0.141
-0.074
-0.063
-0.008
0.054
0.067
-0.064
-0.041
0.040
0.178
0.098
-0.002
-0.083
-0.056
0.033
-0.001
0.056
0.010
0.001
-0.057
0.019
0.091
0.127
0.020
-0.034
-0.110
0.057
0.084
-0.122
0.039
-0.014
-0.037
0.124
0.059
-0.011
-0.057
-0.050
-0.007
-0.092
-0.033
-0.017
0.050
-0.116
-0.159
-0.132
-0.048
-0.118
-0.154
-0.255
-0.235
-0.516
-0.519
-0.546
-0.327
-0.331
-0.657
-0.786
-0.387
-0.778
-0.464
-0.394
-1.707
-3.067
-1.030
2.410
3.799
2.874
1.292
0.031
-0.166
0.033
0.674
1.041
1.653
1.664
1.481
1.261
0.939
0.240
-0.134
-0.458
-0.664
-0.979
-1.001
-1.108
-1.092
-1.014
-0.741
-0.599
-0.335
-0.343
-0.164
-0.151
-0.083
0.049
0.005
0.102
-0.025
0.019
0.055
0.071
0.142
0.231
0.156
0.210
0.239
0.259
0.216
0.257
0.451
0.313
0.241
0.292
0.369
0.450
0.327
0.386
0.316
0.357
0.254
0.393
0.397
0.289
0.242
0.366
0.263
0.228
0.191
0.238
0.241
0.107
0.136
0.124
0.107
0.045
0.042
0.005
-0.039
-0.052
0.060
-0.032
-0.063
-0.051
-0.240
0.020
-0.146
-0.205
-0.236
-0.094
-0.049
-0.092
-0.185
-0.148
-0.109
0.009
-0.242
-0.117
-0.198
-0.232
-0.058
-0.061
-0.123
-0.013
-0.118
-0.123
-0.115
-0.141
0.010
0.054
0.086
-0.177
0.024
0.047
-0.001
0.063
-0.042
-0.099
0.006
-0.022
0.000
0.054
0.002
0.130
0.104
0.095
-0.124
-0.254
0.186
0.419
0.119
-0.044
0.017
-0.006
-0.068
-0.106
0.092
0.107
0.158
0.098
0.114
-0.093
-0.081
0.056
-0.019
-0.071
0.078
0.089
-0.033
-0.068
-0.102
0.048
0.053
-0.089
-0.061
0.015
-0.011
-0.119
-0.285
-0.114
-0.052
-0.222
-0.192
-0.353
-0.355
-0.391
-0.291
-0.300
-0.289
-0.581
-0.614
-0.075
-0.305
-0.189
-0.205
-0.277
-0.179
0.083
0.231
0.119
0.140
0.250
0.355
0.232
0.286
0.395
0.515
0.303
0.036
0.051
-0.044
-0.004
0.222
-0.033
-0.053
-0.177
-0.196
-0.093
-0.291
-0.330
-0.254
-0.255
-0.292
-0.042
-0.031
-0.147
0.039
-0.053
-0.084
-0.102
0.207
0.109
-0.025
0.014
0.023
0.148
0.166
0.043
0.169
0.250
0.052
-0.211
-0.235
0.282
0.546
0.273
0.171
0.107
-0.021
0.138
0.172
0.206
0.236
0.296
0.204
0.227
0.194
0.106
0.251
0.164
0.276
0.071
0.294
0.244
0.147
0.060
0.125
0.317
0.228
0.262
0.159
0.233
0.295
0.248
0.155
0.219
0.167
0.260
0.208
0.161
0.179
0.277
0.308
0.256
0.109
0.224
0.084
0.100
0.166
0.121
0.209
0.083
0.134
-0.025
0.099
0.064
0.128
0.012
-0.095
0.018
0.084
-0.119
-0.085
-0.019
-0.003
-0.204
-0.187
0.058
-0.016
-0.010
-0.087
-0.114
-0.133
-0.078
-0.076
-0.064
-0.228
0.017
-0.098
0.087
-0.115
-0.032
-0.091
-0.217
-0.215
-0.071
-0.043
0.021
-0.050
-0.032
-0.040
-0.118
-0.085
-0.136
0.018
-0.072
0.063
-0.054
-0.060
-0.185
0.081
-0.031
-0.032
0.089
-0.010
-0.032
-0.064
-0.396
0.192
0.319
0.118
0.222
0.071
-0.062
-0.121
0.026
-0.001
0.095
-0.021
0.118
0.117
0.056
-0.028
0.107
0.008
-0.046
0.041
0.036
0.077
0.025
0.069
0.000
0.187
0.029
0.042
-0.117
0.192
0.078
0.081
0.094
0.135
0.001
0.070
0.073
0.017
0.041
0.093
-0.012
0.110
-0.043
0.022
0.010
-0.017
0.122
0.181
0.071
0.029
0.006
0.085
-0.123
0.065
0.014
-0.026
-0.004
0.038
0.006
0.140
0.067
-0.023
-0.077
-0.098
-0.017
-0.005
-0.034
0.104
-0.111
0.081
-0.165
-0.002
0.069
0.014
-0.089
-0.060
0.041
-0.057
-0.053
0.030
0.007
-0.015
-0.105
0.066
0.091
-0.017
-0.088
0.033
0.009
0.008
-0.030
-0.032
0.003
-0.089
-0.069
-0.076
0.058
0.056
-0.014
-0.030
-0.233
-0.102
0.372
0.235
0.111
-0.015
-0.140
-0.008
-0.035
-0.115
0.200
0.119
0.076
-0.046
0.107
0.015
-0.054
-0.069
0.093
-0.010
-0.076
-0.004
-0.010
0.042
0.085
0.026
0.053
0.007
-0.034
-0.006
0.043
0.224
-0.019
0.086
0.138
0.029
0.032
0.107
0.059
-0.052
-0.059
0.044
0.085
0.079
-0.011
0.078
0.116
0.091
-0.146
-0.076
0.016
-0.010
0.010
0.036
0.090
-0.064
-0.032
0.030
0.122
0.046
-0.036
-0.081
-0.069
-0.073
0.097
-0.054
0.012
0.018
0.046
-0.026
0.057
-0.134
-0.167
-0.045
-0.066
0.032
0.164
0.068
-0.151
-0.001
-0.011
-0.013
-0.041
0.013
0.045
-0.011
-0.056
0.070
0.008
0.060
0.046
0.036
0.046
0.029
-0.024
-0.059
0.048
-0.006
0.042
0.031
-0.020
0.051
0.113
-0.035
0.068
0.079
0.058
-0.010
-0.003
-0.091
0.040
0.019
0.079
0.053
-0.053
0.022
-0.037
-0.044
-0.067
-0.013
-0.058
0.108
0.280
0.209
0.026
0.038
-0.148
-0.127
0.064
0.072
0.095
0.079
0.050
-0.006
0.067
0.030
-0.034
0.102
0.077
-0.069
-0.090
0.045
0.059
-0.029
0.086
-0.036
-0.069
0.053
-0.073
0.049
0.130
0.013
0.081
0.012
0.117
-0.055
-0.005
0.062
-0.075
-0.012
0.087
0.037
-0.128
0.118
0.084
-0.012
-0.045
-0.007
-0.021
0.028
0.092
-0.099
0.091
-0.069
0.048
-0.025
-0.074
0.007
0.045
0.094
0.011
0.019
0.026
-0.149
0.087
0.110
-0.042
-0.063
0.043
0.069
-0.027
0.006
-0.073
-0.005
0.011
0.037
0.075
0.028
0.064
0.079
0.006
0.067
-0.037
0.070
-0.063
0.117
0.020
-0.019
0.168
-0.048
-0.071
0.063
0.112
0.076
-0.053
0.009
-0.023
0.035
-0.210
0.008
0.096
0.244
0.078
-0.046
-0.109
-0.123
-0.181
0.068
0.337
0.194
0.086
-0.046
-0.022
-0.069
-0.068
-0.032
0.037
0.136
0.073
0.086
-0.107
0.041
-0.077
-0.002
-0.028
0.143
-0.007
-0.045
-0.075
0.068
0.037
0.049
-0.121
0.116
0.043
0.073
-0.019
0.127
-0.008
-0.091
-0.052
0.188
0.025
-0.060
0.083
-0.025
-0.024
-0.024
0.159
0.112
0.014
0.003
0.011
-0.019
0.059
0.022
0.158
0.017
-0.082
0.036
0.092
0.091
-0.042
-0.011
-0.226
-0.041
0.227
0.114
-0.030
0.043
-0.071
0.062
-0.130
-0.020
0.083
-0.073
0.084
-0.041
0.067
0.098
0.063
0.037
0.107
-0.072
-0.041
0.040
-0.005
-0.096
0.050
0.044
-0.080
-0.012
0.099
0.046
0.080
-0.015
-0.030
0.020
0.005
0.089
0.090
0.067
-0.185
-0.669
-0.599
0.700
0.865
0.443
-0.097
-0.257
-0.225
-0.164
0.023
0.172
0.075
0.102
0.084
0.152
0.179
0.193
0.158
0.007
-0.001
-0.212
-0.068
-0.040
0.025
-0.100
-0.026
-0.016
-0.030
-0.089
0.052
-0.082
-0.076
0.062
0.062
-0.049
0.008
0.048
0.048
-0.021
0.043
0.035
0.040
-0.003
-0.047
0.022
0.050
0.047
0.103
0.057
0.017
0.029
0.008
0.017
-0.004
-0.034
0.119
0.121
-0.153
0.130
0.065
0.023
-0.061
0.064
-0.042
0.038
-0.005
0.103
0.099
-0.023
0.017
-0.028
0.068
-0.069
0.076
0.028
0.090
-0.111
0.162
0.037
-0.001
0.028
-0.122
-0.084
-0.033
0.183
0.102
0.107
0.073
-0.038
-0.126
0.031
0.109
0.068
0.082
0.033
-0.013
0.032
0.127
0.006
-0.080
-0.176
-0.256
0.127
0.335
0.117
0.099
0.015
-0.107
-0.023
-0.051
-0.127
0.122
0.074
-0.018
0.130
0.052
0.093
-0.009
-0.051
0.046
-0.071
0.076
0.060
-0.017
0.034
0.098
0.018
0.020
0.094
0.014
0.010
0.135
0.019
0.143
0.011
-0.037
0.016
0.097
-0.087
0.130
0.091
0.023
-0.087
0.134
0.070
0.067
-0.067
-0.040
-0.013
0.099
-0.012
0.030
0.060
0.079
-0.017
0.010
-0.037
-0.009
0.088
-0.009
0.125
0.006
-0.107
0.077
0.026
0.034
-0.036
-0.104
0.050
0.068
-0.028
0.062
0.008
0.049
-0.102
-0.087
-0.170
-0.003
-0.093
-0.161
-0.187
-0.197
-0.091
-0.045
-0.142
-0.153
-0.094
-0.354
-0.241
-0.126
-0.133
-0.083
-0.278
-0.245
-0.141
-0.200
-0.283
-0.146
-0.155
0.106
0.060
-2.171
-0.445
1.921
2.048
1.014
0.625
0.162
0.147
0.207
0.271
0.468
0.759
0.648
0.659
0.507
0.392
0.050
-0.196
-0.290
-0.458
-0.585
-0.521
-0.504
-0.582
-0.400
-0.369
-0.404
-0.127
-0.224
-0.093
-0.030
-0.047
0.061
0.134
-0.036
0.060
0.153
0.136
0.097
0.178
0.113
0.202
0.235
0.145
0.086
0.289
0.216
0.300
0.249
0.236
0.301
0.318
0.188
0.215
0.280
0.193
0.375
0.297
0.102
0.185
0.037
0.158
0.333
0.221
0.273
-0.014
0.135
-0.079
0.130
0.079
0.084
0.017
0.044
0.072
0.059
0.016
-0.191
-0.166
-0.082
0.026
0.073
-0.062
-0.076
-0.162
-0.193
-0.086
-0.122
-0.107
-0.070
-0.021
-0.068
-0.062
-0.067
-0.069
-0.164
-0.112
-0.062
-0.035
-0.250
-0.194
-0.145
0.227
0.177
-0.029
0.050
-0.230
-0.274
-0.014
-0.072
0.228
0.188
0.120
-0.002
-0.051
0.080
-0.082
0.039
0.095
0.006
-0.027
-0.016
0.071
0.008
0.071
0.123
0.039
0.003
0.036
0.113
-0.054
0.189
-0.022
0.005
-0.047
0.002
-0.026
0.036
-0.030
-0.033
-0.182
-0.089
-0.026
-0.182
-0.045
-0.265
-0.285
-0.051
-0.175
-0.224
-0.388
-0.372
-0.399
-0.965
-0.819
-0.284
-0.373
-0.557
-0.428
-0.331
-0.599
-0.727
-1.008
-0.930
-0.707
-0.103
-0.103
-0.187
-0.558
-0.771
-0.577
-0.486
0.346
1.063
1.204
0.719
0.796
0.293
-0.446
0.128
0.804
1.137
1.253
0.933
0.691
0.351
0.112
-0.182
-0.168
-0.249
-0.258
-0.264
-0.822
-0.537
-0.278
-0.545
-0.602
-0.531
-0.227
-0.324
-0.303
-0.289
-0.107
-0.061
0.163
0.079
0.211
0.361
0.162
0.153
0.310
0.494
0.407
0.295
0.189
0.592
0.636
0.435
0.292
0.347
0.267
0.358
0.389
0.471
0.411
0.464
0.412
0.292
0.358
0.423
0.396
0.358
0.320
0.366
0.494
0.454
0.398
0.481
0.494
0.415
0.459
0.517
0.404
0.391
0.409
0.282
0.423
0.403
0.288
0.226
0.291
0.180
0.117
0.242
0.062
0.103
0.100
0.120
-0.072
-0.093
-0.001
0.039
-0.085
0.058
-0.166
-0.112
-0.100
-0.128
-0.113
-0.130
-0.128
-0.141
-0.263
-0.115
-0.250
-0.260
-0.076
-0.253
-0.184
-0.242
-0.024
-0.185
-0.251
-0.171
-0.121
-0.306
-0.262
-0.085
-0.123
-0.318
-0.201
-0.257
-0.612
-0.729
-0.192
0.368
0.464
0.194
0.093
-0.138
-0.218
-0.326
-0.078
0.216
0.158
0.166
0.156
0.185
0.160
0.008
0.030
-0.073
-0.072
-0.166
-0.155
0.214
-0.011
0.006
0.032
-0.113
-0.194
0.006
-0.113
0.136
0.048
0.055
-0.052
0.023
0.076
0.037
-0.068
0.086
0.023
0.069
-0.008
0.072
-0.023
0.152
0.146
0.270
0.126
0.017
0.061
0.106
0.063
0.176
0.074
0.144
-0.063
0.021
0.077
0.172
0.084
0.129
0.001
0.180
0.089
0.050
0.217
0.178
0.102
0.171
-0.017
0.135
0.088
-0.021
0.111
0.044
-0.032
0.139
0.032
-0.069
0.031
0.122
-0.007
-0.128
-0.001
-0.045
0.012
0.023
0.015
0.072
-0.131
-0.100
0.133
-0.061
0.034
-0.107
-0.237
0.081
-0.040
-0.071
-0.101
-0.055
-0.122
0.055
-0.139
-0.139
-0.074
-0.116
0.095
-0.041
-0.046
-0.087
-0.030
-0.108
-0.023
-0.056
-0.035
0.127
0.072
-0.230
-0.193
-0.014
-0.205
0.156
0.281
0.148
0.061
-0.153
-0.065
0.049
0.013
0.197
0.042
0.184
-0.002
0.037
0.119
0.059
0.065
0.074
0.130
0.077
-0.006
0.084
0.124
0.100
0.218
0.130
0.001
0.078
0.100
0.080
0.077
-0.018
0.192
0.030
0.136
0.046
0.109
0.131
0.030
-0.001
0.014
0.056
0.021
0.057
0.034
-0.002
-0.063
0.017
0.090
0.136
-0.001
-0.035
-0.035
-0.091
-0.119
0.066
-0.092
0.061
0.094
-0.077
-0.117
0.048
0.044
-0.034
-0.002
-0.175
-0.082
0.075
-0.145
0.075
-0.066
0.038
0.056
-0.045
0.087
0.004
-0.099
-0.001
-0.080
0.069
0.094
-0.045
0.057
-0.007
-0.047
-0.060
-0.055
0.049
-0.007
-0.001
-0.007
0.056
-0.011
0.000
0.042
0.065
0.003
-0.016
0.118
0.004
0.086
-0.038
0.093
0.069
0.066
0.055
-0.105
-0.035
-0.240
0.198
0.415
0.118
0.080
0.018
-0.144
0.027
0.007
0.015
0.025
0.152
0.051
0.076
-0.063
-0.045
0.025
-0.003
0.084
0.022
-0.032
0.084
-0.074
0.143
0.009
-0.006
0.022
-0.022
0.135
-0.001
0.085
0.146
0.137
-0.053
-0.146
-0.046
0.174
-0.037
0.037
0.107
0.048
0.036
-0.003
-0.080
0.031
-0.030
0.093
0.071
-0.015
0.058
0.033
0.039
-0.095
-0.008
0.026
-0.050
0.045
0.024
0.105
0.036
-0.157
-0.092
0.070
-0.022
-0.009
-0.105
0.111
0.062
0.005
-0.022
-0.070
-0.029
0.157
-0.034
0.005
0.013
0.210
-0.051
-0.105
0.024
0.063
-0.115
-0.040
0.128
-0.017
-0.050
-0.048
0.147
-0.054
-0.005
0.087
0.050
0.073
0.068
0.045
0.062
-0.086
-0.003
0.010
0.017
0.122
-0.024
-0.104
-0.159
0.017
0.249
0.208
-0.002
0.106
-0.027
-0.073
-0.004
-0.014
-0.011
0.137
0.072
0.025
0.143
-0.162
-0.085
-0.040
0.051
0.024
-0.104
0.037
0.098
-0.029
0.000
-0.008
0.180
-0.024
0.059
0.103
0.040
-0.063
0.067
0.024
-0.120
-0.022
0.031
-0.103
0.065
0.051
-0.072
-0.049
0.021
0.034
0.050
0.050
-0.097
0.033
-0.065
-0.036
0.075
-0.052
0.012
0.045
0.074
-0.025
0.132
-0.069
-0.080
0.113
0.023
0.040
0.109
-0.065
-0.064
-0.033
0.130
0.038
-0.013
-0.082
0.008
-0.033
-0.043
-0.054
-0.006
-0.010
0.071
0.098
-0.022
-0.029
0.040
0.003
0.039
0.070
0.012
-0.005
-0.076
0.028
0.007
0.152
-0.052
0.059
0.029
-0.021
0.118
-0.041
-0.004
0.031
0.010
0.063
0.090
0.057
-0.018
0.086
0.033
0.030
0.014
-0.134
-0.010
0.090
0.044
0.097
0.075
-0.018
0.022
-0.092
0.003
0.096
0.070
-0.136
0.039
-0.030
0.027
-0.280
-0.083
0.327
0.372
0.137
0.079
-0.088
-0.168
-0.083
-0.078
0.102
0.039
0.083
0.043
0.120
0.072
-0.110
0.099
-0.146
0.026
0.106
-0.061
0.071
0.051
-0.125
0.035
0.051
0.141
0.028
0.035
-0.043
-0.007
0.096
0.016
0.145
-0.046
-0.020
-0.004
0.097
0.070
0.062
-0.046
-0.012
-0.154
-0.022
0.013
0.007
0.016
0.040
-0.029
-0.040
-0.085
-0.089
0.003
0.040
-0.061
0.026
0.032
0.128
0.008
0.069
0.051
-0.114
-0.028
0.011
0.008
0.132
-0.070
0.091
-0.064
-0.027
-0.005
0.077
0.053
-0.008
0.050
-0.055
-0.069
0.029
0.085
0.017
0.138
-0.064
-0.048
0.077
-0.030
-0.009
0.056
-0.063
0.127
-0.014
0.077
-0.010
0.051
-0.125
0.135
-0.130
-0.153
0.170
0.080
0.038
-0.002
-0.034
-0.049
0.013
0.029
0.165
-0.023
0.007
0.071
0.008
0.054
-0.013
0.014
-0.063
0.142
-0.023
-0.021
0.103
0.125
-0.077
-0.066
-0.031
-0.017
0.022
-0.075
-0.222
0.307
0.218
0.197
0.048
-0.092
-0.188
-0.071
0.043
0.123
0.071
-0.015
-0.015
0.068
0.080
-0.075
0.014
-0.074
-0.054
-0.021
0.060
0.096
-0.056
-0.162
-0.011
-0.065
-0.164
-0.274
-0.206
-0.263
-0.418
-0.354
-0.969
-1.570
-2.699
-3.788
-2.860
0.244
-0.471
0.423
-2.040
-0.901
1.131
2.928
3.631
2.251
1.063
0.711
1.173
2.377
3.217
3.519
3.555
3.104
2.200
1.304
0.232
-0.536
-1.306
-1.752
-2.022
-2.031
-2.157
-1.912
-1.495
-1.318
-0.933
-0.739
-0.368
-0.263
-0.161
0.029
0.157
0.025
-0.024
0.142
0.183
0.161
0.257
0.232
0.320
0.418
0.529
0.435
0.484
0.508
0.632
0.590
0.630
0.719
0.632
0.777
0.175
0.648
0.873
0.807
0.730
0.515
0.520
0.616
0.495
0.449
0.514
0.494
0.386
0.456
0.496
0.345
0.334
0.163
0.042
0.147
0.034
-0.014
0.056
-0.071
-0.155
-0.197
-0.077
-0.279
-0.140
-0.144
-0.385
-0.246
-0.172
-0.217
-0.321
-0.285
-0.364
-0.299
-0.202
-0.492
-0.612
0.095
-0.011
-0.182
-0.321
-0.330
-0.348
-0.158
-0.186
-0.186
-0.134
-0.029
-0.149
-0.114
0.012
-0.020
-0.130
-0.128
-0.134
0.081
0.074
0.019
0.023
0.096
0.005
0.098
0.253
0.034
-0.012
0.184
0.131
0.133
0.161
0.021
-0.137
0.211
0.248
0.152
0.189
-0.033
-0.000
-0.019
0.100
0.060
0.089
0.070
0.028
0.082
-0.052
0.064
0.140
-0.030
-0.040
0.004
-0.004
-0.082
-0.004
0.135
-0.109
0.100
-0.071
-0.140
0.003
0.015
0.007
-0.173
-0.222
-0.234
-0.247
-0.329
-0.267
-0.349
-0.303
-0.441
-0.419
-0.692
-0.689
0.067
0.284
0.409
0.199
0.029
0.150
0.087
0.217
0.223
0.278
0.391
0.804
0.638
0.319
0.111
0.266
0.342
0.120
-0.023
-0.080
-0.136
-0.187
-0.209
-0.159
-0.126
-0.282
-0.237
-0.155
-0.287
-0.327
-0.222
-0.192
-0.065
-0.126
-0.139
-0.168
0.136
-0.149
-0.012
-0.292
0.135
0.130
0.040
-0.092
0.319
0.324
0.080
0.200
0.089
0.003
0.064
0.124
0.199
0.123
0.057
0.151
0.120
-0.059
0.140
0.220
0.083
-0.019
-0.004
0.058
-0.081
0.162
0.094
0.033
0.158
0.137
0.097
0.166
0.174
0.161
0.154
0.198
0.096
0.226
0.131
0.061
0.327
0.314
0.142
0.166
0.186
0.167
0.190
0.157
0.218
0.203
0.163
0.077
0.193
0.243
0.077
-0.022
0.096
0.031
0.167
0.043
0.089
0.106
0.003
0.049
0.045
-0.047
-0.037
0.043
0.118
0.059
0.030
-0.066
0.056
0.002
-0.145
-0.154
-0.075
0.089
-0.094
-0.121
-0.019
-0.064
-0.089
-0.193
-0.151
-0.078
-0.020
-0.160
-0.116
-0.139
0.022
-0.053
-0.032
-0.297
-0.083
-0.034
-0.024
0.037
-0.162
-0.118
0.026
-0.074
0.007
-0.004
0.023
-0.075
-0.017
0.002
0.098
0.087
0.014
-0.079
-0.113
-0.066
0.160
0.155
-0.012
0.033
0.064
-0.079
-0.052
0.095
0.082
0.072
0.168
0.068
0.097
0.127
0.126
-0.114
0.180
0.180
0.071
-0.037
-0.044
0.103
0.004
-0.168
0.189
0.485
0.233
0.030
-0.086
-0.064
-0.014
0.024
0.069
0.087
0.087
0.049
-0.023
0.029
0.115
-0.045
0.114
-0.020
-0.076
-0.005
0.101
0.021
-0.036
-0.075
0.163
0.002
0.012
0.014
0.050
-0.071
0.088
-0.027
0.077
-0.040
0.016
-0.016
0.206
0.020
0.075
-0.051
-0.021
0.014
0.086
-0.002
-0.032
0.006
0.020
-0.037
-0.055
0.059
-0.044
-0.039
0.042
-0.053
0.063
-0.046
-0.097
-0.033
0.089
-0.030
0.090
-0.118
0.015
-0.017
-0.011
-0.031
0.046
0.034
-0.071
0.018
-0.046
0.006
0.031
0.022
-0.057
-0.016
0.040
-0.073
-0.111
0.099
0.003
0.181
0.065
-0.029
-0.140
0.040
0.037
0.043
0.061
0.139
0.133
0.084
0.027
-0.023
0.195
-0.012
0.004
-0.120
0.130
0.042
0.096
-0.039
0.075
-0.075
0.155
0.048
0.056
0.041
0.032
-0.031
-0.050
0.060
-0.191
0.190
0.362
0.024
0.109
-0.043
-0.067
-0.101
0.196
0.064
-0.058
0.035
0.008
0.039
-0.013
0.068
0.044
-0.085
0.024
-0.029
-0.010
-0.025
0.033
0.048
0.017
-0.066
0.089
-0.018
-0.119
0.044
0.096
-0.052
0.029
0.013
0.013
-0.006
0.098
0.022
0.064
-0.026
-0.070
-0.027
0.021
0.044
0.051
-0.002
0.051
0.028
0.156
0.043
0.026
0.000
-0.039
-0.041
0.068
0.030
0.089
0.101
-0.066
-0.078
0.145
-0.028
0.100
-0.023
-0.110
0.104
0.115
-0.006
0.090
-0.008
0.011
-0.039
0.080
0.027
0.073
0.130
0.007
-0.045
-0.085
0.081
0.063
-0.042
0.002
0.220
0.000
-0.103
-0.038
0.115
0.092
0.159
0.126
-0.121
-0.013
-0.039
0.060
0.066
0.107
0.058
-0.013
0.001
0.061
-0.032
0.053
0.097
0.159
0.006
-0.128
-0.033
0.048
-0.056
0.158
0.006
-0.029
0.117
-0.031
-0.094
0.082
0.021
-0.064
0.060
-0.030
0.004
0.083
-0.018
0.076
-0.152
-0.222
0.442
0.119
0.100
0.104
-0.009
-0.192
-0.064
0.145
0.051
0.084
0.141
0.066
-0.160
0.076
0.014
-0.012
-0.029
-0.023
-0.010
0.022
0.005
-0.067
-0.067
0.011
0.047
0.079
0.214
0.023
-0.023
0.056
-0.053
-0.075
0.002
0.056
0.035
0.063
0.149
-0.060
-0.055
0.058
0.029
-0.049
0.156
0.090
0.138
-0.005
0.079
0.040
0.123
0.024
-0.014
0.056
-0.011
-0.075
0.056
0.050
-0.043
0.014
0.004
-0.022
-0.031
-0.102
0.082
0.032
0.096
0.056
-0.009
0.001
0.002
0.032
-0.020
-0.040
0.052
-0.027
0.089
0.003
0.095
-0.095
0.046
0.068
0.026
-0.040
-0.085
0.100
-0.018
0.127
0.044
-0.018
0.043
0.004
0.037
-0.097
0.071
-0.024
0.131
0.098
0.028
0.008
0.035
0.054
-0.036
0.016
0.018
0.089
0.016
-0.054
0.059
0.024
0.059
-0.026
0.015
0.034
-0.033
0.086
-0.011
-0.073
0.157
0.078
-0.012
0.023
-0.072
0.083
0.020
-0.044
0.050
0.059
0.110
0.018
-0.050
-0.006
0.116
0.049
-0.124
-0.098
0.038
-0.049
0.025
0.064
-0.161
-0.315
0.335
0.336
0.213
-0.142
-0.051
0.041
-0.006
-0.033
0.051
0.043
0.004
0.079
0.092
0.051
-0.020
0.090
0.178
-0.087
-0.116
-0.138
-0.026
0.020
0.111
0.075
0.061
-0.011
0.010
-0.152
0.046
0.054
0.038
0.093
-0.068
-0.136
0.032
0.064
0.038
-0.076
0.010
0.012
-0.043
0.040
0.193
0.033
-0.112
-0.093
0.079
0.013
-0.024
0.033
0.011
-0.056
0.040
-0.046
0.077
-0.039
0.067
0.055
-0.042
0.030
0.004
0.034
-0.019
0.144
0.026
0.010
0.007
0.100
-0.002
-0.096
-0.026
-0.061
0.022
0.074
0.025
0.096
0.115
-0.093
-0.057
0.163
0.009
-0.031
0.071
-0.014
0.119
0.044
0.112
-0.067
-0.026
-0.043
-0.026
0.077
0.033
0.065
0.021
-0.004
-0.101
0.039
0.063
0.088
-0.044
0.045
0.142
0.118
-0.041
0.093
0.016
-0.084
0.049
0.037
-0.002
0.090
0.082
-0.065
0.128
-0.005
-0.041
0.103
-0.015
0.128
-0.001
-0.049
0.174
-0.067
0.025
0.157
0.115
-0.016
-0.004
-0.047
0.073
-0.039
-0.069
0.085
-0.021
-0.042
0.012
0.003
0.040
-0.135
-0.051
0.078
0.170
0.162
0.059
0.037
-0.079
0.034
-0.011
0.073
0.053
0.045
0.103
0.104
-0.058
0.113
-0.058
-0.030
-0.015
0.008
-0.041
0.002
-0.036
-0.125
0.012
-0.153
-0.273
-0.256
-0.348
-0.369
-0.546
-0.552
-0.277
-0.430
-0.742
-0.989
-1.312
-1.755
-2.075
-3.360
-0.863
3.076
4.356
3.329
1.695
0.253
-0.490
-0.395
0.243
1.129
2.078
2.343
2.656
2.321
1.894
1.220
0.513
-0.073
-0.649
-1.243
-1.398
-1.457
-1.581
-1.223
-1.063
-0.985
-0.835
-0.519
-0.179
-0.227
-0.080
0.022
0.002
0.220
0.157
0.141
0.129
0.072
0.315
0.228
0.344
0.319
0.305
0.288
0.418
0.529
0.411
0.439
0.603
0.451
0.472
0.432
0.565
0.372
0.352
0.404
0.430
0.557
0.214
0.409
0.342
0.439
0.403
0.318
0.140
0.265
0.132
0.215
0.356
0.354
0.135
-0.042
0.081
-0.073
0.009
-0.044
-0.138
-0.033
-0.051
-0.011
-0.269
-0.350
-0.262
-0.053
-0.118
-0.164
-0.362
-0.194
-0.171
-0.168
-0.252
-0.229
-0.209
-0.109
-0.133
-0.212
-0.216
-0.235
-0.125
0.031
-0.198
-0.111
-0.130
-0.027
-0.009
-0.176
-0.058
0.046
-0.049
0.075
-0.012
-0.161
0.056
0.088
-0.009
-0.093
-0.091
0.046
0.278
0.122
-0.004
0.127
0.070
0.078
0.146
0.046
0.045
0.204
-0.013
0.117
0.075
0.120
-0.003
0.012
-0.003
-0.100
-0.093
-0.026
-0.137
0.000
0.041
-0.059
-0.040
-0.093
-0.043
-0.126
-0.053
-0.084
-0.116
-0.009
-0.047
0.084
-0.023
-0.192
-0.157
-0.131
-0.129
-0.427
-0.196
-0.433
-0.445
-0.177
-0.271
-0.579
-0.709
-0.609
-1.116
-2.792
-0.959
-0.653
-2.913
-1.145
2.858
2.844
0.691
-0.560
-0.722
-0.485
0.019
0.205
-1.205
-1.022
1.817
3.136
2.187
1.420
0.667
-0.302
-1.053
-0.455
-0.080
0.227
0.240
-0.064
-0.175
0.335
0.422
0.269
0.023
-0.084
-0.244
-0.252
-0.550
-0.710
-0.755
-0.714
-0.500
-0.666
-0.170
0.035
-0.109
-0.157
-0.207
-0.395
-0.360
-0.186
0.142
0.614
0.475
0.394
0.333
0.203
0.350
0.443
0.617
0.551
0.588
0.557
0.644
0.543
0.536
0.579
0.433
0.655
0.788
0.626
0.542
0.695
0.564
0.402
0.410
0.379
0.482
0.444
0.423
0.450
0.193
0.311
0.274
0.275
0.211
0.252
0.298
0.150
0.172
0.114
0.164
0.115
0.074
-0.007
0.195
0.191
0.059
-0.066
0.005
-0.022
0.089
0.033
0.059
0.021
-0.034
-0.087
0.021
0.056
0.052
-0.035
-0.086
-0.044
0.035
-0.070
-0.232
0.028
-0.038
-0.137
-0.063
-0.038
-0.102
-0.066
-0.029
-0.289
-0.217
0.009
-0.099
-0.105
-0.009
-0.062
-0.025
-0.215
-0.014
-0.139
-0.085
-0.108
0.052
-0.055
-0.070
-0.063
-0.014
0.049
-0.170
-0.192
-0.054
0.021
0.162
-0.106
-0.127
-0.240
-0.066
0.108
-0.090
-0.121
-0.134
0.048
-0.039
0.110
-0.051
0.025
0.018
-0.064
-0.041
0.039
0.040
0.053
0.014
0.058
-0.049
0.148
0.185
0.188
0.086
-0.062
-0.104
-0.038
0.028
0.111
0.127
0.143
0.033
0.036
0.120
0.144
0.069
0.070
-0.019
0.118
0.224
0.093
0.058
0.093
0.093
0.046
0.054
0.133
0.092
0.046
0.044
0.116
0.170
0.025
0.039
-0.023
0.036
0.017
-0.022
0.005
0.003
-0.067
0.124
0.074
-0.064
-0.077
0.080
0.051
-0.027
-0.064
0.116
0.005
-0.110
-0.019
-0.035
-0.055
0.001
0.066
-0.167
0.030
0.104
-0.035
-0.176
0.045
-0.121
-0.039
-0.136
-0.007
-0.101
0.012
0.008
-0.064
-0.058
-0.074
0.064
-0.100
0.017
0.082
-0.107
0.109
0.060
-0.114
0.002
0.010
0.010
0.083
-0.012
0.004
0.068
0.046
0.073
-0.054
0.083
0.083
0.092
0.034
-0.101
0.032
-0.062
0.273
0.211
0.095
0.039
0.030
-0.081
-0.171
0.108
0.565
0.236
0.090
-0.117
-0.113
0.028
0.147
-0.104
0.064
0.186
0.159
0.000
-0.009
0.031
0.095
-0.053
-0.066
-0.057
0.117
0.129
-0.082
0.061
-0.012
0.098
0.059
0.043
0.048
0.002
0.092
0.016
0.040
-0.026
-0.043
0.004
-0.097
-0.098
0.129
0.035
0.063
0.032
0.032
-0.170
-0.053
-0.081
0.006
0.022
-0.032
-0.122
0.104
0.038
-0.030
-0.085
-0.052
-0.003
0.075
-0.028
-0.054
0.006
0.098
0.048
-0.137
0.018
-0.043
0.093
0.120
0.009
0.035
-0.031
0.102
0.041
0.029
-0.041
0.017
0.013
-0.052
0.081
0.021
0.025
-0.010
-0.099
0.083
-0.081
-0.040
0.227
0.036
0.186
0.136
-0.071
-0.041
0.004
0.059
0.047
-0.018
0.102
-0.044
0.184
0.137
0.040
0.045
-0.045
-0.029
0.050
0.065
-0.006
0.072
0.126
0.012
-0.041
0.046
0.120
0.005
0.010
-0.006
0.086
0.060
0.023
0.058
0.119
-0.058
-0.066
0.022
0.116
0.087
-0.035
-0.085
0.031
0.009
0.057
0.111
-0.046
0.088
0.067
0.011
-0.047
-0.040
-0.276
0.075
0.374
0.168
0.022
0.021
-0.072
-0.046
-0.086
-0.099
0.110
0.077
0.051
-0.002
0.031
-0.051
-0.079
-0.046
0.025
-0.095
-0.001
0.159
-0.052
0.062
-0.090
0.069
-0.007
-0.026
-0.060
0.042
0.199
0.099
-0.048
0.001
-0.017
-0.026
0.139
0.078
0.058
-0.015
-0.009
0.036
0.049
-0.020
0.118
-0.096
-0.007
0.191
0.048
0.137
-0.015
-0.106
0.003
0.078
-0.097
0.024
0.076
0.053
0.115
-0.051
0.069
0.016
-0.006
0.186
-0.038
0.035
0.067
-0.158
-0.035
-0.105
0.070
0.062
-0.067
-0.013
-0.057
0.079
0.039
0.072
-0.008
0.067
0.082
-0.012
-0.107
0.037
0.062
0.053
0.011
0.053
-0.033
-0.049
0.157
0.082
-0.024
-0.056
0.059
-0.035
-0.011
0.022
0.022
0.012
0.111
0.005
0.015
-0.018
-0.002
0.069
-0.081
0.007
0.098
0.036
0.049
0.066
0.068
0.015
-0.131
-0.173
0.015
0.081
0.043
0.079
0.039
0.046
-0.001
-0.068
-0.023
-0.027
-0.060
0.135
0.035
0.134
-0.082
-0.066
-0.071
0.147
-0.017
-0.090
0.026
-0.016
0.027
-0.100
0.177
0.325
0.162
-0.015
-0.080
-0.278
-0.026
0.013
0.113
0.187
0.049
0.044
-0.070
-0.039
0.027
0.013
0.101
-0.142
-0.167
0.011
0.145
0.014
0.072
0.082
0.055
0.016
-0.144
0.108
-0.088
0.088
0.054
0.114
0.056
-0.085
0.030
0.092
0.090
-0.164
0.113
0.094
-0.008
-0.080
-0.057
0.055
0.045
-0.062
-0.082
-0.003
0.063
0.084
-0.078
-0.172
0.042
0.035
-0.222
-1.195
-2.217
-0.145
1.336
1.319
0.539
-0.232
-0.580
-0.482
-0.129
0.155
0.432
0.641
0.640
0.366
0.335
0.375
0.492
0.334
0.125
0.090
-0.097
-0.162
-0.171
-0.120
-0.129
-0.182
-0.201
-0.035
-0.127
-0.158
-0.060
-0.136
-0.017
-0.097
0.059
-0.032
-0.125
-0.127
0.057
0.011
-0.037
0.036
-0.018
0.037
-0.098
0.069
0.203
0.178
0.113
0.092
0.078
-0.054
0.125
0.124
0.205
0.144
0.142
0.141
0.081
0.056
0.071
0.023
0.075
0.134
0.107
0.101
0.074
0.061
0.018
0.083
-0.003
0.026
0.030
0.098
0.096
0.096
0.054
-0.038
-0.054
-0.026
0.101
0.046
-0.070
0.008
0.080
-0.023
-0.112
0.034
-0.060
-0.004
0.030
0.045
-0.018
0.004
-0.012
-0.128
-0.026
-0.066
0.049
-0.006
-0.055
0.072
-0.012
-0.087
-0.150
-0.023
0.013
0.069
-0.051
-0.035
0.060
-0.032
0.012
0.042
-0.089
-0.250
0.194
0.291
0.133
-0.141
-0.002
-0.253
-0.046
0.102
0.070
0.025
-0.044
0.050
0.007
0.188
-0.010
0.078
-0.115
-0.101
-0.160
-0.066
-0.145
-0.045
-0.040
-0.200
-0.320
-0.138
-0.195
-0.266
-0.726
-0.345
-0.408
0.020
-0.053
-0.024
-0.234
-0.614
-0.421
0.058
0.735
1.115
0.997
0.700
0.348
0.311
0.441
0.480
0.381
0.485
0.523
0.549
0.314
0.152
-0.063
-0.183
-0.384
-0.341
-0.392
-0.368
-0.380
-0.335
-0.335
-0.344
-0.110
-0.096
-0.118
-0.091
-0.024
-0.054
-0.066
0.010
0.074
0.027
0.025
0.191
0.081
0.031
0.148
0.099
0.123
0.099
0.138
0.133
0.121
0.170
0.161
0.147
0.125
0.202
0.260
0.153
0.176
0.240
0.040
0.226
0.262
0.163
0.197
0.309
0.086
0.047
0.186
0.150
0.184
0.013
0.065
0.031
0.035
-0.084
0.061
-0.028
0.004
-0.056
-0.073
0.116
-0.032
-0.149
-0.106
-0.193
-0.063
-0.072
-0.022
-0.047
-0.149
0.001
-0.084
0.018
-0.121
-0.186
-0.120
-0.028
-0.143
0.180
0.139
0.092
-0.192
-0.116
-0.092
-0.008
-0.037
-0.116
-0.039
0.057
0.189
0.098
0.074
-0.029
0.019
0.041
-0.093
-0.110
0.171
0.132
0.251
0.025
0.040
0.015
-0.101
0.092
-0.334
0.228
0.220
0.166
0.090
-0.023
-0.252
-0.013
0.117
0.039
-0.043
-0.037
0.020
-0.009
0.074
-0.048
0.024
-0.009
-0.004
-0.026
-0.202
0.091
0.030
0.133
-0.037
-0.016
-0.021
0.034
-0.046
0.033
-0.135
-0.062
-0.132
-0.199
-0.105
-0.173
-0.232
-0.190
-0.343
-0.230
0.014
-0.073
-0.391
-0.205
0.066
-0.036
-0.037
-0.024
-0.161
-0.051
0.041
0.050
0.028
0.029
-0.242
0.083
0.174
0.244
0.234
0.147
0.117
-0.065
-0.072
-0.015
0.085
0.140
0.096
0.044
0.155
0.013
0.005
-0.198
-0.110
-0.327
-0.119
-0.211
-0.308
-0.418
-0.063
-0.029
-0.008
-0.000
-0.200
-0.174
-0.028
-0.091
0.128
-0.036
0.064
0.168
-0.008
0.087
0.225
0.104
-0.000
0.005
-0.013
-0.041
0.071
0.138
0.085
0.099
0.001
0.089
0.226
0.206
0.085
0.137
0.149
0.113
0.208
0.253
0.159
0.058
0.259
0.249
0.290
0.295
0.251
0.219
-0.007
0.288
0.273
0.266
0.101
0.240
0.183
0.132
0.343
0.134
0.025
0.064
0.067
0.115
0.059
0.041
0.078
0.026
0.008
0.039
0.131
-0.015
0.132
0.074
0.160
0.128
0.117
0.031
0.167
0.126
0.069
0.269
0.122
0.100
0.077
0.001
0.193
0.146
0.118
0.102
0.072
0.075
0.100
0.026
0.096
0.110
0.148
-0.057
-0.104
0.137
-0.037
-0.128
0.076
-0.012
-0.018
-0.045
0.134
-0.140
-0.136
-0.023
0.042
-0.133
0.068
0.063
-0.034
-0.000
-0.112
0.016
-0.123
-0.110
-0.157
-0.074
-0.131
0.179
0.054
0.033
-0.116
-0.188
-0.128
0.049
0.082
0.075
0.096
-0.177
-0.023
-0.078
0.008
-0.004
0.006
0.066
-0.224
-0.102
0.106
0.091
-0.003
-0.014
0.039
-0.094
-0.022
0.041
-0.024
0.001
0.032
0.095
0.078
0.075
-0.026
0.093
-0.066
0.014
0.082
-0.007
0.120
0.166
0.048
-0.046
0.120
0.111
0.031
0.028
-0.051
0.070
0.118
-0.035
-0.054
-0.055
0.031
0.119
-0.116
0.092
0.076
0.043
0.215
-0.048
-0.058
-0.037
0.057
0.109
0.015
0.048
0.005
0.057
0.038
0.036
-0.009
0.025
0.059
0.058
-0.045
0.089
-0.047
-0.125
0.057
0.104
0.140
-0.028
-0.031
0.083
-0.036
-0.002
0.052
0.074
-0.014
-0.136
0.103
0.176
-0.028
0.057
0.046
0.067
-0.033
0.059
-0.128
0.048
0.184
-0.090
0.048
-0.085
0.120
0.019
0.045
-0.054
-0.052
0.146
-0.117
0.022
0.132
-0.045
0.064
0.027
0.097
-0.034
0.113
0.046
-0.080
-0.042
-0.069
0.007
0.071
-0.001
-0.058
0.035
0.114
0.050
0.075
-0.069
0.046
0.242
0.092
0.103
0.090
-0.042
-0.001
0.071
0.012
0.063
0.048
0.004
-0.024
0.059
0.078
-0.063
0.022
0.026
0.011
0.020
0.112
-0.002
0.091
0.089
0.068
-0.034
-0.054
-0.140
0.102
0.097
-0.001
0.095
-0.023
-0.016
-0.019
0.010
0.002
0.037
0.116
-0.080
0.147
0.119
0.010
-0.037
0.012
-0.045
-0.021
-0.182
0.214
0.285
0.083
0.086
-0.081
-0.172
-0.060
-0.083
0.073
0.125
0.111
-0.033
0.024
0.064
0.056
0.013
-0.038
-0.011
0.032
-0.003
-0.068
-0.022
-0.071
0.014
0.183
0.084
0.216
-0.139
-0.034
0.012
-0.017
0.013
0.013
0.053
0.110
0.102
-0.084
-0.025
-0.034
-0.029
0.019
0.043
0.085
-0.058
-0.149
0.082
-0.097
0.064
0.094
0.185
0.069
0.065
-0.009
0.015
-0.078
0.059
0.048
0.043
0.004
0.076
-0.056
0.082
-0.042
-0.047
-0.015
0.166
0.035
0.113
0.028
0.047
-0.000
0.099
-0.014
0.031
0.069
0.008
0.031
-0.053
0.045
0.086
-0.003
-0.074
-0.006
0.081
-0.057
0.013
0.027
-0.127
0.016
0.079
0.103
0.007
0.037
-0.012
0.075
0.081
0.047
0.038
-0.068
-0.039
0.088
0.060
-0.058
0.068
0.012
0.029
-0.208
0.136
0.144
0.071
0.014
0.009
0.069
-0.083
0.029
0.106
0.118
-0.039
-0.004
0.029
-0.079
-0.059
0.069
0.058
0.247
-0.081
-0.018
-0.083
0.002
0.026
0.024
-0.041
-0.029
0.050
0.145
0.040
-0.019
0.054
-0.037
0.044
-0.077
0.044
0.104
0.115
-0.063
-0.001
0.029
0.000
-0.067
-0.031
-0.008
0.138
0.035
0.013
0.104
-0.014
-0.104
-0.031
-0.116
-0.294
0.304
0.389
0.011
0.049
0.158
-0.277
-0.101
0.072
0.096
0.101
0.010
0.079
0.032
0.090
-0.028
-0.094
0.049
0.000
-0.007
-0.059
0.001
0.040
-0.022
0.107
0.013
0.019
-0.020
-0.048
0.021
0.095
0.040
-0.029
-0.082
0.143
0.099
0.049
0.033
-0.028
0.154
-0.115
0.030
-0.050
-0.106
0.090
-0.077
0.016
0.027
-0.001
0.046
0.046
-0.096
0.006
0.179
0.039
-0.101
-0.031
0.087
-0.003
0.001
-0.107
0.145
-0.037
0.004
0.141
0.002
-0.089
-0.043
0.072
0.132
0.085
0.038
0.002
0.013
0.071
0.017
0.168
-0.037
-0.121
0.017
-0.005
0.073
-0.011
0.119
-0.096
0.004
-0.047
-0.013
0.082
-0.062
0.047
0.001
0.106
0.026
0.059
-0.016
-0.061
-0.044
0.136
0.046
0.129
-0.063
0.044
-0.019
0.011
0.009
0.025
0.087
-0.120
0.131
0.080
-0.018
-0.062
0.011
0.019
-0.142
-0.121
0.105
0.153
-0.009
0.046
0.013
0.113
-0.081
-0.211
0.012
0.023
0.159
0.009
0.082
0.018
0.018
-0.073
0.014
0.111
-0.069
0.094
-0.045
-0.017
0.008
0.041
-0.003
-0.047
0.034
0.015
0.031
0.051
-0.043
-0.026
0.043
0.084
0.001
-0.001
-0.070
-0.040
0.081
-0.046
0.049
0.037
-0.087
0.014
-0.103
-0.026
0.122
-0.025
0.037
0.032
-0.017
-0.019
0.083
0.023
-0.014
0.052
-0.027
-0.074
-0.074
0.123
-0.031
-0.089
-0.010
-0.019
0.121
0.018
0.000
0.054
-0.206
0.061
-0.027
-0.149
-0.005
-0.178
0.227
0.302
0.165
0.041
-0.027
-0.118
-0.122
-0.081
0.019
0.160
0.092
0.020
0.030
0.090
0.027
-0.087
-0.082
0.077
0.001
-0.019
-0.111
-0.054
-0.038
0.173
0.043
0.032
-0.006
0.106
0.079
-0.006
0.034
0.079
0.022
0.079
-0.052
-0.040
0.015
0.095
-0.112
-0.082
-0.030
0.113
-0.011
0.103
-0.092
0.131
-0.017
-0.040
0.051
0.068
0.057
0.067
0.047
0.022
0.089
-0.018
0.017
-0.010
0.021
0.089
-0.003
0.047
0.065
-0.024
-0.006
-0.024
0.035
-0.049
0.071
0.130
0.088
0.041
0.097
-0.125
0.048
-0.017
0.023
0.038
0.038
0.021
-0.093
-0.188
-0.235
-0.260
-0.236
-0.346
-0.404
-0.458
-0.749
-0.566
-0.866
-0.480
-0.576
-0.840
-1.120
-0.476
0.526
1.270
1.739
1.107
0.593
0.441
0.266
0.556
0.909
1.080
1.111
0.988
0.798
0.580
0.232
-0.129
-0.123
-0.359
-0.523
-0.690
-0.891
-0.616
-0.678
-0.583
-0.404
-0.304
-0.139
-0.235
-0.196
0.005
0.040
-0.073
-0.058
-0.133
0.051
-0.026
0.007
0.075
0.016
0.178
0.024
0.250
0.199
0.085
0.257
0.166
0.145
0.293
0.102
0.248
0.143
0.166
0.167
0.155
0.227
0.213
0.222
0.296
0.226
0.187
0.218
0.217
0.256
0.130
0.271
0.149
0.150
0.051
0.099
0.085
0.149
-0.142
-0.011
0.106
0.121
0.045
-0.012
-0.154
-0.189
-0.093
-0.043
-0.070
-0.050
-0.123
-0.077
-0.187
-0.096
-0.062
-0.203
0.023
-0.083
-0.041
-0.092
-0.011
-0.004
-0.046
-0.187
-0.060
0.078
-0.036
0.060
-0.139
-0.040
-0.078
0.056
-0.049
-0.040
-0.015
-0.139
0.006
0.045
0.134
0.018
0.082
-0.258
-0.012
0.302
0.292
-0.024
0.026
-0.101
-0.028
0.113
0.130
0.103
-0.019
-0.029
0.127
-0.013
0.078
-0.110
-0.061
-0.107
0.007
0.027
0.135
-0.057
-0.106
-0.074
-0.153
0.008
0.003
-0.059
-0.245
-0.218
-0.119
-0.229
-0.159
-0.240
-0.259
-0.180
-0.091
-0.258
-0.065
-0.134
-0.042
-0.058
-0.130
-0.069
-0.068
0.038
-0.019
-0.017
-0.012
0.092
0.088
-0.059
-0.096
-0.088
-0.359
-0.801
-0.694
-0.563
-0.233
-0.152
-0.576
-1.228
-1.017
-0.180
-0.091
0.233
0.356
0.331
-0.104
-0.195
-0.013
0.243
0.291
0.547
0.696
0.532
0.248
0.201
0.330
0.347
-0.185
-0.076
-0.110
-0.014
-0.149
-0.108
-0.212
-0.351
-0.197
-0.235
-0.194
0.030
-0.019
0.077
0.106
-0.073
-0.188
-0.358
-0.161
0.085
0.352
0.335
0.439
0.444
0.336
0.218
0.388
0.378
0.453
0.472
0.492
0.425
0.304
0.306
0.244
0.204
0.100
-0.034
-0.022
0.247
0.089
0.173
0.083
0.191
0.120
0.193
0.284
0.490
0.398
0.407
0.353
0.473
0.238
0.355
0.289
0.307
0.455
0.259
0.322
0.176
0.212
0.234
0.216
0.215
0.272
0.282
0.173
0.220
0.266
0.134
0.074
0.125
0.190
0.153
0.037
0.117
0.049
0.032
-0.006
-0.000
-0.002
-0.073
-0.032
-0.014
0.003
-0.174
-0.027
-0.189
-0.168
-0.103
-0.130
-0.150
-0.095
-0.044
-0.122
-0.122
-0.033
-0.189
-0.243
-0.213
-0.304
-0.201
0.246
0.127
-0.086
-0.180
-0.172
-0.238
-0.129
-0.210
-0.016
-0.043
0.015
0.029
-0.042
0.005
-0.187
-0.068
0.107
-0.096
0.018
0.024
0.033
-0.149
-0.080
0.056
0.052
0.114
0.025
-0.026
0.101
-0.123
0.036
0.043
0.132
0.096
0.019
0.007
0.072
-0.020
0.105
0.130
-0.004
0.013
0.104
0.112
0.178
0.099
0.053
-0.007
0.050
0.004
0.102
0.081
-0.007
0.008
0.171
0.129
0.151
0.080
0.009
0.021
-0.042
0.122
-0.020
-0.050
0.025
0.213
0.091
0.039
0.038
0.176
-0.019
0.064
0.096
-0.026
0.033
0.024
0.140
0.136
0.025
-0.046
0.056
0.094
0.008
0.006
0.002
0.072
0.032
0.067
0.040
-0.009
-0.067
0.001
0.002
0.045
0.035
0.047
-0.019
-0.019
-0.097
0.095
-0.073
-0.003
0.005
0.027
-0.018
-0.046
-0.025
0.022
-0.113
0.001
-0.047
0.074
-0.025
0.006
0.119
-0.001
0.024
-0.076
-0.072
-0.025
0.207
-0.070
0.047
-0.034
-0.059
-0.012
0.043
-0.006
0.053
0.039
0.029
-0.129
0.088
0.008
0.066
0.028
0.095
0.130
-0.049
0.022
0.143
-0.056
0.027
0.025
0.015
0.120
0.055
0.083
0.148
-0.051
-0.054
0.212
0.053
-0.011
0.094
-0.005
0.043
0.144
0.209
0.002
-0.193
0.119
0.240
0.061
0.104
0.009
0.005
0.015
-0.217
-0.061
0.126
0.148
-0.062
0.121
0.018
-0.035
0.028
0.029
-0.117
0.069
-0.052
0.012
0.028
0.087
-0.001
-0.052
-0.023
-0.020
-0.118
-0.095
0.094
0.007
-0.064
-0.027
0.109
0.030
-0.004
-0.025
0.025
-0.040
0.004
-0.124
-0.022
0.116
-0.008
-0.073
-0.092
-0.025
0.154
0.004
0.028
-0.026
-0.067
0.078
-0.063
0.000
0.036
-0.032
-0.010
0.046
-0.085
0.053
-0.095
-0.026
0.187
0.073
-0.034
0.029
0.025
0.046
-0.104
0.107
0.151
0.046
-0.141
-0.019
0.132
0.152
-0.025
0.074
-0.006
-0.002
-0.107
0.058
0.078
-0.024
0.167
0.032
0.064
0.052
-0.069
-0.031
0.043
0.081
0.099
0.085
0.140
0.054
-0.031
0.052
0.013
0.053
-0.096
0.050
-0.034
0.056
-0.266
0.218
0.442
0.146
0.117
-0.104
-0.156
-0.225
-0.004
0.038
0.136
0.093
0.135
-0.128
-0.047
-0.078
0.105
-0.014
-0.090
-0.075
-0.120
-0.030
0.063
0.137
-0.028
0.071
0.025
0.108
-0.391
-0.716
0.066
0.673
0.432
0.157
-2.867
-3.954
-3.836
-1.663
2.535
4.268
3.124
0.302
-1.549
-1.783
-1.231
0.054
1.285
2.256
2.624
2.924
2.475
1.929
1.046
0.490
-0.141
-0.722
-0.972
-1.090
-1.221
-1.300
-1.044
-0.963
-0.560
-0.535
-0.316
-0.211
-0.127
-0.000
0.234
0.036
-0.017
-0.092
0.125
-0.013
0.110
0.017
0.035
0.246
0.141
0.156
0.144
0.159
0.228
0.342
0.248
0.211
0.225
0.270
0.129
0.361
0.192
0.221
0.325
0.281
0.192
0.272
0.157
0.191
0.291
0.305
0.288
0.199
0.212
0.129
-0.010
0.200
0.193
0.058
0.157
-0.021
0.095
-0.071
0.056
-0.019
-0.013
0.036
-0.035
-0.016
-0.084
-0.093
0.012
-0.044
-0.070
-0.132
-0.104
-0.094
-0.137
-0.143
-0.137
-0.039
-0.089
-0.252
-0.057
0.036
0.038
-0.160
-0.108
-0.083
-0.036
-0.128
-0.073
0.006
0.009
-0.054
-0.096
-0.195
-0.333
-0.093
0.036
0.033
-1.386
-3.544
-2.037
-1.184
-1.034
0.929
0.429
-0.264
-0.613
-0.526
-0.057
1.430
1.520
1.414
0.745
0.953
1.949
2.823
3.001
2.505
1.303
0.256
0.811
0.844
0.056
-0.600
-1.044
-1.091
-1.173
-0.980
-0.673
-0.968
-0.774
-1.292
-0.788
-0.447
0.079
-0.159
0.156
-0.020
-0.289
-0.507
-0.512
-0.504
-0.193
0.161
0.150
0.057
0.707
1.026
1.157
1.043
0.630
0.506
0.490
0.444
0.409
-0.806
-3.067
-2.748
-0.483
3.170
4.080
2.467
0.445
-0.799
-1.077
-0.263
0.421
0.943
1.203
1.376
1.528
1.378
1.073
0.834
0.501
0.121
-0.070
-0.507
-0.521
-0.529
-0.638
-0.713
-0.438
-0.450
-0.283
-0.210
-0.197
-0.154
-0.092
-0.041
0.017
-0.095
-0.154
-0.154
-0.156
0.034
-0.116
-0.063
-0.074
-0.029
-0.109
-0.110
0.056
-0.060
-0.064
0.098
-0.119
0.130
-0.042
0.065
-0.036
0.076
0.054
0.259
0.055
0.203
0.070
-0.064
0.098
0.046
0.049
0.324
0.126
0.082
0.048
0.070
0.091
0.048
0.128
0.078
0.082
0.047
0.112
0.062
-0.044
0.089
0.018
0.075
0.108
0.062
-0.005
0.050
0.037
0.015
-0.117
-0.122
-0.069
-0.028
0.025
0.000
0.045
-0.101
0.002
0.008
0.034
-0.129
-0.008
0.016
-0.010
-0.059
0.030
-0.037
-0.114
0.011
0.107
0.041
-0.013
0.025
0.005
0.050
-0.022
-0.025
-0.004
-0.027
0.029
0.131
0.176
-0.104
0.058
0.145
0.074
0.073
0.093
-0.161
0.046
0.001
0.078
0.103
0.052
0.048
-0.032
0.082
-0.045
0.081
-0.002
-0.030
0.002
0.038
0.004
0.046
0.004
-0.022
0.015
0.037
0.096
-0.001
-0.036
-0.016
-0.048
-0.003
0.045
-0.168
0.013
-0.036
-0.065
-0.143
-0.224
-0.410
-0.378
-0.394
-0.580
-0.543
-0.722
-0.952
-0.813
-1.144
-0.773
-0.702
-0.408
0.648
1.251
1.278
1.133
0.389
0.264
0.281
0.649
0.987
1.106
1.273
1.072
0.866
0.617
0.278
-0.055
-0.321
-0.551
-0.556
-0.630
-0.609
-0.660
-0.712
-0.474
-0.430
-0.311
-0.180
-0.081
-0.116
-0.107
0.016
0.124
0.012
-0.023
-0.010
0.074
0.078
0.077
0.039
0.024
0.190
0.192
0.197
0.159
0.175
0.210
0.111
0.371
0.223
0.273
0.184
0.167
0.221
0.173
0.187
0.163
0.127
0.119
0.186
0.221
0.277
0.116
0.142
0.138
0.118
-0.070
0.132
0.269
0.214
0.062
-0.053
0.054
0.078
-0.141
0.097
0.142
0.104
-0.079
-0.048
0.087
-0.202
-0.085
-0.247
-0.012
-0.015
-0.089
-0.130
-0.054
-0.070
-0.048
-0.019
0.006
-0.097
-0.132
-0.155
-0.187
-0.115
-0.017
-0.091
0.130
-0.064
-0.063
-0.095
-0.019
-0.030
0.045
0.015
0.139
-0.163
-0.084
0.102
0.142
0.010
0.017
0.041
-0.123
0.058
0.030
0.020
0.089
-0.011
0.155
0.077
0.064
0.105
0.034
0.028
0.100
0.030
0.078
-0.005
-0.001
0.097
0.099
0.020
-0.034
0.054
-0.046
-0.012
0.015
0.002
0.109
-0.045
-0.037
-0.042
0.051
0.109
-0.060
-0.071
-0.089
0.066
0.015
0.049
-0.036
-0.182
-0.163
-0.235
-0.239
-0.073
-0.292
-0.393
-0.466
-0.173
0.046
-0.072
-0.062
-0.203
-0.407
-0.304
-0.062
0.095
0.110
0.076
0.065
-0.010
0.185
0.144
0.098
0.141
0.278
0.201
0.270
0.273
-0.042
0.037
0.098
0.183
0.126
0.125
-0.055
0.058
-0.092
-0.072
0.000
0.155
-0.192
-0.178
-0.311
-0.068
-0.100
-0.124
-0.266
-0.040
-0.096
-0.075
-0.055
-0.033
-0.164
-0.039
-0.117
-0.264
-0.052
-0.028
0.113
-0.037
-0.152
0.029
0.155
0.156
0.148
0.109
0.027
-0.027
0.014
-0.013
0.375
0.298
0.097
0.176
0.190
0.152
0.116
0.127
0.064
0.169
0.183
0.315
0.295
0.182
0.171
0.121
-0.076
0.241
0.358
0.125
0.088
-0.048
-0.051
0.148
0.203
0.143
0.115
0.183
-0.011
-0.003
0.036
-0.021
0.161
0.193
-0.042
0.104
0.139
0.093
0.099
-0.027
0.013
0.038
0.004
0.048
0.193
0.020
-0.027
-0.004
0.040
0.116
0.121
0.054
0.013
-0.006
-0.014
0.115
0.020
0.036
0.016
0.093
0.060
-0.026
0.220
0.036
-0.125
-0.051
0.103
0.030
-0.043
-0.051
-0.017
0.077
-0.001
0.051
-0.058
0.013
0.002
-0.120
-0.007
-0.044
-0.033
-0.020
-0.043
-0.011
-0.031
0.116
-0.032
-0.055
-0.051
-0.034
-0.028
-0.126
-0.119
0.168
0.133
-0.026
-0.071
-0.088
-0.052
-0.127
0.047
-0.042
-0.017
0.073
-0.009
-0.076
-0.063
-0.086
0.013
-0.029
0.115
0.058
-0.060
0.083
-0.020
-0.092
0.088
0.045
0.005
-0.007
0.036
0.047
0.155
-0.087
0.082
0.014
-0.008
0.026
0.033
0.047
0.190
0.079
0.080
-0.012
-0.009
0.007
0.016
0.013
0.127
0.001
0.013
0.029
0.096
-0.052
-0.022
-0.093
0.123
0.130
-0.087
0.112
0.060
0.062
-0.014
-0.031
-0.048
-0.061
0.166
0.014
0.003
-0.121
-0.057
0.084
-0.105
0.088
0.015
-0.121
-0.005
0.091
0.077
0.163
-0.065
-0.059
-0.185
0.072
0.055
0.114
-0.071
0.001
0.008
-0.050
0.075
-0.038
-0.074
0.057
0.049
0.021
0.061
-0.095
0.021
0.045
0.054
-0.062
0.086
0.131
-0.070
-0.024
-0.019
0.011
0.077
0.112
-0.072
0.078
0.026
-0.061
-0.022
0.006
0.120
0.050
-0.021
-0.091
0.023
-0.018
0.058
0.097
0.174
0.019
-0.114
0.089
-0.072
0.025
0.073
0.126
-0.002
-0.072
-0.001
0.029
0.078
0.048
0.061
0.009
0.026
-0.090
0.069
-0.073
0.045
0.002
0.074
0.185
0.048
0.050
0.006
-0.057
-0.021
0.163
0.055
-0.107
0.033
0.037
0.012
-0.031
0.002
0.044
0.043
-0.013
0.059
0.032
0.031
0.002
0.121
0.016
0.129
0.022
0.046
-0.118
-0.021
0.022
-0.091
0.137
0.078
0.053
0.043
-0.067
-0.009
0.034
-0.022
-0.073
-0.052
0.034
0.045
0.024
0.020
-0.009
-0.068
0.090
-0.030
0.023
0.069
0.004
0.015
-0.001
0.004
0.089
0.051
-0.076
0.019
0.066
0.036
0.143
-0.091
-0.020
0.063
-0.037
-0.064
0.074
0.016
0.100
-0.021
0.073
-0.076
-0.034
-0.083
0.039
0.120
-0.102
-0.170
0.033
0.156
0.126
0.155
-0.060
-0.051
-0.129
-0.081
0.069
0.049
0.002
0.023
0.104
0.048
-0.142
0.019
-0.006
-0.018
0.124
-0.041
0.038
-0.036
0.004
0.108
-0.125
-0.015
-0.035
0.140
0.099
0.058
-0.028
0.011
0.024
-0.099
0.037
-0.354
-0.218
-0.203
-0.085
-0.035
0.062
0.049
-0.065
-0.150
-0.190
-0.056
-0.043
-0.106
0.241
0.357
0.416
0.360
0.080
0.051
0.165
0.226
0.148
0.108
0.138
0.063
0.056
0.003
-0.038
-0.028
-0.144
-0.200
-0.022
-0.076
-0.179
-0.062
-0.095
-0.168
0.007
-0.034
-0.172
0.079
0.045
-0.041
0.011
-0.022
0.000
0.041
-0.008
0.155
0.041
0.094
0.066
0.160
0.012
0.119
0.120
0.020
0.033
0.096
0.044
0.074
0.106
0.069
0.053
0.086
0.054
0.072
0.159
-0.098
-0.002
0.075
0.044
0.072
0.076
0.087
0.136
0.052
0.060
-0.028
-0.036
-0.002
0.083
0.158
-0.062
0.049
-0.045
-0.013
-0.082
0.041
-0.007
0.060
0.197
-0.217
0.028
0.084
0.081
-0.050
-0.006
-0.002
-0.116
-0.011
0.078
0.065
0.005
0.045
-0.006
0.043
-0.013
-0.092
-0.032
0.010
0.030
-0.012
0.013
0.028
-0.054
-0.069
0.290
0.135
0.031
-0.022
0.049
-0.021
-0.049
-0.042
0.139
0.030
0.006
0.013
0.102
0.031
0.084
-0.066
-0.037
0.038
-0.106
0.080
0.032
-0.011
0.002
0.125
-0.051
0.092
-0.033
0.058
-0.007
0.109
0.070
-0.171
-0.107
0.101
0.163
0.002
-0.033
-0.019
-0.143
0.093
-0.074
-0.090
-0.003
-0.007
0.018
-0.042
-0.103
0.055
0.106
0.142
0.155
0.101
0.064
0.050
0.117
-0.046
0.066
0.123
0.123
0.084
0.085
0.126
-0.037
-0.008
-0.183
-0.106
-0.015
0.012
0.077
-0.041
0.059
-0.112
-0.164
-0.057
0.066
0.265
0.184
0.078
0.030
-0.084
-0.010
0.095
-0.095
-0.003
-0.013
0.153
0.062
-0.043
0.111
0.050
0.025
-0.199
-0.070
0.033
0.123
-0.086
0.050
0.015
0.057
0.008
-0.020
-0.151
0.095
0.052
-0.048
0.104
-0.039
-0.038
0.047
-0.003
0.000
0.047
0.042
0.027
0.017
0.049
-0.020
0.013
0.120
-0.080
-0.040
0.005
0.039
0.065
-0.084
-0.072
0.120
0.092
0.063
-0.060
-0.015
-0.074
-0.035
-0.059
-0.003
0.089
-0.025
0.128
0.093
-0.084
-0.071
-0.083
-0.007
0.092
0.110
-0.028
-0.070
0.029
-0.014
-0.046
-0.017
-0.066
0.104
0.078
0.025
0.016
0.031
-0.001
0.034
-0.116
0.155
0.067
-0.082
0.043
-0.005
-0.043
0.008
-0.035
0.052
0.088
0.006
-0.007
0.041
0.018
-0.018
-0.037
0.054
0.169
0.044
0.080
-0.029
-0.026
-0.087
0.091
-0.014
-0.016
-0.027
0.125
0.006
-0.021
0.003
0.006
-0.067
0.006
0.020
0.011
0.007
0.068
0.103
0.026
-0.082
-0.055
0.079
-0.037
0.062
0.143
0.092
0.015
0.093
0.056
-0.108
0.108
-0.000
0.075
0.043
0.006
-0.109
-0.155
-0.139
-0.301
-0.181
-0.329
-0.462
-0.516
-0.749
-0.775
-0.695
0.037
0.261
0.094
-0.204
-0.106
-0.306
-0.799
-0.363
0.224
0.783
1.043
1.292
1.179
0.736
0.383
0.386
0.337
0.523
0.505
0.452
0.452
0.282
0.170
0.095
-0.119
-0.115
-0.357
-0.460
-0.407
-0.354
-0.439
-0.427
-0.440
-0.395
-0.204
-0.163
-0.148
-0.119
-0.068
0.008
0.053
0.044
-0.108
-0.002
0.094
0.080
0.195
0.095
0.231
0.219
0.115
0.158
0.247
0.209
0.316
0.280
0.198
0.150
0.233
0.237
0.162
0.071
-0.070
-0.253
0.388
0.506
0.319
0.231
0.170
0.084
0.185
0.073
0.120
0.123
0.194
0.262
0.371
0.183
0.025
-0.017
0.085
0.070
-0.089
0.018
-0.082
-0.039
-0.152
-0.037
-0.188
-0.071
-0.123
-0.108
-0.167
0.003
-0.026
-0.120
-0.136
-0.131
-0.089
-0.178
0.015
0.009
-0.016
-0.018
-0.206
-0.122
-0.007
-0.003
-0.118
-0.083
0.119
-0.043
-0.092
-0.033
0.056
-0.048
-0.026
0.081
0.034
0.048
-0.003
-0.047
0.023
0.096
0.209
-0.032
-0.060
0.021
0.068
0.028
0.044
0.070
0.009
0.064
0.026
-0.013
0.049
0.145
-0.089
0.057
0.124
0.028
-0.048
0.009
0.077
0.081
0.015
0.174
0.100
-0.068
-0.028
-0.036
0.064
0.013
0.114
-0.072
-0.011
-0.043
0.032
0.017
-0.199
-0.039
0.028
-0.044
-0.031
-0.055
-0.206
-0.338
-0.347
-0.426
-0.578
-0.686
-0.676
-0.698
-0.713
-0.819
-0.731
-0.749
-1.173
-0.812
-0.415
-0.177
0.282
0.427
0.622
0.536
0.176
0.410
0.461
0.682
0.730
0.823
1.192
1.129
0.801
0.704
0.543
0.417
0.086
-0.174
-0.255
-0.352
-0.254
-0.325
-0.159
-0.300
-0.229
-0.465
-0.493
-0.571
-0.617
-0.206
-0.311
-0.351
-0.349
-0.314
-0.169
-0.314
-0.426
0.075
0.189
0.381
0.196
0.193
0.141
0.212
0.267
0.287
0.307
0.360
0.358
0.280
0.309
0.307
0.229
0.258
0.228
0.230
0.236
0.331
0.348
0.296
0.239
0.334
0.216
0.280
0.378
0.281
0.277
0.389
0.253
0.318
0.228
0.233
0.230
0.315
0.296
0.238
0.221
0.123
0.163
0.246
0.114
0.161
0.041
0.180
0.138
-0.037
0.017
0.031
-0.049
0.004
0.159
-0.102
-0.047
-0.071
-0.057
-0.041
-0.059
0.014
-0.166
-0.029
0.031
-0.111
-0.193
-0.041
-0.097
-0.148
-0.102
0.000
-0.007
-0.157
-0.054
-0.050
-0.118
-0.120
-0.073
-0.140
-0.061
-0.067
-0.159
-0.054
-0.052
-0.183
-0.061
0.034
-0.011
-0.084
-0.011
-0.031
0.050
-0.062
0.022
0.026
-0.041
-0.053
0.056
0.046
-0.133
0.172
0.060
0.094
0.053
-0.015
0.094
-0.036
0.084
-0.028
-0.013
-0.023
0.116
0.019
-0.068
-0.013
0.035
0.006
-0.125
0.058
0.213
-0.044
-0.069
0.017
0.073
-0.055
0.179
-0.041
0.052
0.070
0.067
-0.000
0.030
0.028
0.003
0.031
0.122
-0.031
0.076
0.114
0.016
0.055
0.126
0.056
-0.015
0.072
0.135
0.011
-0.019
0.100
0.096
0.175
0.119
0.099
0.060
-0.085
-0.031
0.100
0.033
0.114
-0.092
0.072
0.048
0.053
0.044
-0.083
0.153
0.028
-0.033
-0.022
-0.052
0.027
0.059
-0.011
-0.077
0.050
0.032
-0.103
-0.035
0.064
-0.011
-0.110
-0.037
0.054
-0.078
0.113
-0.122
-0.059
0.029
0.077
-0.070
-0.043
-0.128
-0.058
0.044
0.023
0.045
-0.120
-0.102
0.014
0.006
0.015
-0.002
-0.039
0.050
0.034
-0.092
-0.003
0.052
0.078
0.109
0.005
0.018
0.048
-0.132
-0.083
0.061
0.128
0.190
0.022
-0.069
-0.017
0.104
-0.141
0.076
0.004
0.184
0.147
0.112
0.131
0.038
0.058
-0.127
-0.037
0.023
0.109
0.092
0.196
0.103
0.120
-0.025
0.025
-0.075
0.214
0.011
-0.020
-0.005
0.135
0.046
0.038
-0.043
0.147
0.009
0.026
0.030
-0.068
0.036
0.057
-0.052
0.165
0.043
-0.010
0.009
-0.047
0.029
-0.003
0.109
-0.115
-0.072
-0.014
0.033
0.130
-0.019
-0.030
-0.100
0.018
0.033
0.040
-0.034
-0.069
0.055
-0.061
-0.071
0.206
-0.023
-0.083
-0.009
0.003
-0.013
0.063
0.044
0.015
-0.033
-0.010
0.061
-0.076
0.093
-0.022
0.010
0.027
0.019
-0.060
-0.005
0.074
0.163
-0.039
0.215
0.115
0.051
0.009
-0.084
0.093
0.097
0.007
0.041
-0.018
0.000
-0.003
0.079
-0.010
0.081
0.115
0.019
0.052
0.084
0.017
-0.116
0.180
0.053
-0.003
-0.154
0.028
0.010
0.047
0.021
-0.004
0.055
0.080
-0.046
-0.084
-0.017
0.085
0.065
0.004
0.008
-0.017
0.087
-0.002
0.099
0.070
0.020
0.074
0.076
-0.062
0.080
0.031
-0.071
0.115
-0.086
-0.111
0.043
-0.102
0.054
0.042
0.006
-0.006
0.088
0.040
-0.111
0.139
-0.104
0.017
0.048
-0.001
-0.049
-0.021
0.145
-0.003
0.011
-0.130
0.086
0.091
-0.110
-0.046
0.111
-0.001
0.017
0.141
-0.111
0.030
0.090
0.076
0.066
-0.058
0.085
0.058
0.004
-0.021
0.079
-0.035
0.034
0.067
0.006
-0.044
0.021
-0.044
0.153
0.030
0.067
-0.055
0.024
-0.060
-0.012
0.043
0.054
0.100
0.102
-0.031
0.075
0.001
-0.021
0.098
0.013
0.078
0.117
0.037
0.017
-0.022
-0.056
0.061
0.023
-0.002
-0.017
0.048
0.050
-0.032
0.078
-0.028
0.066
0.123
0.051
-0.107
0.047
0.012
0.002
-0.018
0.143
0.014
-0.064
0.085
0.099
0.014
0.032
-0.120
-0.011
0.124
-0.046
0.025
-0.064
0.082
0.029
0.033
0.099
-0.140
0.044
0.082
0.040
0.089
-0.056
0.011
0.023
-0.030
-0.041
0.069
0.114
-0.019
0.004
-0.129
0.120
0.026
0.059
0.087
-0.055
-0.049
0.157
0.037
-0.033
-0.003
0.072
0.024
0.129
0.025
0.009
-0.009
0.008
-0.065
0.053
0.013
-0.044
0.057
-0.032
-0.060
0.049
0.232
-0.089
0.151
-0.090
0.109
0.049
-0.034
0.124
-0.043
0.049
0.019
0.079
-0.084
0.066
0.166
-0.046
0.150
0.014
-0.109
-0.110
0.050
0.149
0.171
0.074
-0.141
0.037
0.094
0.027
0.009
0.057
-0.004
0.130
0.025
0.114
0.069
0.004
0.003
-0.077
-0.045
0.037
0.064
0.115
0.064
-0.076
0.047
0.090
0.024
0.032
-0.008
-0.011
0.060
0.056
-0.021
-0.000
-0.017
-0.008
0.165
0.095
-0.025
-0.060
0.045
-0.059
0.079
0.058
0.070
-0.098
-0.039
0.087
-0.030
0.059
0.053
-0.050
0.061
-0.021
0.086
-0.068
0.024
0.007
-0.075
-0.043
0.196
0.044
-0.015
-0.076
-0.058
-0.019
-0.006
0.014
-0.088
0.032
0.019
-0.088
-0.024
-0.155
-0.119
-0.111
0.006
0.019
-0.005
0.034
0.016
0.099
-0.119
-0.155
-0.046
0.063
0.071
0.054
0.007
0.060
0.041
0.019
-0.045
-0.048
-0.094
0.038
0.151
0.014
-0.045
-0.049
0.007
0.165
-0.080
-0.141
0.003
0.030
0.062
0.044
-0.099
-0.091
0.077
0.018
-0.014
-0.129
-0.020
0.023
-0.066
0.049
-0.054
0.028
-0.050
-0.047
-0.002
0.101
0.052
0.012
0.042
-0.026
0.140
0.067
-0.032
0.000
0.047
-0.002
0.162
0.012
0.028
-0.006
0.027
0.042
0.160
0.041
0.140
-0.029
0.041
0.113
0.040
0.085
0.000
-0.034
-0.059
-0.061
0.086
0.124
0.015
-0.045
0.016
0.003
0.104
-0.079
-0.046
0.099
0.154
0.032
0.054
-0.011
0.042
0.062
0.052
-0.034
0.074
0.048
0.047
0.137
0.111
0.004
-0.009
0.086
0.095
0.081
-0.009
0.033
0.030
-0.097
-0.008
-0.027
0.035
-0.093
-0.146
-0.206
-0.359
-0.426
-0.484
-0.511
-0.620
-0.752
-0.341
-0.188
-0.340
-1.179
-0.858
0.050
1.113
1.523
1.032
0.478
0.320
0.355
0.515
0.726
0.988
0.847
0.775
0.764
0.650
0.421
-0.065
-0.218
-0.418
-0.348
-0.728
-0.424
-0.680
-0.592
-0.359
-0.464
-0.279
-0.170
-0.135
-0.091
0.016
-0.033
-0.102
0.023
0.029
0.022
-0.065
-0.028
0.078
0.076
0.123
0.095
0.059
0.251
0.078
0.233
0.197
0.297
0.198
0.169
0.229
0.207
0.253
0.186
0.120
0.239
0.056
0.192
0.280
0.085
0.102
0.176
0.106
0.178
0.100
0.134
0.048
0.118
0.208
0.013
0.022
0.138
0.178
0.054
-0.039
-0.021
0.094
0.232
0.111
-0.051
-0.151
-0.107
-0.025
-0.022
-0.069
-0.088
-0.132
-0.013
0.104
0.002
-0.139
-0.040
-0.213
-0.135
0.063
-0.067
-0.083
-0.017
0.007
-0.062
-0.043
0.010
0.073
-0.068
0.084
-0.069
-0.128
0.119
-0.168
-0.028
0.021
0.069
-0.042
-0.012
0.097
0.086
0.048
-0.012
0.080
-0.103
0.135
0.050
0.024
0.113
0.090
0.130
0.064
-0.101
0.132
0.139
0.142
-0.039
0.080
0.017
0.051
0.056
0.076
-0.058
-0.011
0.029
0.021
0.091
0.004
0.029
-0.132
-0.007
0.029
-0.082
0.059
0.048
0.049
-0.055
-0.167
-0.169
-0.192
-0.145
-0.327
-0.411
-0.794
-0.682
-0.425
-0.580
-0.869
-1.659
-1.723
-1.146
-0.821
-0.678
-1.199
-1.709
-1.516
-0.043
0.634
0.659
0.039
0.754
0.508
0.108
0.103
1.008
1.887
2.256
2.133
1.573
1.223
0.703
0.598
0.384
0.330
0.009
0.090
-0.148
-0.361
-0.217
-0.485
-0.725
-0.863
-0.871
-0.749
-0.889
-0.747
-0.743
-0.781
-0.528
-0.387
-0.212
-0.250
-0.195
-0.108
-0.119
-0.029
-0.138
-0.057
0.128
-0.066
-0.070
0.334
0.794
0.723
0.720
0.411
0.343
0.596
0.540
0.556
0.636
0.665
0.690
0.735
0.455
0.643
0.543
0.524
0.515
0.463
0.247
0.335
0.335
0.297
0.272
0.460
0.346
0.343
0.283
0.492
0.401
0.363
0.345
0.251
0.115
0.320
0.222
0.189
0.001
0.061
0.045
0.075
-0.011
0.182
-0.020
-0.185
-0.115
-0.040
-0.081
-0.216
-0.100
-0.041
-0.124
-0.137
-0.057
-0.105
-0.098
-0.112
-0.217
-0.182
0.029
-0.179
-0.090
-0.141
-0.152
-0.019
-0.077
-0.120
-0.078
-0.044
-0.120
-0.066
-0.021
-0.108
-0.090
-0.031
-0.032
-0.047
-0.004
-0.089
0.023
-0.099
0.028
-0.066
-0.094
0.060
-0.042
-0.028
-0.020
0.155
-0.031
-0.007
0.063
-0.095
-0.089
0.006
0.101
-0.016
-0.061
0.012
0.103
-0.017
-0.103
-0.055
-0.084
-0.011
-0.043
0.118
-0.085
0.085
0.036
-0.146
0.058
0.078
-0.025
-0.031
-0.014
-0.073
0.111
0.081
-0.050
0.049
0.097
-0.020
-0.044
-0.023
0.185
-0.143
0.026
0.344
0.099
0.147
-0.049
-0.056
0.130
0.059
0.153
0.084
0.119
0.000
0.097
0.286
0.026
0.002
0.026
0.144
0.176
0.060
0.005
0.054
0.012
0.068
0.064
-0.034
-0.050
0.091
0.141
0.082
-0.054
0.042
0.034
0.017
0.056
0.040
-0.064
-0.083
0.016
0.068
-0.042
-0.150
-0.051
-0.102
-0.026
-0.033
0.026
-0.084
-0.006
-0.025
-0.013
-0.080
-0.037
0.002
-0.115
-0.177
-0.090
-0.022
0.057
0.056
-0.072
-0.069
-0.106
0.080
0.044
0.011
-0.066
-0.077
-0.014
-0.170
0.005
0.072
0.129
-0.027
0.035
-0.046
-0.070
0.079
0.100
-0.059
0.036
0.091
-0.065
0.114
0.047
0.094
-0.041
0.039
0.209
0.043
0.120
0.080
0.062
0.005
0.074
0.114
0.058
0.116
0.085
0.200
-0.009
0.186
-0.052
0.014
0.076
0.050
0.061
-0.028
0.243
0.059
0.097
0.014
-0.051
-0.020
0.143
0.058
-0.005
0.095
-0.118
0.117
-0.075
0.021
0.177
0.079
0.011
0.042
-0.057
-0.061
-0.082
-0.037
-0.038
-0.047
0.003
0.115
0.047
-0.035
-0.105
-0.034
-0.024
-0.042
0.026
-0.096
0.055
-0.018
0.151
-0.067
-0.005
-0.042
0.086
-0.132
0.024
0.102
0.069
-0.104
-0.088
-0.110
0.067
0.033
-0.010
-0.152
-0.021
0.120
0.122
0.190
0.000
0.130
-0.013
0.011
0.023
0.028
0.041
0.039
0.052
0.221
-0.010
0.054
0.091
-0.065
0.003
0.047
0.020
-0.093
-0.022
0.116
0.163
-0.047
0.060
0.044
0.045
0.062
0.050
0.017
0.049
0.092
-0.032
-0.031
0.030
0.087
-0.013
-0.040
0.018
0.023
0.017
0.125
0.049
-0.057
0.019
-0.106
0.074
0.041
0.021
0.109
-0.223
0.156
-0.005
-0.020
-0.028
0.070
0.038
0.095
0.003
0.026
-0.168
0.033
-0.105
-0.037
0.151
0.139
-0.010
-0.020
-0.093
0.063
-0.046
0.037
0.087
0.077
-0.009
-0.086
-0.034
0.070
-0.012
-0.088
0.145
0.070
0.029
-0.017
0.046
-0.082
0.045
0.028
0.021
0.042
0.150
-0.081
-0.012
0.036
0.033
-0.035
0.031
0.049
0.066
-0.010
-0.060
-0.081
-0.019
0.062
0.032
0.008
0.001
0.028
0.036
-0.040
-0.086
0.028
-0.034
-0.016
-0.009
-0.050
0.127
0.121
0.101
0.009
0.037
-0.126
0.069
-0.066
0.057
0.095
0.076
0.116
-0.027
-0.021
0.037
-0.046
-0.110
0.136
-0.062
-0.117
-0.016
0.064
0.160
0.074
-0.033
-0.051
-0.077
-0.010
0.040
0.031
0.163
-0.027
0.029
-0.064
0.019
-0.061
0.105
-0.127
0.006
0.138
0.077
0.071
-0.084
-0.006
0.121
0.056
-0.126
0.001
0.046
0.096
-0.016
0.019
-0.066
0.001
-0.108
0.002
-0.116
0.015
0.062
-0.039
-0.011
-0.066
-0.002
0.033
-0.011
0.085
-0.060
0.042
0.111
0.132
-0.006
-0.060
0.039
0.014
-0.117
0.149
0.079
-0.015
-0.057
-0.077
0.099
0.007
0.062
-0.021
0.094
0.053
0.018
-0.014
-0.081
0.051
0.143
0.026
0.011
0.017
0.048
0.024
-0.066
0.082
0.008
0.032
0.063
-0.044
0.089
0.169
-0.111
-0.009
0.034
-0.015
0.048
0.023
-0.014
0.060
-0.107
0.172
-0.018
0.123
0.218
-0.184
-0.353
0.007
0.120
0.264
0.155
0.010
0.017
0.084
0.046
0.014
-0.149
0.011
0.155
-0.049
0.085
0.115
0.050
-0.079
-0.012
-0.008
0.078
0.091
-0.094
-0.085
-0.030
0.144
0.182
-0.112
-0.118
0.127
0.193
0.125
0.044
-0.111
-0.031
0.134
0.107
0.202
-0.029
-0.138
0.057
0.172
-0.025
0.082
0.143
0.010
-0.103
-0.081
0.047
0.007
0.073
-0.036
0.040
0.116
0.053
0.152
0.057
0.035
0.028
0.043
-0.087
-0.037
-0.079
-0.036
0.013
0.019
-0.033
-0.096
-0.118
-0.131
-0.192
-0.053
-0.033
-0.112
-0.092
-0.088
-0.101
-0.070
-0.021
-0.108
-0.015
0.017
0.149
0.079
0.049
0.023
0.162
0.166
0.083
-0.047
0.116
0.086
0.120
0.058
0.006
0.142
0.153
0.099
-0.025
-0.131
0.027
-0.196
-0.080
0.025
-0.046
-0.039
-0.045
-0.191
0.087
-0.149
-0.367
0.166
0.116
-0.053
0.161
-0.052
-0.245
-0.134
-0.128
0.050
-0.029
0.015
-0.211
-0.418
-0.925
-1.071
-0.914
-0.753
-0.798
-0.676
-0.579
-0.278
-0.210
-0.180
-0.249
-0.323
-0.202
-0.068
-0.032
0.224
0.490
0.695
0.855
0.925
0.783
0.556
0.249
0.287
0.154
0.295
0.084
-0.011
-0.111
-0.156
-0.088
-0.087
-0.184
-0.326
-0.133
-0.283
-0.275
-0.322
-0.377
-0.247
-0.163
-0.020
-0.125
-0.569
-0.166
0.671
1.107
0.954
0.530
0.202
0.078
0.197
0.152
0.233
0.403
0.335
0.337
0.461
0.185
-0.223
-0.360
-0.103
-0.244
-0.169
-0.271
-0.278
-0.111
-0.014
0.065
0.218
0.234
0.192
0.244
0.330
0.292
0.379
0.433
0.461
0.531
0.364
0.406
0.435
0.397
0.299
0.401
0.408
0.326
0.439
0.356
0.319
0.368
0.319
0.240
0.382
0.105
0.185
0.151
0.244
0.130
0.186
0.025
0.064
0.125
0.007
-0.036
-0.060
-0.099
-0.146
-0.135
-0.054
0.018
-0.130
-0.090
-0.151
-0.188
-0.105
-0.321
-0.184
-0.227
-0.165
-0.129
-0.353
-2.908
0.111
1.945
1.638
0.572
-0.229
-0.684
-0.690
-0.557
-0.246
0.033
0.359
0.413
0.429
0.352
0.317
0.235
0.017
-0.143
-0.117
-0.171
-0.332
-0.214
-0.143
-0.166
-0.091
-0.103
0.005
0.036
0.081
0.145
-0.062
0.078
0.098
0.063
0.216
0.046
0.019
-0.335
-0.834
-0.493
-0.019
0.100
0.078
-0.079
-0.020
-0.075
-0.170
-0.091
-0.130
0.100
0.191
0.676
0.825
0.864
0.621
0.431
0.273
0.316
0.275
0.288
-0.109
-0.621
-1.075
-1.415
-1.350
-0.944
-0.499
-0.616
-0.654
0.017
0.132
-0.145
-0.656
-0.246
0.015
0.427
0.362
0.656
0.850
1.088
0.944
0.790
0.500
0.381
0.497
0.205
0.014
-0.144
-0.252
-0.393
-0.248
-0.038
-0.023
-0.133
-0.053
-0.163
0.074
0.094
0.064
-0.114
-0.224
-0.043
-0.072
-0.202
-0.095
-0.164
-0.295
-0.250
-0.164
0.002
0.073
-0.036
-0.018
-0.028
0.014
0.082
0.123
0.164
0.069
0.141
0.136
0.251
0.147
0.221
0.251
0.195
0.144
0.244
0.165
0.195
0.201
0.164
0.266
0.217
0.122
0.149
0.229
0.168
0.098
0.171
0.133
0.219
0.132
0.009
-0.055
0.141
0.162
0.022
-0.010
0.128
-0.057
-0.167
0.159
0.102
0.186
-0.042
-0.061
0.042
-0.059
-0.076
0.017
-0.011
0.040
-0.017
-0.100
0.131
0.091
0.051
-0.113
0.007
0.006
0.145
0.021
0.015
0.077
0.110
0.108
0.002
-0.049
0.003
-0.152
-0.033
0.069
0.049
-0.015
-0.043
-0.074
-0.094
-0.059
-0.048
0.044
-0.008
-0.061
-0.025
0.001
0.020
-0.017
-0.027
-0.002
-0.110
0.096
0.023
0.142
-0.021
-0.039
0.029
0.090
-0.034
-0.025
0.005
0.068
0.070
0.022
-0.039
0.111
-0.075
0.044
0.013
0.047
0.072
0.139
-0.080
0.049
0.011
0.064
0.076
-0.052
-0.051
0.091
0.164
-0.089
-0.137
0.128
0.026
0.048
0.120
0.014
0.020
-0.064
0.110
-0.022
0.027
0.063
0.003
-0.023
0.147
0.004
0.008
0.008
-0.054
0.168
0.059
0.052
-0.010
0.004
0.041
0.078
-0.012
0.059
-0.088
-0.142
0.078
0.130
0.203
0.046
0.028
0.099
-0.091
-0.173
0.033
0.082
0.022
0.052
-0.060
-0.007
-0.025
-0.075
-0.062
-0.095
0.027
0.092
-0.094
-0.065
-0.070
-0.056
-0.019
0.062
0.035
-0.082
-0.060
0.029
-0.017
-0.069
-0.043
-0.015
-0.069
-0.039
0.043
-0.021
-0.030
-0.116
-0.089
-0.047
0.123
0.079
-0.065
-0.006
-0.009
-0.022
-0.019
0.086
0.099
-0.049
-0.013
-0.015
0.073
0.036
0.012
0.166
0.081
0.010
-0.046
-0.050
-0.032
0.118
0.074
0.044
-0.043
-0.018
0.149
0.065
0.069
0.210
0.033
0.028
0.033
0.043
0.037
0.114
0.021
0.101
0.198
0.026
-0.050
0.040
0.069
0.053
0.062
0.033
0.104
0.064
-0.049
0.087
0.051
0.127
-0.032
0.035
0.038
-0.042
-0.017
-0.001
0.097
0.157
-0.063
-0.029
0.095
0.042
-0.047
0.029
-0.072
0.033
0.062
0.059
0.061
-0.034
-0.091
0.047
-0.011
-0.033
0.128
0.015
0.065
-0.005
-0.027
0.003
-0.003
0.054
-0.049
0.019
-0.171
-0.035
0.107
0.006
0.089
0.047
0.080
0.033
-0.081
0.013
-0.088
-0.028
0.075
0.043
0.071
0.017
0.009
-0.013
0.024
0.082
-0.038
-0.015
0.019
0.049
0.040
-0.022
0.010
0.077
0.052
-0.024
0.038
0.152
0.053
0.026
-0.066
0.098
0.118
-0.019
0.009
-0.081
0.055
0.071
0.111
0.066
0.040
0.107
0.064
-0.038
-0.062
0.051
-0.133
0.024
0.036
0.077
0.017
0.056
-0.212
-0.013
0.123
-0.064
-0.015
0.062
0.049
0.077
0.089
-0.072
-0.062
-0.003
0.068
-0.005
-0.088
0.059
0.133
-0.028
-0.010
0.020
-0.021
0.058
-0.024
0.060
-0.040
-0.048
0.042
-0.067
0.066
-0.013
0.102
-0.054
-0.066
0.002
0.003
0.074
0.053
-0.075
0.087
0.067
0.098
0.003
0.034
0.147
-0.009
0.049
-0.156
0.008
0.134
0.074
0.106
-0.075
0.029
-0.021
0.024
-0.058
-0.064
0.153
0.047
0.001
-0.021
0.108
0.062
-0.044
0.018
-0.133
-0.054
0.056
0.100
0.010
-0.075
0.158
0.056
-0.027
0.074
0.017
-0.132
0.152
0.042
0.108
-0.023
-0.001
0.005
0.037
-0.008
0.094
0.098
0.153
0.025
-0.106
0.134
-0.009
-0.040
0.107
0.118
0.050
-0.093
-0.092
-0.067
0.014
0.061
-0.144
-0.078
-0.037
-0.138
-0.140
-0.238
-0.095
-0.083
-0.164
-0.135
-0.087
-0.023
-0.040
-0.110
-0.114
0.053
-0.015
-0.021
-0.038
0.037
0.174
0.026
-0.040
0.177
0.229
0.260
0.240
0.278
0.098
0.197
0.026
-0.008
0.075
0.279
0.093
-0.012
0.027
0.003
0.064
0.018
-0.002
-0.105
-0.235
-0.277
-0.247
-0.209
-0.207
-0.044
-0.037
0.080
-0.096
-0.179
-0.015
-0.055
-0.172
0.083
-0.006
0.265
0.107
-0.048
0.102
0.024
0.017
0.066
0.157
0.037
-0.007
0.062
0.228
0.222
0.054
-0.010
0.129
0.076
0.169
0.167
0.144
-0.003
0.270
0.150
0.069
0.194
0.132
0.110
0.042
0.069
0.196
0.024
0.075
0.072
0.089
0.096
-0.024
0.009
0.010
-0.011
0.047
0.105
-0.043
-0.091
0.004
-0.058
0.157
-0.001
-0.084
0.158
0.068
-0.117
-0.060
0.058
0.068
0.008
-0.006
-0.006
0.023
-0.015
0.116
-0.031
-0.052
0.079
0.142
0.010
-0.068
0.065
-0.030
0.124
-0.023
-0.016
0.042
0.093
0.003
0.087
-0.056
-0.128
0.071
0.112
0.152
0.044
-0.007
0.102
-0.032
-0.132
-0.061
0.083
0.039
0.092
0.074
-0.055
-0.023
0.134
-0.000
0.028
0.078
-0.007
-0.080
0.043
-0.057
0.074
0.007
-0.024
0.166
-0.022
0.111
-0.038
-0.021
-0.168
-0.015
0.016
0.206
0.030
0.004
-0.055
-0.007
0.115
-0.015
0.085
-0.011
0.102
-0.039
-0.024
-0.019
0.092
-0.009
0.110
0.016
-0.013
-0.034
0.082
0.023
0.021
0.082
-0.101
-0.075
0.044
0.019
0.041
0.053
-0.080
0.013
0.087
0.000
-0.001
-0.118
0.081
0.051
-0.076
0.091
0.066
0.126
0.028
-0.034
-0.009
0.072
-0.025
-0.053
-0.119
-0.018
-0.128
-0.226
-0.329
-0.492
-0.245
-0.186
-0.103
-0.128
-0.285
-0.208
-0.324
-0.206
-0.273
-0.182
-0.256
-0.143
-0.064
0.021
0.229
0.061
0.166
-0.132
-0.119
-0.132
-0.043
0.412
0.240
0.385
0.421
0.366
0.061
0.095
0.122
-0.098
0.145
0.032
0.176
0.047
0.119
-0.063
-0.191
-0.429
-0.358
-0.223
-0.094
-0.227
-0.194
-0.197
-0.141
-0.055
-0.191
-0.125
-0.229
-0.095
0.069
0.104
0.062
0.076
0.090
0.043
0.070
0.032
0.133
0.105
0.080
-0.007
0.171
0.155
0.124
0.162
0.075
0.103
0.109
0.154
0.177
0.202
0.089
0.178
0.432
0.307
0.187
-0.054
-0.146
0.009
0.261
0.183
-0.050
0.030
0.333
0.584
0.894
0.564
0.282
0.111
0.185
0.312
0.239
0.355
0.475
0.260
0.256
0.191
0.147
0.174
0.065
-0.228
-0.252
-0.330
-0.293
-0.214
-0.109
-0.275
-0.251
-0.161
0.016
-0.052
-0.046
-0.040
0.070
-0.046
0.082
0.133
0.095
-0.014
0.058
0.019
0.077
0.222
0.126
0.258
0.126
0.038
0.075
0.059
0.147
0.175
0.148
0.180
0.128
0.087
0.047
0.112
0.131
0.040
0.166
0.171
0.032
-0.096
0.076
-0.050
0.072
-0.011
0.171
0.029
-0.047
-0.045
-0.014
-0.054
-0.026
0.068
-0.021
-0.120
-0.598
-0.879
0.340
0.592
0.268
0.003
-0.124
-0.191
-0.324
-0.141
0.020
0.139
0.027
0.160
0.216
0.104
0.082
-0.081
-0.043
-0.117
-0.114
-0.046
-0.041
-0.096
-0.033
-0.018
0.031
-0.005
-0.013
-0.070
0.003
-0.073
0.116
0.156
-0.040
0.016
0.164
-0.013
-0.034
-0.007
0.051
0.122
0.070
-0.021
0.109
0.064
0.124
0.074
0.046
-0.020
0.069
0.140
0.144
0.009
-0.048
0.056
0.028
-0.023
0.043
0.043
-0.104
-0.018
0.077
-0.074
0.000
-0.060
-0.122
-0.278
-0.098
-0.282
-0.354
-0.561
-0.366
-0.366
-0.510
-0.623
-0.328
-0.167
-0.470
-0.669
-1.430
-0.664
0.151
0.603
0.387
0.107
-0.036
-0.019
0.066
0.342
0.307
0.076
0.271
0.594
0.281
0.634
0.965
0.662
0.231
-0.027
0.007
0.096
0.216
0.275
0.123
0.236
0.046
0.020
0.116
0.065
-0.146
-0.213
-0.351
-0.303
-0.314
-0.275
-0.342
-0.353
-0.335
-0.293
-0.173
-0.206
-0.243
-0.231
0.003
0.005
0.057
0.022
0.020
0.314
0.250
0.237
0.127
0.198
0.221
0.285
0.246
0.301
0.198
0.326
0.379
0.319
0.425
0.379
0.280
0.349
0.326
0.238
0.242
0.332
0.479
0.285
0.246
0.238
0.322
0.316
0.240
-0.019
0.130
0.129
0.159
0.037
0.029
0.109
0.132
-0.030
-0.049
-0.031
-0.022
-0.108
-0.132
0.048
0.018
-0.177
-0.157
-0.099
-0.020
-0.108
-0.067
-0.121
-0.026
-0.022
-0.174
-0.252
-0.203
-0.094
0.140
-0.024
-0.069
-0.152
-0.056
0.014
-0.048
-0.001
-0.041
-0.057
0.018
0.091
0.010
0.004
0.046
-0.132
-0.013
0.045
0.027
-0.035
-0.018
0.185
0.281
0.012
0.014
0.076
-0.126
-0.053
0.206
0.132
-0.058
0.062
-0.050
-0.068
0.177
0.052
0.064
0.090
0.021
-0.003
0.055
0.044
0.020
-0.009
0.087
-0.008
-0.032
0.084
0.035
-0.058
-0.040
0.092
0.022
-0.096
-0.004
-0.052
-0.061
-0.022
0.093
0.049
0.041
0.056
0.001
0.056
-0.011
0.067
0.008
0.044
0.096
-0.026
0.009
0.112
-0.041
0.088
0.082
0.001
0.078
0.061
-0.035
0.004
0.063
0.031
0.015
0.192
0.058
0.059
0.056
-0.046
0.070
0.131
0.155
0.006
-0.003
0.022
0.004
0.024
0.058
0.180
-0.053
0.014
0.139
0.130
-0.084
-0.140
0.044
-0.046
0.013
-0.005
-0.040
-0.138
0.016
0.230
0.100
-0.019
-0.121
0.037
-0.213
-0.115
0.098
0.056
-0.014
0.073
-0.119
-0.082
0.028
-0.024
-0.059
-0.086
-0.038
-0.024
0.079
-0.127
-0.070
0.034
0.080
0.039
-0.097
-0.034
-0.031
-0.073
0.074
-0.052
0.137
0.077
0.136
-0.107
-0.017
-0.024
0.048
0.032
-0.004
0.067
-0.033
0.133
0.116
0.170
0.087
-0.025
0.026
0.062
0.004
-0.003
0.073
0.118
0.228
0.102
0.034
0.003
-0.030
0.090
0.150
0.084
-0.037
0.068
-0.098
0.130
0.000
-0.014
-0.070
0.068
-0.026
-0.001
0.051
-0.014
-0.049
0.082
0.047
0.017
0.059
-0.054
0.068
0.032
0.071
-0.004
-0.050
-0.042
-0.089
0.077
-0.032
-0.032
-0.034
0.272
0.049
-0.023
0.016
0.026
-0.040
-0.015
0.047
0.040
0.024
0.024
-0.104
0.075
-0.105
-0.077
0.041
0.041
-0.007
-0.049
-0.048
0.155
-0.009
0.023
0.005
0.020
0.060
-0.160
0.180
0.045
0.009
-0.071
-0.026
0.039
-0.038
0.057
0.049
0.131
0.056
-0.042
0.108
-0.035
0.072
0.111
0.062
-0.018
-0.015
0.115
0.101
-0.128
0.065
0.011
-0.079
-0.079
0.102
0.070
-0.018
0.055
0.083
-0.000
0.024
-0.031
-0.061
0.121
0.032
-0.006
-0.015
0.004
-0.026
0.156
0.070
0.046
0.039
0.044
0.132
-0.021
0.006
-0.109
0.062
-0.123
0.056
0.039
0.140
-0.041
0.004
0.090
-0.039
0.032
0.007
-0.055
-0.054
0.054
0.177
0.084
0.124
-0.036
-0.039
0.068
-0.046
-0.060
-0.070
0.236
0.047
-0.004
0.048
-0.045
0.058
-0.031
-0.005
-0.002
-0.008
0.040
0.097
0.153
-0.026
-0.125
0.090
0.113
0.072
0.020
0.026
0.007
0.103
0.037
0.079
-0.051
0.101
0.064
0.083
0.035
0.005
0.082
-0.086
-0.020
0.011
0.072
0.023
0.105
0.022
0.041
0.024
-0.011
-0.029
-0.013
-0.011
-0.072
-0.055
0.049
0.114
-0.003
0.015
-0.024
-0.029
-0.122
-0.008
0.062
-0.034
0.050
-0.085
-0.025
-0.249
-0.263
-0.077
-0.093
-0.031
-0.050
-0.140
-0.079
0.003
0.043
0.071
0.036
0.015
0.044
0.082
-0.043
0.059
0.080
0.021
0.007
0.196
0.093
0.154
0.038
0.083
0.136
0.079
0.098
0.050
0.118
0.043
0.050
-0.071
0.092
0.015
0.103
0.182
-0.057
-0.202
-0.031
0.007
-0.160
-0.013
-0.023
-0.186
-0.111
0.081
0.086
0.173
0.014
-0.155
-0.073
-0.076
0.119
0.010
0.101
0.162
0.082
0.090
0.044
0.079
0.025
0.099
0.167
0.129
0.081
0.129
0.059
0.090
0.099
0.144
0.194
0.056
0.045
0.111
0.250
0.054
0.026
0.075
0.187
0.179
0.204
0.038
0.131
0.009
-0.065
-0.044
0.078
0.033
0.006
-0.033
0.061
0.073
-0.016
-0.049
0.084
0.011
-0.003
0.040
0.113
-0.049
-0.080
0.041
0.048
0.075
-0.011
-0.039
0.076
-0.016
0.055
-0.015
-0.056
-0.031
0.017
0.012
0.015
-0.037
-0.014
0.041
0.043
0.009
0.072
-0.133
-0.031
-0.088
0.024
-0.001
0.082
-0.004
0.044
0.068
-0.104
-0.018
0.020
-0.081
0.011
0.103
0.030
-0.031
-0.025
0.060
-0.054
-0.017
-0.140
0.112
0.087
0.110
0.071
-0.073
-0.059
0.001
0.027
0.093
-0.012
0.059
-0.109
0.003
-0.007
0.029
0.073
-0.063
-0.066
0.120
0.041
0.049
0.031
-0.052
0.010
-0.165
0.099
0.132
0.092
-0.029
-0.121
0.148
0.204
-0.028
-0.032
0.002
0.037
0.039
-0.010
-0.131
0.015
0.038
0.038
-0.045
0.029
0.004
-0.124
-0.099
-0.043
-0.108
-0.133
-0.102
-0.043
-0.069
-0.116
-0.022
-0.060
-0.033
-0.119
-0.254
-0.136
-0.235
0.039
0.122
0.103
0.002
0.025
-0.084
-0.017
-0.011
0.048
-0.034
0.015
-0.046
0.103
0.115
0.019
0.036
-0.117
-0.067
-0.205
-0.072
-0.030
0.005
-0.155
-0.079
-0.203
0.041
-0.010
-0.111
-0.049
-0.192
-0.056
-0.054
-0.153
-0.031
0.008
-0.080
0.011
-0.015
0.027
0.131
-0.045
-0.036
0.100
0.092
-0.185
-0.204
0.004
0.204
0.150
0.112
0.042
-0.105
-0.033
0.134
0.116
-0.014
0.156
0.015
0.116
-0.020
0.014
-0.214
0.066
-0.128
0.227
0.035
-0.122
-0.286
-0.263
-0.473
-0.059
0.431
0.135
0.155
0.231
-0.018
-0.104
-0.181
-0.262
0.034
0.355
0.473
0.713
0.830
0.619
0.448
0.377
0.152
0.097
0.188
0.390
0.336
0.443
0.304
0.158
0.037
-0.007
-0.104
-0.073
-0.152
-0.225
-0.416
-0.155
-0.082
-0.107
-0.174
-0.026
-0.101
0.030
-0.044
0.119
0.064
0.096
0.002
-0.047
0.018
0.272
0.179
0.016
0.123
0.057
-0.006
0.096
0.232
0.056
0.166
0.124
0.063
0.042
0.114
0.111
0.225
0.093
0.014
0.081
0.084
0.061
0.027
0.138
0.100
0.007
0.056
-0.019
0.040
0.221
0.020
0.115
-0.138
0.006
0.088
-0.101
-0.032
0.040
-0.059
-0.045
0.022
-0.069
-0.057
-0.047
-0.029
-0.083
0.057
-0.470
-1.281
0.040
0.560
0.557
0.081
-0.142
-0.194
-0.185
-0.141
-0.039
0.045
0.176
0.153
0.248
0.040
0.036
0.114
0.066
-0.001
-0.167
-0.313
-0.247
-0.112
0.116
0.012
-0.327
-0.162
-0.034
0.036
-0.490
-1.338
0.709
0.984
0.708
0.231
-0.070
-0.282
-0.165
-0.104
0.077
0.306
0.423
0.311
0.282
0.241
0.251
0.057
-0.095
-0.171
-0.228
-0.179
-0.103
-0.149
-0.143
-0.155
-0.186
-0.161
-0.273
-0.232
0.057
0.070
0.050
-0.139
-0.249
-0.115
0.016
-0.246
-0.197
-0.007
0.214
0.202
0.072
-0.009
0.146
0.227
0.265
0.184
0.019
0.041
0.140
-0.006
-0.058
-0.060
0.194
0.177
0.174
-0.072
-0.043
-0.030
-0.115
0.020
0.020
-0.100
0.165
0.099
0.050
0.166
0.188
0.220
0.201
0.087
0.121
-0.062
0.057
0.048
-0.084
-0.100
0.012
0.027
-0.097
-0.074
-0.032
-0.069
0.066
-0.040
-0.224
0.067
0.179
-0.111
-0.006
0.181
0.088
-0.183
0.039
0.122
0.052
-0.022
0.259
0.089
0.148
0.125
0.044
0.077
-0.023
0.215
0.097
0.089
0.121
0.087
0.114
0.115
0.083
0.053
0.126
0.088
0.053
0.051
0.237
0.082
0.026
0.030
-0.109
0.039
0.133
-0.007
0.038
-0.050
0.073
0.064
-0.109
0.004
0.041
0.116
-0.103
0.063
-0.017
-0.031
-0.035
0.072
0.041
-0.056
-0.080
-0.069
0.049
0.060
0.045
-0.082
0.018
-0.027
0.033
-0.126
-0.058
0.085
-0.068
0.040
-0.034
0.027
0.045
0.080
-0.054
0.092
0.100
0.092
0.014
-0.016
-0.056
-0.016
0.027
0.074
-0.005
0.006
-0.077
0.010
0.091
0.139
0.005
0.027
0.018
0.009
-0.000
0.012
0.131
0.092
0.023
-0.098
0.086
0.066
0.087
-0.033
-0.081
0.017
0.105
0.029
0.034
0.077
0.102
-0.040
-0.022
-0.034
0.081
0.192
-0.042
-0.028
0.022
0.059
-0.015
-0.005
-0.091
0.087
-0.014
0.069
0.097
0.053
0.065
-0.011
-0.026
-0.006
-0.085
-0.013
0.118
0.078
0.109
0.095
-0.018
0.038
0.040
0.041
-0.011
0.062
0.017
0.025
0.178
0.121
-0.097
-0.074
0.089
0.040
0.147
0.062
0.001
-0.088
0.029
0.114
0.035
-0.013
0.066
-0.027
0.018
0.065
0.022
-0.006
-0.006
0.016
0.051
-0.014
0.010
0.048
-0.012
0.066
0.074
-0.027
-0.001
0.081
0.149
-0.035
-0.062
-0.105
0.001
0.124
0.016
0.038
0.015
-0.137
-0.056
-0.051
-0.016
0.067
0.076
0.053
-0.075
0.047
-0.045
0.036
0.095
0.093
0.028
-0.090
-0.069
0.117
0.149
0.007
-0.077
0.013
0.144
-0.046
-0.012
0.130
0.063
0.078
-0.071
0.144
-0.016
0.001
-0.056
-0.116
0.172
0.095
0.094
-0.063
0.057
0.045
0.161
0.084
0.047
0.065
-0.063
-0.103
-0.006
-0.029
-0.049
0.130
0.152
0.220
0.056
-0.050
-0.090
-0.050
0.049
0.112
0.028
0.046
0.032
0.084
-0.146
0.019
0.128
0.069
-0.035
-0.065
0.037
0.009
-0.002
-0.083
0.009
0.010
0.128
-0.015
0.101
-0.125
0.080
0.049
-0.019
0.040
0.019
-0.044
0.070
0.117
0.057
-0.085
0.005
0.184
0.081
0.032
0.002
-0.010
-0.000
-0.026
-0.044
-0.002
0.163
-0.037
-0.016
0.050
-0.083
0.023
0.040
0.055
-0.081
0.007
-0.038
0.038
0.045
0.037
-0.083
0.040
0.120
-0.098
0.006
-0.045
-0.027
0.115
0.090
-0.001
-0.002
0.022
0.078
-0.114
0.028
-0.023
0.091
0.109
0.106
-0.008
-0.085
-0.073
0.057
0.209
0.150
0.064
-0.034
-0.123
-0.026
-0.076
-0.060
0.114
0.128
0.048
0.063
0.068
0.034
-0.047
-0.074
0.030
-0.085
0.103
0.052
0.062
0.003
-0.028
0.146
-0.114
-0.094
0.097
-0.027
0.011
0.122
0.059
-0.011
0.047
0.103
-0.002
0.008
0.006
-0.001
0.007
0.055
-0.011
0.072
0.000
0.069
0.177
-0.061
-0.087
0.128
0.022
-0.102
-0.074
0.101
-2.824
-3.819
-0.284
3.297
0.962
-1.542
-2.777
-3.154
-3.824
-3.916
-1.894
1.163
2.682
2.919
2.141
2.943
4.238
3.764
2.263
1.328
1.360
1.685
2.077
2.408
2.365
1.866
1.309
0.632
-0.189
-0.836
-1.416
-1.792
-1.846
-2.005
-1.926
-1.556
-1.255
-0.969
-0.866
-0.722
-0.367
-0.006
0.100
0.162
0.203
0.032
0.242
0.234
0.398
0.471
0.305
0.483
0.395
0.596
0.565
0.623
0.706
0.756
0.795
0.719
0.713
0.630
0.723
0.832
0.687
0.843
0.714
0.714
0.626
0.545
0.603
0.578
0.517
0.436
0.447
0.280
0.239
0.176
0.270
0.111
0.131
0.125
-0.023
0.012
-0.047
-0.002
-0.091
-0.102
-0.249
-0.204
-0.241
-0.350
-0.309
-0.229
-0.243
-0.370
-0.297
-0.298
-0.344
-0.390
-0.371
-0.332
-0.115
-0.355
-0.395
-0.366
-0.271
-0.283
-0.284
-0.255
-0.230
-0.255
-0.040
-0.204
-0.090
-0.004
-0.097
-0.031
-0.115
-0.099
0.129
-0.079
-0.064
0.036
0.094
0.046
0.142
-0.004
0.073
0.038
0.165
0.160
0.064
-0.125
0.106
0.106
0.078
0.198
0.168
0.077
0.187
0.074
0.050
0.064
0.050
0.139
0.144
0.181
0.002
0.151
0.133
0.074
-0.006
0.084
-0.064
0.076
0.104
0.127
0.084
-0.086
-0.008
0.049
0.032
0.001
-0.010
0.013
-0.035
0.086
0.013
0.014
-0.040
-0.096
0.223
-0.053
0.021
0.061
0.077
-0.020
0.003
-0.055
0.081
0.094
0.084
-0.067
-0.082
0.114
0.030
0.111
-0.017
0.176
-0.066
0.025
0.185
0.121
0.012
0.064
0.073
0.088
0.120
-0.006
-0.001
0.055
0.029
0.107
0.059
-0.062
-0.052
0.129
0.036
0.054
0.026
-0.110
-0.118
-0.106
0.023
0.041
-0.042
-0.105
0.095
0.000
-0.029
-0.206
-0.099
-0.053
-0.172
-0.201
0.029
-0.041
-0.073
-0.091
-0.101
-0.008
-0.161
0.082
-0.120
-0.021
0.039
-0.144
0.076
0.069
-0.010
-0.072
-0.021
0.016
0.002
0.155
-0.073
0.019
0.071
0.017
0.018
0.195
-0.028
0.047
0.108
0.204
0.118
0.107
0.086
0.033
0.182
0.187
0.083
0.017
0.094
0.146
0.209
0.040
0.037
0.011
0.070
0.069
0.008
0.145
0.286
0.103
0.018
-0.007
-0.031
0.037
0.049
0.209
0.017
-0.015
0.063
0.054
0.011
-0.008
0.034
0.070
-0.103
0.043
0.032
-0.045
0.074
-0.072
-0.076
0.033
-0.043
-0.115
-0.134
-0.069
-0.006
0.018
-0.052
-0.081
-0.147
-0.095
0.033
0.018
-0.064
0.050
-0.075
0.019
-0.007
0.050
-0.129
0.039
-0.021
-0.030
-0.012
-0.120
-0.047
-0.061
-0.036
-0.027
-0.096
-0.018
0.066
-0.091
-0.141
-0.004
-0.013
-0.049
0.135
0.142
-0.103
-0.028
-0.103
0.056
0.149
0.093
-0.041
-0.089
0.190
0.122
0.013
-0.008
0.102
0.000
0.085
-0.007
0.070
-0.017
-0.090
-0.076
-0.069
0.027
0.051
0.027
-0.050
-0.357
-0.289
0.135
0.226
0.095
0.093
0.182
0.259
0.227
0.273
0.167
0.243
0.156
0.155
0.233
0.139
0.150
0.215
0.164
0.020
-0.008
-0.192
-0.103
0.034
-0.124
-0.222
-0.080
-0.045
-0.118
-0.142
-0.088
-0.049
-0.013
-0.036
-0.067
0.030
0.030
0.091
-0.008
0.026
-0.097
0.032
-0.024
0.156
0.130
0.002
-0.016
0.136
0.137
0.170
-0.014
-0.088
0.058
-0.031
0.107
0.019
-0.052
0.073
0.024
0.235
0.045
0.014
0.125
0.094
0.107
0.131
-0.060
0.167
0.078
0.038
0.033
0.139
0.040
-0.069
0.133
-0.070
0.109
0.096
-0.046
-0.126
0.091
0.123
-0.004
-0.118
-0.136
-0.128
0.097
-1.254
0.134
0.706
0.510
0.086
-0.110
-0.183
-0.201
-0.178
0.043
0.133
0.134
0.094
0.080
-0.015
-1.293
0.243
0.709
0.558
0.282
-0.241
-0.263
0.057
-0.202
-0.124
0.082
0.122
0.239
0.156
0.197
0.156
0.088
0.082
-0.000
0.056
-0.016
-0.010
-0.013
-0.057
-0.114
-0.065
-0.020
-0.088
0.070
0.031
0.078
0.124
-0.028
-0.095
0.048
0.081
-0.040
-0.039
0.107
0.032
0.047
0.042
-0.015
0.003
0.019
0.042
-0.038
-0.020
0.140
0.196
0.017
-0.064
0.033
0.127
0.077
-0.154
0.054
0.115
0.065
0.033
0.010
0.038
0.071
-0.025
0.032
0.013
0.011
-0.019
-0.009
0.091
0.097
-0.020
-0.018
-0.054
0.038
0.037
-0.046
0.165
-0.011
0.013
0.059
-0.010
-0.026
-0.023
0.017
0.017
0.009
-0.032
-0.121
0.158
0.076
-0.094
0.038
0.008
-0.039
-0.091
0.043
0.074
-0.010
0.156
0.129
-0.004
-0.099
0.021
-0.111
0.071
0.055
-0.001
-0.019
-0.042
0.018
0.004
-0.056
-0.007
0.009
0.047
0.007
-0.082
-0.024
0.151
-0.016
-0.075
-0.040
0.044
-0.129
-0.032
0.012
0.044
0.139
-0.002
-0.014
0.080
-0.059
0.058
0.069
-0.061
-0.051
0.078
-0.014
0.024
0.132
0.088
-0.023
-0.006
-0.002
0.055
-0.067
0.003
0.145
0.122
-0.015
0.064
-0.057
0.023
-0.157
0.053
0.085
0.031
0.046
-0.057
0.145
-0.066
0.045
0.067
0.075
0.011
0.032
-0.097
0.079
0.197
0.024
0.066
-0.116
0.040
0.052
0.006
0.139
-0.168
0.120
0.023
-0.051
0.029
0.057
0.117
0.032
0.065
0.082
0.083
-0.046
-0.015
0.019
0.045
-0.041
0.127
0.083
0.183
-0.086
-0.043
-0.033
-0.057
0.014
0.177
0.001
-0.040
0.065
0.144
-0.136
-0.049
0.085
0.043
-0.028
0.046
0.040
-0.002
0.148
0.021
-0.158
-0.034
0.024
0.148
0.012
0.043
0.039
0.026
0.006
-0.066
0.085
0.107
0.022
0.037
0.035
0.117
-0.005
-0.058
0.148
0.067
-0.011
0.025
0.184
-0.001
-0.079
-0.004
0.004
0.047
-0.041
0.127
-0.056
0.043
0.117
-0.005
0.130
0.028
0.109
-0.026
0.094
0.060
-0.040
0.179
-0.003
-0.056
0.103
0.072
0.042
-0.041
0.060
-0.047
-0.028
0.088
0.030
0.071
-0.007
-0.036
0.061
0.001
0.064
-0.025
0.136
0.179
0.030
0.062
-0.002
-0.092
0.004
0.163
0.226
0.141
0.056
-0.032
-0.161
0.001
0.041
-0.027
0.039
0.103
-0.154
0.124
0.055
0.000
-0.014
-0.070
0.061
-0.015
0.106
0.085
0.101
-0.011
0.019
0.001
0.028
-0.086
0.012
0.052
0.083
0.042
-0.181
0.117
-0.018
-0.104
0.173
0.127
0.018
0.070
0.054
0.005
0.017
0.113
-0.011
-0.048
-0.104
0.036
0.091
-0.005
-0.070
0.022
0.052
-0.037
0.045
0.052
-0.007
-0.033
0.073
0.063
-0.010
0.018
-0.057
0.060
0.001
-0.001
-0.117
0.113
0.081
0.072
0.027
-0.069
-0.005
0.028
0.136
-0.072
0.112
0.183
0.015
-0.008
-0.104
0.008
-0.022
0.014
0.080
-0.007
0.085
0.036
-0.043
-0.092
0.048
0.114
0.038
0.038
0.011
-0.105
0.017
-0.004
0.053
-0.016
-0.001
-0.065
0.107
-0.023
-0.055
-0.212
0.120
0.213
0.116
0.052
0.011
-0.062
-0.004
-0.077
0.004
0.089
0.033
0.108
0.084
-0.002
0.005
-0.046
-0.088
0.032
0.031
0.035
0.042
-0.061
0.010
0.047
0.050
-0.012
0.001
0.116
-0.042
-0.011
0.104
0.058
-0.035
-0.067
0.026
0.211
0.045
-0.074
-0.006
-0.039
0.013
0.075
0.081
0.169
-0.075
-0.014
0.110
0.053
-0.140
0.083
0.031
0.080
-0.084
0.068
0.067
-0.051
-0.015
0.010
0.055
-0.057
0.046
0.032
0.053
0.161
-0.019
-0.079
0.069
0.205
0.024
0.028
-0.089
0.020
0.033
0.067
0.076
-0.032
-0.024
0.047
0.047
0.050
-0.089
0.058
0.072
-0.040
0.046
0.033
0.087
0.091
-0.017
-0.045
-0.128
-0.016
-0.086
0.029
-0.109
0.090
0.022
-0.155
-0.090
-0.070
-0.015
-0.007
0.064
0.059
0.002
0.038
0.054
-0.064
-0.061
0.024
0.180
0.036
0.067
0.036
0.022
-0.039
-0.032
-0.025
0.060
-0.092
-0.057
0.021
-0.001
-0.013
-0.174
-0.053
-0.021
-0.136
-0.046
-0.043
-0.088
-0.025
-0.068
-0.039
0.068
0.034
-0.045
0.041
0.055
0.007
-0.027
-0.133
-0.031
-0.072
-0.084
0.171
-0.095
-0.025
-0.285
-0.321
0.002
0.097
0.005
0.263
0.262
0.293
0.260
0.124
0.273
0.390
0.235
0.257
0.265
0.184
0.263
0.282
0.314
0.081
-0.004
0.060
-0.113
-0.202
-0.198
-0.080
-0.003
-0.140
-0.026
-0.096
-0.126
-0.023
0.012
-0.089
0.047
0.095
0.094
0.013
0.145
0.051
0.065
0.111
0.100
0.171
0.165
0.097
-0.009
0.151
0.251
0.263
0.061
0.063
0.263
0.144
0.128
0.085
0.074
0.125
0.125
0.128
0.083
0.043
0.047
0.112
-0.054
0.172
0.062
0.001
0.027
0.047
-0.008
0.082
0.113
-0.006
-0.089
-0.112
-0.016
0.073
0.008
0.033
0.013
-0.109
0.013
-0.088
0.056
-0.120
0.008
0.063
-0.006
-0.031
-0.084
0.020
-0.021
-0.066
0.015
-0.112
0.064
-0.068
-0.063
-0.015
-0.037
-0.020
-0.025
0.009
-0.101
0.055
0.066
-0.152
0.033
0.047
0.053
-0.063
-0.129
0.010
0.003
0.077
0.098
-0.053
-0.016
-0.009
-0.022
-0.031
0.052
0.025
-0.120
-0.080
0.128
0.008
-0.059
0.091
-0.010
0.141
-0.073
0.028
-0.009
0.046
0.096
0.135
-0.036
-0.002
-0.012
0.067
0.083
0.100
0.034
0.052
-0.013
-0.046
0.055
0.078
-0.002
0.022
-0.053
0.030
-0.018
-0.010
0.102
0.064
0.036
-0.125
-0.061
0.048
0.020
-0.043
-0.135
0.046
0.075
-0.009
-0.000
-0.145
0.014
0.188
0.155
0.085
-0.072
-0.106
-0.003
0.043
0.116
0.051
0.046
0.029
0.043
0.051
-0.058
-0.067
0.020
0.118
0.075
0.012
0.052
0.042
-0.040
-0.378
-0.144
-0.029
0.139
-0.246
-0.246
-0.404
0.152
0.359
0.303
0.313
0.208
0.214
0.079
0.014
0.235
0.207
0.393
0.211
0.200
0.281
0.215
0.111
0.078
-0.071
-0.128
-0.185
-0.109
-0.217
-0.111
-0.158
-0.091
-0.122
0.181
0.063
0.000
-0.058
-0.157
0.063
0.025
0.101
0.064
0.017
0.087
0.026
-0.012
0.087
0.079
0.008
0.142
0.132
0.007
0.063
0.074
0.156
0.104
0.164
0.138
0.141
0.096
0.056
0.125
0.083
-0.066
0.073
0.032
0.064
0.060
0.074
0.124
-0.077
0.118
0.088
-0.072
0.038
-0.082
-0.159
0.067
0.238
0.159
0.047
0.077
0.001
-0.091
0.035
-0.066
0.037
0.103
-0.085
0.113
0.048
0.035
-0.086
-0.040
0.039
-0.038
-0.079
-0.021
-0.051
0.030
0.007
-0.179
0.007
0.059
-0.035
-0.133
-0.076
-0.080
-0.106
-0.044
0.146
-0.029
0.263
0.020
0.000
0.028
0.021
-0.086
0.084
-0.029
0.113
0.020
0.114
0.029
0.085
0.038
0.104
0.105
-0.094
-0.009
0.059
-0.014
-0.058
-0.003
0.076
0.014
0.111
0.055
0.036
0.005
0.122
-0.035
-0.055
0.033
-0.034
0.188
0.075
-0.080
-0.061
0.042
0.082
-0.044
0.027
0.002
0.089
-0.024
-0.025
0.020
-0.045
0.002
0.171
0.032
-0.010
0.053
-0.001
0.129
0.154
-0.012
-0.037
-0.019
0.172
-0.053
-0.006
0.022
-0.036
-0.020
0.036
-0.014
-0.020
0.051
-0.023
0.043
-0.021
-0.023
0.025
-0.096
0.062
0.051
-0.021
0.022
-0.024
-0.034
-0.022
0.110
0.068
0.013
0.022
-0.031
-0.045
-0.098
-0.703
-0.225
0.265
0.385
0.257
0.039
0.072
-0.051
-0.125
-0.052
0.276
0.251
0.106
0.118
0.330
0.189
0.016
-0.119
0.037
0.095
0.084
-0.122
0.056
-0.145
-0.053
-0.053
-0.132
0.004
-0.058
0.075
-0.108
0.024
0.010
0.027
0.034
0.020
0.002
-0.002
-0.033
0.014
0.006
0.196
-0.018
0.005
-0.012
0.085
0.066
0.006
0.027
0.129
-0.001
0.066
0.110
-0.013
0.010
0.058
0.076
0.057
0.034
0.054
0.110
0.038
0.042
0.051
0.003
0.010
0.083
-0.007
0.171
0.065
0.020
-0.014
-0.050
0.073
0.038
0.130
-0.088
0.013
-0.023
-0.009
0.150
-0.024
0.039
0.005
0.005
-0.023
-0.035
0.047
-0.010
-0.053
0.137
-0.066
-0.041
-0.087
-0.036
-0.023
0.061
0.079
-0.138
0.060
0.097
-0.206
-0.054
0.118
0.123
0.096
-0.027
-0.032
-0.069
-0.023
0.034
-0.031
0.040
0.036
0.029
0.105
-0.045
0.022
0.027
0.128
0.029
0.162
-0.080
-0.068
0.121
0.047
-0.003
0.081
-0.009
-0.013
-0.014
0.134
0.052
0.044
-0.038
0.100
-0.148
-0.039
0.155
0.012
0.171
-0.045
-0.012
0.065
-0.015
-0.060
0.056
-0.014
0.079
-0.028
0.013
0.066
0.048
-0.114
-0.004
0.066
0.134
0.116
-0.053
0.008
0.076
0.012
-0.004
0.038
0.065
0.042
-0.019
-0.006
-0.042
0.064
-0.087
0.015
0.076
0.023
0.001
0.149
-0.026
-0.000
0.003
0.015
0.110
0.031
0.100
0.036
-0.092
-0.024
0.008
-0.045
0.013
0.173
0.004
-0.068
0.024
0.002
0.174
0.000
-0.033
-0.035
0.047
-0.016
-0.009
0.028
0.058
-0.029
-0.010
-0.064
0.129
-0.027
-0.222
0.020
0.240
0.113
0.079
-0.019
0.091
0.087
-0.038
0.026
-0.046
0.044
0.026
-0.019
0.045
0.135
-0.072
-0.041
0.007
0.074
0.185
-0.020
-0.038
-0.028
0.088
0.040
0.027
0.082
0.013
-0.098
0.009
0.015
-0.033
0.071
0.034
-0.001
-0.027
-0.016
-0.050
0.065
-0.081
0.160
0.068
-0.024
0.063
0.030
-0.095
0.201
0.023
0.007
0.044
0.031
0.028
0.012
0.100
0.045
-0.076
-0.008
-0.024
0.045
0.121
-0.028
-0.010
0.084
-0.033
-0.020
0.059
-0.009
0.128
0.009
-0.138
0.133
-0.035
0.088
-0.057
0.120
0.054
0.019
0.050
-0.015
-0.162
-0.151
-0.258
-2.223
1.538
2.836
1.743
0.514
-0.438
-0.764
-0.745
-0.451
0.011
0.267
0.445
0.514
0.597
0.573
0.446
0.236
0.079
-0.030
-0.218
-0.265
-0.242
-0.447
-0.496
-0.161
-0.027
-0.018
-0.090
-0.036
-0.061
0.015
-0.370
-1.113
0.106
0.724
0.729
0.564
0.032
-0.126
0.046
0.202
0.226
0.202
0.346
0.367
0.178
0.210
0.425
0.395
0.222
-0.136
-0.264
-0.307
0.132
0.311
0.307
0.159
0.154
-0.473
-0.310
-0.019
0.178
0.067
-0.012
-0.238
-0.110
0.102
-0.019
0.153
0.062
0.045
0.097
-0.165
-0.090
-0.061
0.026
-0.042
0.133
0.125
0.142
0.076
0.042
-0.045
0.064
0.026
-0.163
-0.148
0.010
-0.079
-0.109
-0.108
-0.105
0.059
-0.078
-0.018
-0.095
0.080
0.073
-0.003
0.000
0.049
0.012
-0.042
0.125
0.105
-0.090
0.048
0.081
0.084
0.147
0.066
0.017
0.073
0.056
0.105
0.182
0.122
0.082
0.117
0.078
0.108
0.089
0.332
0.108
-0.020
0.030
0.360
0.193
0.271
0.071
-0.047
0.011
0.131
0.056
0.091
-0.037
0.029
-0.033
-0.056
0.022
0.074
-0.044
0.052
-0.051
0.066
-0.063
0.098
-0.076
0.052
0.056
0.027
-0.047
0.122
0.050
-0.023
0.027
0.057
0.072
0.023
0.075
-0.001
-0.059
0.005
-0.022
-0.003
0.102
0.164
-0.013
0.042
0.005
-0.009
0.010
0.096
0.131
0.098
0.041
-0.002
-0.114
0.098
0.045
0.015
0.047
0.037
0.090
-0.024
-0.059
-0.052
0.040
0.082
0.024
0.025
-0.056
-0.021
0.122
-0.019
0.006
-0.005
-0.090
-0.094
0.125
-0.087
0.115
-0.078
-0.038
0.090
0.031
-0.016
-0.052
0.050
-0.013
-0.092
-0.047
-0.036
0.068
-0.026
0.023
-0.063
0.001
-0.109
0.016
-0.249
-0.049
-0.022
0.051
0.033
0.033
0.067
0.110
0.082
0.090
-0.004
0.040
0.185
0.116
0.132
0.099
0.067
0.163
0.102
0.123
0.124
0.051
-0.054
-0.099
-0.043
-0.045
0.061
-0.040
0.009
0.041
-0.089
0.004
0.023
-0.093
-0.003
0.099
-0.067
0.047
0.038
0.123
0.046
0.043
0.046
0.072
0.023
-0.007
0.027
-0.021
0.073
0.080
-0.015
-0.035
-0.052
0.009
0.030
0.067
0.053
0.010
0.080
0.001
0.048
0.049
0.130
-0.030
-0.173
0.104
0.069
0.015
0.041
0.066
-0.022
0.025
-0.081
0.063
-0.072
0.045
0.037
-0.039
0.049
0.050
-0.021
-0.042
0.032
-0.028
0.002
0.060
-0.022
0.005
0.035
0.040
0.002
0.046
0.065
0.073
0.095
-0.133
0.040
0.160
0.067
-0.089
-0.082
0.027
0.052
0.104
-0.081
0.056
0.029
-0.042
-0.050
-0.037
-0.008
-0.008
0.110
0.045
0.008
0.064
0.041
0.092
0.063
-0.017
-0.141
-0.029
0.037
0.062
0.053
0.005
0.014
0.014
0.019
-0.024
0.073
-0.015
0.043
0.035
0.145
-0.063
0.123
-0.019
0.045
-0.006
0.036
0.019
-0.108
0.073
0.055
-0.031
0.042
-0.028
-0.060
0.046
0.030
-0.046
-0.007
0.016
-0.469
-0.172
0.206
0.279
0.176
0.052
-0.039
-0.192
-0.021
0.008
0.197
0.104
0.038
0.165
0.047
0.136
-0.044
0.114
0.058
0.023
0.092
0.126
-0.061
-0.158
-0.040
0.019
-0.019
-0.072
0.024
-0.042
0.110
0.117
0.095
0.024
-0.067
-0.023
-0.086
-0.069
0.153
0.101
0.067
0.058
0.094
0.050
0.049
-0.099
0.019
-0.056
-0.027
0.077
-0.045
0.012
-0.188
-0.060
0.007
0.057
0.001
0.012
-0.210
-0.068
0.017
-0.045
0.071
0.057
0.150
0.043
0.023
0.069
-0.010
0.066
-0.016
0.032
0.065
0.053
0.044
0.029
0.043
-0.114
-0.206
-0.514
-0.953
-0.846
-0.864
-0.622
-0.037
-0.037
0.326
0.396
0.315
0.022
0.244
0.209
0.389
0.451
0.520
0.590
0.767
0.688
0.663
0.476
0.422
0.050
-0.047
-0.172
-0.307
-0.382
-0.383
-0.480
-0.425
-0.528
-0.330
-0.090
0.052
-0.093
-0.047
-0.112
-0.032
-0.052
0.001
-0.060
0.004
-0.020
-0.009
-0.052
-0.014
0.109
0.199
0.070
0.122
0.071
0.154
0.138
0.172
0.120
0.050
0.199
0.224
0.049
0.251
0.106
0.218
0.181
0.210
0.083
0.236
0.146
0.039
0.098
0.114
0.185
0.191
0.045
0.082
0.115
-0.020
0.057
0.051
-0.036
0.133
0.035
0.041
-0.017
-0.165
-0.026
0.056
0.043
-0.120
0.058
0.041
0.067
-0.097
-0.047
-0.125
0.080
0.111
-0.048
-0.033
-0.020
-0.015
-0.130
-0.008
-0.020
-0.012
0.025
0.077
-0.024
-0.200
-0.146
0.064
0.071
-0.003
-0.009
0.027
-0.048
0.081
-0.007
-0.055
0.038
-0.032
0.045
0.012
-0.011
0.168
0.039
0.031
0.006
-0.063
-0.036
-0.075
0.168
0.193
0.082
-0.064
0.095
-0.006
0.120
-0.033
0.010
0.107
0.044
-0.056
-0.069
0.050
0.001
0.009
0.129
0.021
0.033
0.090
-0.030
-0.031
0.023
0.004
-0.000
0.091
0.023
0.079
0.022
0.029
-0.002
-0.041
-0.028
0.035
0.090
0.048
0.165
-0.038
-0.003
-0.087
-0.074
0.123
0.034
0.043
0.099
-0.103
0.118
-0.046
0.021
0.037
0.230
0.118
-0.023
-0.049
-0.035
0.010
0.087
-0.004
0.019
0.074
-0.022
0.053
0.068
0.107
-0.047
0.094
-0.009
0.130
-0.052
0.066
-0.002
0.177
0.030
0.023
-0.070
-0.031
0.070
-0.028
0.112
0.043
-0.038
0.082
0.100
-0.085
-0.017
-0.025
0.091
-0.039
-0.058
0.052
-0.033
0.001
-0.019
-0.068
-0.019
0.236
-0.062
-0.094
-0.114
-0.071
-0.062
0.043
0.049
-0.038
-0.045
0.027
0.068
0.075
-0.133
0.007
0.050
0.099
0.046
-0.012
-0.108
0.077
0.033
0.060
0.091
0.025
0.059
-0.117
0.023
0.094
0.013
0.022
0.035
-0.012
-0.031
-0.030
0.034
0.042
0.049
0.152
-0.135
0.046
0.045
0.036
0.013
0.091
0.050
-0.071
-0.071
0.075
0.165
0.126
0.007
-0.144
0.115
-0.051
0.054
0.115
0.005
-0.020
-0.099
0.056
-0.072
-0.014
0.013
0.091
0.100
0.073
0.065
0.004
-0.092
-0.047
0.113
0.081
0.059
-0.007
0.023
0.033
-0.056
0.047
-0.065
0.020
0.075
0.087
-0.076
-0.103
-0.049
0.131
0.032
0.027
0.047
-0.009
0.029
0.143
0.036
-0.126
0.030
0.116
0.034
-0.092
0.066
0.028
0.017
-0.024
0.049
0.060
0.101
0.066
-0.025
0.039
0.036
0.089
-0.137
0.063
-0.010
0.018
0.099
-0.015
0.059
-0.031
0.221
-0.139
-0.168
-1.316
-2.247
-2.637
-1.491
-0.632
-0.038
1.144
2.613
1.688
0.238
-0.602
-2.143
-1.256
0.317
1.331
2.420
2.449
1.953
1.168
0.713
-0.427
-2.094
0.614
1.374
0.832
0.015
-0.701
-0.925
-0.772
-0.529
-0.537
-0.184
-0.009
0.156
0.050
0.089
0.056
-0.102
-0.133
-0.232
-0.311
-0.193
-0.245
-0.132
-0.246
-0.100
0.037
-0.101
0.071
0.059
0.127
0.145
0.182
0.162
0.296
0.190
0.138
0.189
0.263
0.169
0.217
0.317
0.270
0.055
0.242
0.356
0.416
0.305
0.262
0.230
0.211
0.266
0.169
0.253
0.199
0.265
0.178
0.190
0.162
0.014
0.092
0.166
0.015
-0.019
0.023
0.051
-0.043
-0.028
-0.225
-0.030
0.024
-0.030
-0.113
0.049
-0.047
-0.140
-0.144
-0.140
-0.108
0.109
-0.144
-0.126
-0.100
-0.101
-0.101
-0.143
-0.101
-0.070
0.012
-0.032
-0.211
0.023
0.015
-0.063
-0.130
-0.056
-0.046
-0.104
-0.003
0.025
-0.087
0.025
0.088
0.053
0.064
-0.008
-0.062
0.049
-0.007
0.022
0.059
0.039
0.055
0.093
-0.059
0.027
0.048
0.095
-0.025
-0.031
0.057
0.080
0.092
-0.105
-0.039
0.123
0.010
0.138
-0.009
0.078
0.035
0.047
0.141
-0.038
-0.064
-0.082
0.118
-0.000
-0.106
-0.052
-0.260
-0.220
-0.182
-0.018
0.312
0.263
0.122
-0.125
-0.125
-0.142
-0.024
0.108
-0.005
0.035
0.190
0.125
0.172
0.170
0.175
0.054
-0.120
-0.077
0.044
-0.102
0.025
-0.148
0.069
-0.062
0.051
-0.186
-0.187
0.185
0.162
0.139
0.012
-0.030
-0.043
0.097
0.072
0.095
0.168
0.138
0.097
-0.061
0.023
0.106
-0.120
0.121
0.109
0.037
-0.028
-0.133
0.048
0.035
-0.015
0.085
-0.079
0.012
0.097
-0.108
0.013
-0.057
0.029
-0.007
-0.011
-0.076
0.077
0.073
-0.093
-0.082
-0.017
-0.046
-0.015
-0.114
-0.074
0.084
-0.050
-0.138
-0.069
-0.009
0.134
0.055
-0.169
0.093
-0.049
-0.161
0.023
-0.088
-0.110
-0.002
0.045
-0.016
-0.007
0.134
0.071
0.012
0.033
0.057
0.131
0.042
0.085
-0.037
-0.122
-0.057
-0.238
-0.036
0.192
0.360
0.201
0.044
-0.065
-0.092
-0.155
-0.043
-0.157
-0.175
-0.025
0.252
0.113
0.165
0.162
0.034
0.089
-0.080
-0.037
0.135
0.112
0.102
0.153
0.030
0.023
0.089
0.096
0.026
-0.013
-0.090
-0.146
0.049
-0.638
-2.993
-0.061
1.865
1.717
0.818
0.099
-0.604
-0.473
-0.341
-0.048
0.265
0.468
0.590
0.548
0.478
0.400
0.317
0.053
0.043
-0.167
-0.338
-0.154
-0.256
-0.128
-0.132
-0.144
-0.087
-0.130
0.055
0.025
0.102
0.072
0.118
0.032
0.083
0.034
0.029
0.137
0.141
0.070
0.079
0.125
0.070
0.065
0.026
0.141
0.098
0.226
0.085
0.025
0.046
0.059
0.209
0.115
-0.073
-0.094
0.094
0.113
0.119
0.069
-0.016
-0.030
-0.000
-0.005
0.081
0.150
0.002
0.168
0.135
0.082
0.035
-0.038
0.049
0.117
0.023
-0.115
-0.006
-0.065
-0.035
-0.032
-0.119
0.078
-0.087
-0.076
0.007
-0.124
-0.136
0.020
0.003
-0.103
0.079
0.101
-0.052
-0.023
-0.019
-0.072
0.004
0.014
-0.043
0.044
-0.070
0.054
0.071
-0.046
-0.074
0.001
0.080
0.058
0.116
-0.001
0.059
0.013
0.066
-0.098
0.097
0.082
0.037
0.081
-0.060
-0.027
-0.033
0.036
0.031
-0.039
0.059
-0.017
0.042
-0.075
0.051
0.105
0.042
0.087
0.117
0.100
0.029
0.029
0.029
0.015
0.036
0.082
0.109
0.004
-0.017
-0.042
-0.101
0.012
-0.349
-0.936
-1.974
-1.446
-0.580
-0.457
-0.244
-0.522
-0.938
-0.625
-0.257
-0.147
-0.375
-0.088
0.463
0.708
0.805
0.561
0.882
0.981
0.970
0.739
0.853
0.833
0.439
0.536
0.382
0.385
0.224
-0.174
-0.267
-0.234
-0.083
-0.737
-0.409
0.059
0.089
-0.065
-0.148
-0.220
-0.426
-0.386
-0.441
-0.265
-0.079
-0.066
-0.164
-0.252
-0.258
-0.023
-0.128
-0.003
-0.114
-0.139
0.112
0.214
0.119
0.175
0.195
0.156
0.105
0.284
0.310
0.353
0.344
0.402
0.243
0.443
0.305
0.379
0.375
0.393
0.185
0.272
0.488
0.379
0.257
0.316
0.266
0.325
0.286
0.260
0.232
0.045
0.316
0.190
0.042
0.175
0.131
0.103
0.151
0.117
0.064
-0.094
0.013
0.005
-0.046
-0.155
0.006
-0.007
0.062
0.125
-0.059
-0.144
-0.099
-0.227
-0.044
-0.147
-0.080
0.010
0.004
-0.126
-0.155
-0.219
-0.119
-0.037
-0.097
-0.021
-0.113
-0.140
-0.077
-0.122
-0.097
-0.043
0.043
0.029
-0.079
-0.025
0.009
-0.051
-0.096
-0.088
0.159
0.118
-0.018
-0.113
0.078
0.105
-0.011
0.062
0.073
0.053
-0.015
-0.083
0.028
-0.023
-0.046
0.114
-0.024
0.132
0.001
0.046
0.161
-0.051
0.126
0.024
0.057
0.150
-0.019
-0.114
-0.059
0.118
0.047
0.107
0.058
-0.054
-0.064
-0.067
-0.001
0.089
0.037
-0.037
0.037
-0.005
0.017
-0.037
-0.023
0.074
0.022
0.022
0.031
0.083
0.005
0.149
-0.038
0.055
0.090
0.141
-0.008
0.004
0.143
-0.039
0.164
0.079
0.097
-0.071
0.102
0.261
-0.041
0.122
-0.002
0.005
0.100
0.006
0.141
0.108
-0.105
0.028
0.013
0.070
-0.001
0.015
0.094
0.006
0.023
0.135
0.023
-0.045
-0.049
0.030
0.138
-0.116
0.001
0.060
0.011
-0.026
0.070
-0.022
0.031
-0.161
-0.006
0.018
-0.099
-0.140
0.101
-0.066
-0.102
-0.080
-0.043
0.138
-0.029
-0.069
-0.065
-0.120
0.030
0.106
-0.069
-0.006
0.064
-0.158
0.002
0.036
0.025
0.059
-0.004
0.054
-0.006
-0.002
-0.013
0.020
-0.052
-0.024
0.049
-0.001
0.110
0.124
-0.013
0.058
0.095
-0.040
-0.057
0.168
-0.021
0.051
-0.005
0.174
0.077
-0.039
0.049
0.095
0.066
0.010
-0.035
0.136
0.060
0.184
0.127
-0.024
-0.014
-0.003
0.058
0.022
-0.061
0.113
0.038
0.074
0.076
-0.026
-0.019
-0.020
0.078
0.020
-0.025
-0.094
0.063
-0.073
-0.047
0.068
-0.012
-0.093
-0.024
0.036
0.140
-0.003
-0.073
0.011
0.037
-0.112
-0.024
0.089
0.047
-0.080
0.081
-0.090
-0.152
0.037
-0.013
-0.031
-0.005
0.012
0.072
0.016
0.039
-0.015
-0.103
-0.030
0.111
-0.018
0.024
0.077
0.062
-0.029
-0.022
-0.046
0.150
-0.025
-0.036
-0.053
0.065
0.069
0.087
-0.098
0.100
0.041
0.013
0.032
0.113
-0.038
-0.083
0.077
0.113
0.076
-0.025
0.002
-0.051
0.057
0.122
-0.047
-0.007
0.112
0.015
0.048
0.102
-0.015
0.034
0.086
-0.070
0.106
0.035
0.143
-0.042
0.096
-0.064
0.071
0.084
0.025
-0.061
0.034
0.012
0.118
0.017
-0.045
-0.058
-0.015
0.111
-0.006
-0.070
-0.078
0.131
0.078
-0.073
-0.023
-0.039
0.123
0.018
0.068
0.054
0.024
0.038
-0.035
-0.003
-0.042
-0.004
0.129
0.045
0.020
0.042
0.020
0.110
-0.039
-0.140
0.065
0.051
0.048
0.080
0.036
0.024
0.002
-0.060
0.012
0.050
0.099
-0.009
0.018
-0.032
0.041
0.046
-0.009
0.131
0.128
-0.084
0.033
-0.106
0.118
-0.044
0.072
0.103
-0.028
0.036
0.029
0.026
-0.011
0.097
0.053
0.042
-0.062
0.013
0.026
0.134
0.221
-0.002
-0.063
0.109
-0.066
0.053
0.112
-0.088
0.072
0.069
-0.058
-0.012
-0.004
0.100
-0.084
0.145
-0.009
-0.055
-0.029
-0.195
-0.074
-0.133
-0.198
-0.103
-0.123
-0.248
-0.154
0.296
0.181
0.159
-0.032
0.129
0.139
0.072
0.133
0.106
0.082
0.188
0.288
0.146
0.178
0.072
0.104
0.029
0.095
-0.035
0.007
0.011
-0.082
-0.144
0.005
-0.064
0.061
0.032
-0.070
0.003
-0.088
0.049
0.022
-0.039
0.007
-0.049
0.038
-0.202
0.013
0.041
-0.109
0.006
0.091
0.090
-0.020
0.099
0.065
0.155
0.044
0.003
-0.013
0.091
-0.041
0.066
0.210
0.025
0.127
-0.023
0.018
0.092
0.041
0.122
0.075
0.051
0.024
0.091
0.094
-0.048
-0.065
0.017
0.065
0.018
-0.168
-0.044
0.086
0.014
0.070
0.000
-0.013
-0.084
0.046
0.076
0.173
0.029
-0.075
0.034
0.075
0.116
0.120
-0.006
0.074
0.089
0.034
0.050
0.030
-0.002
-0.153
0.005
-0.081
0.082
-0.076
-0.063
-0.048
0.013
-0.092
-0.024
0.077
-0.029
-0.111
0.040
0.046
0.039
-0.099
0.015
0.035
0.107
0.020
-0.057
0.034
0.080
-0.059
0.040
-0.029
-0.048
0.113
-0.075
-0.052
0.047
-0.078
0.073
0.093
0.156
0.072
0.037
-0.120
-0.139
0.157
0.066
0.048
-0.040
-0.067
-0.015
0.085
-0.054
0.058
-0.073
-0.149
-0.150
-0.260
-0.936
-0.469
0.040
0.210
0.416
0.254
-0.136
-0.033
-0.129
-0.192
-0.285
-0.123
0.114
0.319
0.343
0.231
0.078
0.055
0.056
0.015
-0.304
-0.227
-0.133
-0.170
0.078
-0.045
-0.125
0.000
-0.072
-0.062
0.009
0.098
-0.226
-0.215
-0.096
-0.172
0.189
0.167
0.134
-0.161
-0.558
-1.933
-1.070
0.247
1.309
0.800
0.461
0.098
-0.551
-0.507
-0.268
0.093
0.621
0.727
0.997
0.517
0.398
0.350
0.285
0.319
0.121
0.016
0.071
-0.010
-0.026
-0.117
-0.241
-0.775
0.196
0.313
0.298
0.148
-0.073
-0.200
-0.259
0.058
0.284
0.130
0.197
0.104
0.176
0.199
0.249
0.072
0.238
0.086
0.082
0.110
0.121
0.068
0.067
0.090
0.204
0.152
0.064
0.246
0.123
0.213
0.191
0.199
0.186
0.198
0.205
0.204
0.208
0.126
0.201
0.131
0.170
0.193
0.066
0.122
0.118
0.179
0.034
0.029
0.061
0.140
0.048
0.095
-0.026
0.136
-0.045
-0.063
-0.056
0.026
0.017
-0.066
-0.179
0.082
-0.050
-0.002
-0.041
-0.043
-0.093
-0.087
-0.172
0.011
-0.013
-0.039
-0.121
-0.188
-0.124
-0.076
-0.049
-0.123
0.065
0.050
-0.117
-0.043
-0.126
-0.002
-0.018
-0.068
0.020
-0.016
-0.059
-0.043
-0.089
-0.149
-0.032
0.056
0.058
0.141
0.035
-0.054
-0.111
-0.013
0.019
0.034
0.123
0.060
0.013
0.051
0.076
0.114
0.026
0.042
0.022
-0.068
0.118
0.081
0.024
-0.024
0.179
-0.076
-0.051
-0.051
0.039
0.094
0.115
-0.065
0.039
0.106
0.065
-0.028
-0.077
0.071
0.086
0.051
0.136
0.032
0.019
0.077
-0.038
-0.020
0.119
-0.006
-0.057
-0.095
-0.109
-0.018
-0.043
-0.045
0.052
-0.118
-0.055
0.077
-0.042
-0.070
-0.197
-0.155
-0.196
-0.325
-0.299
-0.392
-0.533
-0.848
-1.516
-1.780
-1.788
-0.715
0.169
0.936
0.762
0.144
0.713
1.294
1.020
0.549
0.626
0.802
1.189
1.372
1.462
1.487
1.069
0.678
0.446
0.012
-0.364
-0.744
-0.790
-1.085
-1.057
-0.904
-0.727
-0.664
-0.522
-0.418
-0.407
-0.266
-0.105
-0.134
0.001
0.077
-0.071
-0.091
-0.067
-0.084
-0.023
0.175
0.203
0.137
0.128
0.029
0.283
0.266
0.110
0.123
0.339
0.350
0.376
0.357
0.329
0.296
0.269
0.274
0.402
0.352
0.310
0.263
0.281
0.252
0.225
0.367
0.245
0.233
0.301
0.074
0.155
0.270
0.015
0.162
0.192
0.067
0.026
0.034
0.094
0.055
-0.049
-0.045
-0.008
-0.070
0.069
-0.090
-0.081
-0.097
-0.088
0.006
-0.081
-0.217
-0.183
-0.109
-0.010
-0.187
-0.111
-0.260
-0.069
-0.100
-0.222
-0.047
0.013
0.047
0.153
0.217
0.349
0.189
0.039
-0.041
-0.014
0.061
0.139
0.085
0.182
0.160
-0.037
-0.003
-0.050
-0.120
-0.191
-0.113
-0.004
-0.121
-0.150
-0.146
-0.127
-0.041
-0.006
0.081
0.166
-0.066
0.029
0.111
0.216
0.080
0.097
0.104
0.051
0.034
0.072
0.148
0.091
0.139
0.025
0.188
0.119
0.074
0.052
0.083
0.046
0.123
0.121
-0.012
0.119
-0.012
0.018
0.091
-0.019
0.065
0.050
0.009
-0.067
0.061
0.015
-0.062
0.035
-0.064
-0.017
0.114
0.003
-0.123
-0.070
-0.014
0.014
0.017
0.006
0.030
-0.019
-0.053
0.076
0.004
-0.153
-0.023
-0.020
0.109
-0.011
-0.136
-0.006
0.049
0.045
0.054
-0.186
0.051
0.118
0.021
-0.053
0.090
-0.113
-0.035
0.024
0.076
-0.117
-0.105
0.071
0.065
0.094
-0.002
-0.112
-0.083
-0.058
0.056
-0.008
0.012
-0.154
0.012
-0.017
-0.008
0.050
0.060
-0.018
-0.168
-0.062
0.134
0.112
0.106
-0.110
0.090
-0.057
-0.142
-0.010
0.012
-0.007
-0.093
0.002
-0.171
0.017
0.103
0.077
0.004
-0.159
0.118
0.053
-0.031
0.053
0.001
-0.084
-0.032
0.157
0.215
0.226
0.225
0.023
-0.151
-0.007
0.025
0.054
0.162
0.003
-0.225
-0.014
-0.112
0.046
0.056
0.080
-0.104
0.175
0.045
-0.066
0.035
-0.093
0.066
-0.010
0.081
0.313
0.165
0.131
0.020
-0.004
0.040
0.035
0.021
-0.042
0.039
-0.100
-0.158
-0.128
0.183
0.307
0.189
-0.001
0.018
-0.098
-0.054
-0.010
0.083
0.173
0.146
0.158
-0.100
-0.015
0.158
0.002
-0.068
-0.226
-0.282
-0.034
-0.132
0.066
0.086
-0.104
-0.095
0.119
0.004
-0.081
-0.006
0.037
-0.054
-0.016
0.034
0.070
0.032
0.016
0.081
0.034
-0.027
0.015
0.119
0.065
0.032
0.088
0.019
0.152
0.030
0.062
0.118
0.198
0.071
-0.016
-0.025
0.074
0.110
0.228
0.002
0.065
-0.013
0.022
-0.031
0.095
0.026
0.138
-0.004
-0.034
0.117
0.114
0.060
0.005
0.006
-0.025
-0.028
0.049
0.008
0.149
-0.010
0.038
0.021
0.084
-0.179
0.002
0.108
0.011
-0.005
-0.081
-0.001
-0.050
-0.025
0.060
-0.108
-0.110
0.159
0.013
0.004
-0.054
-0.017
-0.089
0.117
-0.014
0.093
0.095
0.048
0.045
0.025
0.023
0.056
-0.069
-0.148
-0.016
0.041
-0.029
0.117
0.124
0.055
-0.075
-0.020
0.082
0.114
-0.092
0.036
-0.006
-0.019
0.010
-0.031
0.049
0.039
-0.030
0.029
0.098
0.011
-0.063
0.087
0.075
0.008
0.072
0.034
-0.002
0.065
-0.031
-0.244
-0.070
0.204
0.284
0.143
0.051
-0.117
-0.053
0.009
-0.025
0.012
0.048
-0.054
-0.088
0.075
0.043
0.196
-0.064
-0.080
-0.100
0.007
0.012
-0.030
-0.144
-0.151
-0.159
-0.095
0.101
0.160
0.010
-0.123
-0.079
-0.006
-0.050
-0.065
0.165
0.129
0.111
-0.006
-0.123
-0.075
-0.055
0.062
0.022
0.056
0.009
0.011
0.031
-0.037
-0.007
0.004
-0.094
-0.104
-0.028
0.042
0.073
-0.150
0.035
0.006
0.064
-0.028
-0.165
-0.024
0.072
0.073
-0.092
-0.133
-0.099
-0.020
-0.027
-0.068
0.056
-0.053
0.024
-0.001
-0.005
-0.166
0.032
-0.009
0.007
0.057
0.010
0.022
0.008
0.207
0.105
0.025
0.145
0.195
0.079
-0.014
-0.097
0.071
0.286
0.242
-0.050
0.130
0.122
0.204
0.057
0.111
-0.007
0.058
0.129
0.065
0.065
-0.021
0.104
0.133
0.014
0.105
0.154
-0.051
0.030
0.072
0.009
-0.039
0.093
0.135
0.076
0.071
0.127
0.035
0.036
0.191
0.068
0.166
-0.086
-0.076
0.002
0.101
0.107
0.148
-0.014
0.165
-0.046
0.116
0.035
0.043
0.031
-0.074
0.055
0.160
0.091
-0.053
-0.095
0.111
-0.002
0.135
-0.017
0.047
-0.047
-0.005
0.137
0.023
-0.072
0.003
-0.027
0.043
0.130
-0.123
0.063
-0.051
-0.103
0.086
-0.032
-0.017
-0.054
0.068
0.106
-0.069
-0.031
0.063
-0.053
-0.035
-0.051
-0.034
0.036
-0.014
-0.013
-0.010
0.023
-0.028
-0.044
-0.057
0.007
0.027
0.126
-0.038
-0.062
0.032
-0.001
-0.056
-0.066
0.033
0.099
0.103
-0.112
-0.021
0.088
0.057
-0.122
0.082
0.095
-0.079
0.026
-0.032
0.039
-0.007
0.133
0.053
-0.101
0.117
0.164
-0.050
0.061
-0.014
0.068
0.071
0.022
0.049
0.093
0.139
-0.051
0.033
0.062
-0.105
-0.046
0.039
0.139
0.068
0.042
0.096
-0.131
0.069
0.021
0.043
-0.026
0.041
0.025
0.016
0.063
0.072
0.033
-0.045
-0.068
0.122
0.072
-0.148
-0.065
0.006
0.153
0.067
-0.041
-0.186
-0.194
-0.174
0.033
-0.070
-0.112
0.070
-0.241
-0.119
-0.175
-0.210
-0.291
-0.205
-0.098
-0.206
-0.196
-0.565
-0.526
-0.981
-2.800
0.326
1.791
1.722
1.310
0.410
-0.085
-0.190
-0.088
0.358
0.687
0.885
0.970
0.957
0.745
0.519
0.213
-0.007
-0.033
-0.327
-0.537
-0.634
-0.525
-0.523
-0.592
-0.404
-0.444
-0.329
-0.119
-0.146
-0.091
0.018
-0.002
-0.048
-0.087
-0.022
-0.009
0.023
0.169
0.194
0.057
-0.027
0.112
0.170
0.116
0.175
0.215
0.173
0.250
0.178
0.194
0.175
0.262
0.157
0.091
0.215
0.333
0.169
0.185
0.151
0.227
0.203
0.187
0.123
-0.064
0.149
0.048
0.218
0.137
0.010
0.008
0.106
0.075
0.197
-0.036
0.088
-0.038
-0.031
-0.012
0.036
0.049
-0.148
0.011
-0.076
-0.180
-0.022
-0.005
-0.119
-0.164
-0.212
-0.219
-1.222
-0.002
0.762
0.593
0.303
-0.198
-0.876
-0.352
0.202
0.134
-0.161
0.181
0.521
0.303
0.260
0.025
0.190
-2.622
-3.946
-4.242
-0.193
3.389
4.406
4.592
1.746
-2.753
-4.077
-4.370
-1.354
2.820
4.176
4.474
4.422
4.261
0.220
-2.214
0.504
2.972
3.608
0.817
-3.515
-4.734
-4.869
-2.885
-1.681
-0.751
0.215
1.315
1.982
2.558
3.327
3.995
2.837
3.381
3.841
3.411
2.180
1.254
0.609
-0.318
