0.054
0.039
0.019
0.021
0.117
-0.002
-0.026
-0.034
0.007
0.056
0.014
0.005
0.036
0.139
0.019
-0.028
0.039
0.059
0.002
0.013
0.052
0.006
0.011
-0.035
0.035
0.083
0.025
-0.015
-0.081
0.031
0.101
0.020
0.014
0.119
0.030
-0.030
0.009
0.027
0.044
0.067
-0.035
0.131
-0.054
0.090
0.026
0.043
0.006
0.093
0.049
0.046
0.015
0.043
-0.028
-0.008
0.055
0.071
0.090
0.037
0.098
0.014
0.036
-0.055
0.055
0.020
0.099
0.114
-0.078
0.050
0.004
0.056
0.009
0.024
0.098
0.048
0.058
0.030
0.009
0.064
0.040
-0.042
0.022
-0.023
0.078
-0.015
0.005
0.017
0.108
0.056
0.032
0.042
0.011
0.078
0.007
-0.055
0.049
0.049
-0.004
0.072
-0.009
0.048
0.015
0.009
-0.032
-0.011
0.078
0.022
0.067
0.017
0.005
0.019
-0.049
0.055
0.099
-0.008
-0.029
0.030
0.025
0.016
-0.027
0.058
0.065
0.052
-0.049
0.026
0.003
-0.015
0.022
0.064
0.036
0.087
0.049
0.138
0.054
-0.028
0.036
-0.006
0.112
0.038
0.026
0.016
-0.014
0.015
0.069
0.026
-0.039
0.053
-0.010
0.035
-0.024
-0.015
0.087
0.038
-0.004
0.008
-0.037
0.115
0.022
0.034
0.022
0.041
0.065
0.023
0.030
0.020
0.020
0.090
-0.053
0.063
0.090
-0.013
-0.050
0.059
0.035
0.075
0.078
-0.003
0.041
0.023
0.015
0.095
0.022
-0.019
-0.018
0.096
0.007
-0.083
0.025
0.078
0.041
-0.012
0.094
-0.011
0.053
0.045
0.027
0.105
0.025
-0.037
0.023
0.051
0.010
0.034
-0.029
0.051
0.026
0.007
0.020
0.032
-0.021
0.127
0.026
-0.034
0.072
0.004
-0.009
0.064
0.027
0.044
0.055
0.035
-0.012
0.097
0.001
0.097
0.055
0.049
-0.038
-0.062
0.108
0.024
0.020
0.049
-0.018
-0.013
-0.059
0.122
0.122
-0.035
0.045
-0.017
0.034
0.129
0.036
0.035
-0.082
0.010
0.099
0.139
-0.030
0.009
-0.017
0.000
0.071
0.030
0.003
0.025
0.023
0.143
-0.010
0.039
0.039
0.067
-0.038
0.046
0.071
0.045
0.051
0.063
0.040
0.015
0.006
0.110
-0.041
-0.039
0.012
0.005
0.086
0.047
-0.025
0.078
0.004
-0.027
0.058
0.038
-0.043
0.002
0.037
0.126
0.001
0.002
0.076
0.075
0.012
-0.001
0.075
0.071
-0.010
0.069
0.066
-0.058
0.082
0.070
0.074
0.022
-0.010
0.015
0.037
0.011
0.103
-0.059
0.104
0.038
-0.007
-0.015
0.002
0.122
0.023
0.111
0.005
-0.085
-0.009
0.082
0.089
0.027
-0.009
0.047
0.031
-0.015
0.064
-0.012
0.045
0.013
-0.014
-0.007
0.095
0.049
0.064
0.019
-0.002
-0.020
0.118
0.039
0.099
0.001
0.032
-0.061
0.029
0.079
-0.018
0.088
-0.001
0.071
0.051
0.009
0.050
0.084
0.014
0.014
-0.029
0.077
0.056
-0.022
-0.014
-0.019
0.009
0.039
0.087
0.051
0.056
-0.012
-0.046
0.033
0.053
-0.059
0.012
-0.043
0.117
0.022
-0.023
0.091
0.059
-0.004
-0.088
0.020
0.056
0.050
0.065
-0.016
-0.013
0.050
0.032
0.043
0.087
0.010
0.003
-0.041
0.060
-0.002
0.009
0.086
-0.021
-0.032
0.057
0.020
0.014
0.002
-0.006
0.124
-0.011
-0.028
0.042
0.108
0.092
0.004
0.061
0.011
-0.010
0.013
-0.035
0.009
0.060
-0.048
0.120
0.056
0.090
0.004
0.083
-0.023
0.006
0.033
0.116
-0.045
0.041
0.001
0.082
0.088
-0.032
0.003
-0.006
0.097
0.065
-0.057
0.045
0.055
0.030
0.039
0.002
0.018
-0.016
0.124
0.130
-0.015
0.045
0.021
-0.004
0.023
0.027
0.052
0.026
0.075
-0.016
0.044
0.093
0.039
-0.037
0.013
0.052
0.064
0.059
0.071
-0.064
0.018
0.064
-0.032
0.071
0.038
0.038
0.094
0.047
-0.007
-0.009
0.048
0.039
0.007
0.022
0.040
0.049
0.054
0.071
0.025
0.081
0.056
-0.072
-0.018
0.053
0.066
0.080
0.061
-0.024
0.040
0.073
0.007
0.014
0.047
0.024
0.012
-0.030
-0.015
0.024
0.072
0.097
-0.038
0.075
0.050
-0.005
0.101
-0.027
-0.040
-0.004
0.051
0.213
-0.039
-0.017
0.059
0.055
0.018
0.096
-0.019
-0.017
0.025
0.119
0.062
-0.029
0.018
0.057
0.060
-0.017
0.125
0.121
0.001
-0.058
-0.011
0.003
0.143
0.015
-0.002
0.003
0.107
-0.026
-0.004
0.073
0.086
-0.040
0.064
0.011
0.034
0.068
0.092
-0.010
-0.021
-0.048
0.083
0.037
0.057
0.081
0.016
-0.021
0.007
0.091
0.066
0.036
0.059
0.087
0.010
-0.001
-0.041
0.031
0.025
-0.064
0.037
0.096
0.028
-0.011
-0.108
0.059
0.029
0.168
0.048
0.054
-0.026
-0.056
0.005
0.111
0.096
0.082
0.055
-0.030
0.093
-0.021
0.016
0.040
0.028
0.075
-0.022
0.019
0.044
0.035
0.035
-0.003
0.049
0.073
0.026
-0.002
-0.029
0.077
0.024
-0.016
0.086
0.049
0.004
0.018
0.004
0.050
0.079
0.093
0.078
0.005
0.026
-0.015
-0.072
0.069
0.082
0.003
0.008
0.060
-0.007
0.016
0.065
-0.061
0.067
0.037
0.072
-0.025
0.117
0.039
0.026
0.053
0.003
0.040
0.086
0.018
-0.028
0.037
0.015
0.124
0.056
-0.033
0.092
0.028
-0.070
-0.042
0.048
0.080
0.107
0.098
-0.032
-0.011
-0.002
0.074
0.035
0.019
0.078
-0.018
0.022
0.052
0.042
-0.008
0.076
-0.016
0.033
-0.017
0.037
0.038
0.071
0.094
-0.049
0.031
0.050
0.143
0.002
0.025
-0.050
0.105
0.096
0.043
0.029
0.079
0.058
0.034
0.007
-0.015
-0.033
0.061
0.024
-0.003
0.062
0.022
-0.002
0.019
0.023
0.036
0.008
0.026
0.013
0.042
-0.017
0.006
0.083
0.093
0.050
0.013
0.026
-0.010
0.030
0.021
0.098
0.039
-0.048
0.051
0.084
0.094
0.040
0.038
-0.056
0.058
0.003
0.066
0.007
0.016
0.099
0.002
0.052
0.094
0.036
-0.028
-0.039
0.054
0.082
0.026
-0.020
0.026
0.058
0.093
-0.051
0.022
-0.028
0.082
0.041
0.047
0.030
0.022
-0.002
-0.008
-0.074
0.033
0.095
-0.011
0.012
0.053
-0.012
0.095
-0.008
0.019
0.081
0.054
0.005
0.028
0.028
-0.046
0.077
0.045
0.097
0.039
0.085
-0.021
0.105
0.028
0.024
-0.044
-0.037
0.028
0.060
0.069
0.036
0.029
0.052
-0.005
-0.040
0.043
0.095
0.066
0.006
0.040
-0.027
0.004
0.070
0.042
-0.012
0.057
-0.007
0.026
0.022
-0.065
0.013
0.121
0.127
0.056
-0.027
0.018
0.093
0.006
0.003
0.077
0.078
0.046
-0.015
0.068
0.022
0.033
0.056
-0.002
0.026
0.100
0.039
0.052
0.020
0.081
-0.076
0.011
0.121
0.005
0.067
-0.006
0.078
0.000
0.024
-0.042
0.069
0.070
0.058
0.033
0.012
-0.021
0.117
0.074
0.009
0.018
-0.020
0.088
0.034
0.072
0.016
-0.022
0.102
0.083
-0.074
-0.035
0.038
-0.102
0.078
0.001
-0.003
0.054
0.115
0.026
0.030
0.066
0.033
0.044
0.085
0.030
0.075
0.002
0.006
0.052
0.003
0.036
0.011
0.055
0.012
0.022
0.053
-0.037
0.068
0.029
0.070
0.044
0.004
-0.020
-0.081
0.060
0.083
0.047
0.016
0.033
-0.007
0.013
0.070
0.051
-0.029
0.002
0.026
0.075
0.085
0.015
0.007
-0.063
0.025
0.015
0.079
0.056
0.054
-0.023
-0.032
0.096
-0.041
0.017
0.103
0.050
-0.014
0.008
0.051
0.058
0.028
0.026
0.021
0.057
0.031
0.071
0.075
0.010
0.029
0.106
-0.017
-0.049
0.130
0.024
0.067
0.057
-0.050
0.019
-0.029
0.028
0.003
0.014
0.035
0.041
0.036
0.026
0.043
0.106
0.099
-0.053
0.016
0.090
-0.027
-0.005
0.047
0.101
0.008
0.088
-0.007
0.021
0.065
0.012
-0.011
0.087
-0.005
0.026
0.025
0.098
0.051
-0.037
0.073
0.006
0.049
0.014
0.054
-0.016
0.021
-0.007
0.039
0.071
0.084
0.039
-0.030
0.034
0.007
0.096
0.039
-0.040
-0.005
0.087
0.074
0.004
-0.002
0.060
-0.003
0.021
0.064
-0.014
0.008
-0.001
0.042
0.045
0.004
-0.009
-0.001
-0.012
0.047
0.092
0.104
0.014
0.006
0.069
-0.000
0.025
-0.008
0.000
0.056
-0.021
0.112
0.110
0.027
-0.003
-0.012
-0.000
-0.017
0.012
-0.033
0.072
0.012
0.048
0.049
0.043
0.049
0.086
0.043
0.031
-0.033
0.016
0.057
-0.002
0.034
0.067
0.016
0.047
0.004
0.012
0.095
0.063
0.038
-0.011
0.013
0.026
0.034
0.126
0.003
0.007
0.031
-0.016
-0.077
0.013
0.049
-0.029
-0.001
0.064
0.023
0.016
-0.031
0.020
-0.014
0.108
0.054
-0.057
0.004
0.070
0.165
-0.020
-0.050
0.036
0.027
-0.004
0.050
0.006
0.058
0.015
0.020
0.008
-0.035
0.007
0.082
0.031
0.079
0.081
0.047
-0.024
-0.023
-0.044
0.054
0.051
-0.031
-0.093
0.075
0.007
0.034
0.074
0.049
0.006
-0.040
0.076
0.076
-0.022
0.080
-0.057
0.002
-0.029
0.059
0.044
0.080
0.034
0.001
-0.028
0.075
-0.048
0.032
0.017
0.025
-0.018
0.028
0.091
0.023
-0.004
0.099
-0.036
0.029
-0.021
0.080
0.006
0.039
0.071
0.015
-0.057
0.033
0.041
0.034
0.064
0.015
-0.000
0.074
-0.003
0.024
0.066
0.029
0.030
0.052
0.061
-0.034
0.148
0.026
-0.022
0.006
0.106
0.025
0.052
-0.042
0.120
0.041
-0.002
0.042
-0.035
0.088
0.061
-0.037
0.023
0.066
0.031
0.037
-0.005
-0.083
0.069
0.072
0.067
0.003
0.047
0.020
-0.009
0.051
0.059
0.122
0.018
-0.001
-0.059
0.040
0.001
0.098
0.034
-0.001
-0.010
0.015
0.067
0.052
0.025
-0.017
0.047
-0.008
0.045
0.042
0.025
-0.066
0.041
0.061
0.095
0.039
-0.013
-0.010
0.061
0.081
-0.017
-0.041
0.020
0.017
0.089
0.053
0.059
0.029
0.039
0.004
0.021
-0.014
0.014
0.040
0.020
0.063
0.013
0.113
-0.029
0.034
0.051
0.011
0.054
0.080
-0.009
0.018
0.007
0.001
-0.010
-0.072
0.067
0.086
0.056
-0.024
0.038
-0.032
0.066
-0.001
0.092
0.006
0.088
0.023
-0.043
0.048
-0.059
0.058
0.051
0.030
0.038
0.029
-0.073
0.093
-0.004
0.010
0.064
-0.020
-0.075
0.042
0.064
0.059
0.125
0.045
0.051
-0.084
-0.087
-0.023
0.158
0.074
0.080
0.032
0.022
0.037
0.002
-0.027
0.137
-0.050
0.011
0.048
0.031
0.056
-0.005
0.048
0.001
-0.049
0.089
0.103
-0.129
0.060
-0.029
0.066
-0.002
0.056
0.016
0.099
-0.037
-0.027
0.085
-0.008
0.054
0.047
0.049
0.012
0.018
-0.009
0.004
0.087
0.062
0.025
0.005
0.053
0.050
-0.058
-0.005
-0.077
0.055
-0.003
0.008
0.131
0.029
0.038
0.030
0.025
0.087
-0.047
0.023
0.091
0.049
0.001
-0.032
0.063
-0.003
0.078
0.032
0.065
-0.109
0.036
0.128
0.063
0.060
-0.046
0.005
0.023
-0.018
0.002
0.026
-0.091
0.060
0.019
0.056
-0.012
0.008
0.050
0.068
0.106
-0.013
0.050
0.006
0.010
-0.003
-0.011
-0.002
0.030
0.050
0.043
0.102
0.046
-0.033
-0.003
-0.067
0.067
0.086
0.016
0.065
0.014
0.028
0.079
-0.021
0.010
0.043
0.024
0.009
0.059
-0.016
0.030
0.018
0.023
0.083
-0.063
0.002
0.003
0.041
0.028
0.033
-0.002
-0.007
0.088
-0.004
0.036
0.029
0.107
0.004
0.022
0.035
0.032
-0.026
0.058
0.095
-0.004
0.021
0.049
0.072
-0.048
-0.001
0.040
0.008
0.042
0.046
0.060
0.074
0.039
-0.016
0.008
0.016
0.051
0.040
0.064
-0.027
0.072
0.035
0.031
0.041
0.032
-0.022
0.037
0.019
0.076
0.032
-0.026
-0.004
0.100
0.022
-0.048
0.044
-0.017
-0.019
-0.010
0.047
0.078
0.055
0.001
0.041
0.038
0.028
-0.016
-0.018
0.025
0.035
0.059
-0.011
-0.021
0.093
0.050
-0.046
0.019
0.018
0.011
0.075
-0.036
0.002
0.097
0.026
0.055
-0.003
0.076
0.044
0.028
0.071
-0.046
-0.050
0.047
0.099
0.016
0.096
0.038
0.027
-0.053
0.068
0.068
0.045
-0.018
0.091
-0.105
0.041
0.003
0.041
-0.010
-0.009
-0.010
-0.006
0.056
-0.043
0.075
0.056
0.085
-0.009
-0.007
0.067
0.076
0.010
0.018
0.017
0.127
0.025
0.010
0.054
0.021
0.046
0.091
0.040
0.004
0.089
0.109
0.088
0.032
0.019
-0.015
0.037
0.121
0.042
-0.007
0.002
0.040
-0.061
0.088
-0.020
-0.032
-0.046
0.102
0.151
0.029
-0.014
0.051
0.058
0.042
-0.063
0.039
0.090
0.041
0.011
0.078
0.031
0.062
-0.037
-0.050
0.089
0.078
0.053
0.023
0.071
0.001
0.036
0.045
0.007
-0.022
0.046
0.093
0.017
-0.053
0.099
-0.019
0.034
0.078
-0.046
-0.061
0.031
0.136
0.071
0.109
-0.043
0.031
0.061
0.102
-0.043
0.029
-0.081
0.051
0.108
0.062
0.082
0.039
-0.046
-0.075
0.116
-0.002
-0.020
-0.013
0.022
0.090
0.126
0.005
-0.027
0.072
-0.086
0.036
-0.038
0.098
0.036
0.030
-0.008
0.063
-0.019
-0.030
-0.005
0.032
-0.018
0.151
0.052
0.033
0.035
0.046
-0.017
0.048
-0.047
0.085
0.055
0.059
0.018
0.055
0.030
0.052
0.020
0.016
0.050
-0.036
0.034
0.026
0.098
-0.074
0.003
0.053
0.023
0.007
0.043
0.044
0.008
0.037
-0.048
0.015
0.010
0.094
0.047
-0.031
0.060
0.020
-0.001
0.035
-0.001
0.085
0.008
0.045
0.136
-0.030
0.036
-0.017
0.143
0.058
0.068
-0.023
-0.012
0.032
0.037
0.043
0.066
0.068
-0.069
0.065
-0.045
0.066
-0.076
0.074
0.044
0.022
0.049
0.035
0.059
-0.018
-0.002
0.035
0.019
0.027
-0.006
-0.026
0.123
0.008
0.006
0.069
0.047
0.037
-0.049
0.020
0.087
0.051
-0.035
-0.023
0.096
0.080
0.037
-0.038
-0.006
0.029
0.123
0.095
0.014
0.013
0.000
0.021
0.083
0.043
-0.017
0.041
0.017
0.019
0.085
0.048
0.033
0.038
0.048
0.057
0.034
-0.023
-0.048
0.091
-0.058
0.130
0.028
-0.052
-0.047
0.046
0.007
0.018
0.041
-0.050
0.050
0.045
-0.018
-0.010
0.053
-0.001
0.067
0.111
0.036
-0.005
0.099
0.080
-0.023
0.054
-0.094
0.056
0.091
0.077
0.014
0.004
-0.035
0.037
0.028
0.058
0.007
-0.047
0.036
0.056
0.041
0.004
0.001
0.010
0.070
0.087
0.047
0.032
0.011
0.017
0.058
-0.023
0.044
0.071
-0.019
0.020
0.029
0.028
-0.053
-0.001
0.087
0.126
0.033
0.062
-0.015
-0.031
0.059
0.026
-0.004
0.009
0.025
0.008
0.047
-0.002
0.048
0.010
0.053
0.010
0.074
0.027
0.006
-0.024
0.065
0.080
0.102
-0.007
0.024
0.151
-0.028
-0.019
-0.029
0.039
0.038
-0.006
0.141
0.047
-0.007
-0.069
0.063
0.058
0.048
0.027
-0.073
-0.006
0.152
0.035
-0.090
0.123
0.084
0.045
-0.109
0.032
0.081
0.049
0.059
-0.046
0.120
-0.005
-0.056
-0.006
0.057
0.024
0.016
0.047
0.109
0.030
0.043
-0.016
-0.030
0.012
0.032
0.024
-0.005
0.039
0.065
0.101
0.104
0.072
-0.043
0.052
0.040
-0.073
-0.007
0.120
0.070
-0.065
0.080
0.041
0.006
0.012
-0.003
0.110
-0.019
-0.045
0.045
0.042
0.020
0.023
0.106
0.008
0.069
-0.095
0.012
0.093
0.041
-0.028
-0.004
0.010
-0.018
0.077
0.007
0.083
0.001
0.081
0.002
0.063
0.041
0.051
0.054
0.026
-0.026
0.066
0.082
-0.081
0.052
0.035
0.054
-0.082
0.075
-0.029
0.070
-0.038
0.052
-0.015
0.062
0.002
0.081
0.068
0.054
0.037
-0.054
0.006
0.067
0.099
0.005
0.002
0.060
0.032
0.024
-0.027
-0.087
0.059
0.016
0.026
0.107
-0.014
0.003
0.096
-0.065
-0.019
0.059
0.031
0.058
0.002
0.041
0.056
0.013
0.012
0.113
0.029
-0.006
0.058
0.084
-0.023
0.089
-0.034
0.014
0.038
-0.042
-0.014
0.015
0.050
0.006
0.082
0.001
0.016
-0.008
0.030
0.020
0.017
0.020
-0.021
0.118
0.154
0.024
-0.073
0.030
0.042
0.053
0.068
-0.037
0.046
0.064
0.078
0.056
-0.030
0.044
0.025
0.067
0.056
-0.013
-0.011
-0.002
0.066
0.081
0.008
0.102
0.018
-0.029
-0.017
0.122
0.051
0.028
0.022
-0.062
-0.054
0.029
0.036
-0.029
0.058
0.045
0.023
-0.001
0.022
0.020
-0.033
0.122
0.091
0.026
-0.029
0.065
0.078
0.082
-0.008
0.017
0.073
0.061
0.022
-0.060
-0.002
0.008
0.071
0.024
0.047
0.042
0.068
-0.019
-0.001
0.025
-0.027
0.056
0.128
0.024
0.015
0.026
0.068
0.001
0.007
0.085
0.065
-0.044
-0.057
0.061
0.057
0.082
0.038
0.034
-0.072
0.049
-0.046
0.057
0.076
0.056
0.026
-0.016
0.055
0.018
0.141
0.031
-0.045
-0.005
0.112
0.048
0.038
-0.010
0.034
0.011
0.028
-0.006
0.067
0.045
-0.004
0.031
0.012
0.021
0.009
-0.052
0.028
0.032
0.076
0.017
0.112
-0.005
0.080
0.017
0.067
-0.076
-0.092
0.118
0.108
0.093
-0.012
-0.032
-0.022
0.073
0.076
0.035
0.040
-0.057
0.077
0.044
0.007
0.019
0.077
0.036
0.061
0.031
-0.041
0.013
-0.025
0.033
0.041
0.120
0.065
-0.003
-0.015
-0.056
0.075
0.063
-0.064
0.019
0.029
0.069
0.045
0.006
-0.014
0.096
-0.010
0.088
0.114
-0.074
-0.043
0.009
0.073
0.039
0.160
-0.035
-0.006
0.030
0.004
0.097
-0.013
0.098
0.076
-0.008
-0.034
0.024
-0.014
0.059
0.044
0.040
0.042
0.141
-0.063
-0.029
0.100
0.093
0.055
-0.029
0.018
0.003
0.032
0.021
0.016
0.087
0.089
-0.017
0.085
0.027
-0.028
0.069
0.089
0.018
0.073
0.017
0.007
-0.025
0.097
-0.012
0.025
0.029
0.049
0.062
-0.036
0.119
0.040
-0.019
-0.047
0.024
0.064
0.074
0.022
0.018
-0.012
0.048
0.006
0.096
0.020
-0.039
-0.020
0.058
0.089
0.069
-0.060
-0.017
-0.036
0.059
0.103
-0.002
0.065
0.011
0.082
-0.069
0.006
0.042
0.073
0.029
0.066
0.034
0.055
0.004
-0.040
-0.024
0.096
0.066
-0.009
-0.102
0.066
0.089
0.043
-0.019
-0.031
0.010
0.079
0.029
0.007
-0.000
0.068
0.066
-0.001
0.061
0.031
0.036
-0.015
0.033
0.029
0.005
0.024
0.008
0.047
-0.004
0.013
0.058
0.016
0.064
0.062
0.010
-0.025
0.086
0.013
0.016
0.074
0.083
0.016
-0.001
-0.009
0.055
0.085
0.050
0.062
-0.037
-0.007
0.013
0.070
0.058
0.030
0.082
-0.007
0.080
0.080
-0.075
0.024
0.093
-0.003
0.004
-0.007
-0.004
0.050
0.029
0.056
0.008
0.017
-0.080
0.091
0.020
0.015
0.006
0.178
-0.034
0.013
-0.006
0.101
-0.028
0.094
-0.007
0.069
0.026
0.053
-0.031
0.005
-0.016
0.044
-0.044
0.014
0.093
0.069
-0.032
-0.043
-0.009
0.080
0.009
0.025
-0.011
-0.017
0.116
0.012
0.074
-0.032
0.057
-0.007
0.018
-0.024
-0.037
0.020
-0.027
-0.021
0.120
0.121
0.099
0.090
-0.063
-0.001
0.109
0.055
0.035
0.043
0.044
0.002
0.037
0.025
0.014
0.020
0.032
-0.067
-0.035
0.030
0.049
-0.002
0.067
0.019
0.057
0.003
0.011
-0.016
0.030
0.081
0.065
-0.005
0.097
0.003
-0.005
0.067
0.054
0.009
0.018
0.066
0.047
-0.043
-0.049
0.035
0.078
0.074
0.082
-0.016
0.007
0.037
0.021
0.085
0.054
0.069
-0.032
0.072
-0.000
-0.033
0.146
0.082
-0.077
0.078
0.088
0.074
0.019
0.024
0.020
0.075
0.015
0.024
-0.046
-0.044
0.077
0.094
0.047
-0.046
-0.025
0.067
-0.041
0.032
0.032
-0.018
0.008
-0.021
0.119
0.073
0.061
-0.086
0.030
0.008
0.032
0.097
-0.048
-0.059
-0.007
0.162
-0.020
0.016
0.026
0.125
0.014
0.011
0.039
0.052
-0.003
0.041
0.032
0.002
-0.049
0.034
0.013
0.071
-0.008
0.002
0.114
-0.005
-0.067
0.017
0.146
0.018
0.020
0.001
0.001
0.037
0.052
0.076
0.041
0.078
-0.011
0.036
-0.021
0.106
0.016
-0.049
0.026
0.064
0.041
0.086
0.123
-0.041
0.009
0.048
0.017
0.035
0.025
0.028
0.041
0.120
0.051
-0.000
-0.052
0.029
0.117
0.032
-0.066
-0.001
-0.006
0.004
0.062
-0.043
0.114
0.018
0.099
0.005
0.009
0.070
0.014
0.021
0.032
0.086
0.048
0.012
-0.042
0.090
0.005
0.088
0.075
-0.012
-0.006
0.058
0.046
0.069
0.029
0.100
0.051
0.004
0.057
0.038
0.039
-0.020
-0.074
0.101
0.034
0.109
-0.012
-0.015
0.058
0.118
-0.062
0.036
-0.002
0.051
0.028
0.072
0.030
-0.009
0.050
0.022
0.003
-0.011
0.030
0.088
-0.012
0.057
0.040
0.056
-0.010
0.084
0.014
0.058
0.075
-0.025
0.050
-0.045
0.061
0.042
0.089
0.054
0.011
0.014
-0.003
0.098
0.051
0.005
0.142
0.070
-0.023
0.054
0.033
0.064
-0.030
-0.010
0.019
0.058
0.050
0.016
-0.024
0.074
0.052
0.007
0.016
0.019
0.028
0.014
0.097
0.056
0.046
0.030
0.058
-0.006
0.102
0.047
-0.013
0.091
-0.003
-0.036
0.024
0.083
0.026
-0.022
0.075
0.097
-0.072
0.046
0.085
0.058
-0.027
0.068
0.068
-0.016
-0.026
0.116
0.033
-0.019
0.033
0.020
-0.011
-0.073
0.080
0.096
-0.037
-0.026
0.053
0.036
0.048
0.022
0.010
0.097
0.071
0.084
-0.058
0.052
0.079
-0.015
0.020
-0.009
0.040
0.080
-0.023
0.031
-0.005
0.038
0.012
0.072
0.003
0.013
0.050
-0.004
0.045
0.036
0.029
0.064
0.025
-0.015
0.072
0.006
0.047
0.013
0.015
0.050
-0.074
0.020
0.030
0.068
0.005
0.056
0.014
0.027
0.032
0.053
0.035
-0.036
0.023
0.122
0.022
0.025
-0.143
0.081
0.129
0.041
-0.035
0.017
0.078
0.049
0.029
0.024
0.072
0.048
0.052
-0.062
-0.015
0.056
0.075
0.025
0.052
-0.048
0.083
0.020
0.001
0.076
0.014
0.048
0.083
-0.047
0.003
0.096
-0.065
0.003
0.015
0.024
-0.019
0.071
0.015
-0.027
-0.027
0.049
0.096
0.054
0.006
0.084
-0.012
0.062
0.103
0.078
-0.005
0.065
-0.020
0.054
-0.014
0.065
0.007
0.003
0.118
-0.039
-0.010
0.044
0.032
0.019
0.086
-0.001
-0.016
-0.006
0.034
0.053
0.030
-0.036
0.025
0.024
0.004
0.053
0.050
0.074
0.007
-0.033
0.010
0.001
0.055
0.028
0.033
0.028
0.014
0.021
-0.017
0.039
0.097
0.042
0.101
0.028
0.017
0.024
0.004
0.006
0.104
0.016
0.031
0.011
0.138
0.084
-0.012
-0.045
0.003
-0.012
0.117
0.062
-0.005
0.054
-0.082
0.019
-0.028
-0.023
-0.001
0.025
0.023
-0.015
0.020
0.017
0.052
-0.114
0.065
0.151
0.152
-0.034
0.032
0.058
0.006
0.032
0.096
0.107
0.013
-0.038
0.053
0.054
0.019
0.028
-0.011
0.050
0.031
0.027
0.090
-0.081
0.010
0.052
0.074
-0.008
-0.001
0.042
-0.005
0.064
0.089
0.050
0.000
0.061
0.072
0.094
0.086
-0.034
-0.014
0.066
0.044
-0.050
0.004
0.034
0.035
0.098
0.059
0.108
0.002
0.040
0.016
-0.017
0.065
0.077
-0.044
-0.003
0.091
0.113
-0.020
-0.019
0.094
0.061
0.052
-0.014
-0.020
-0.026
0.086
0.039
0.065
0.060
0.038
0.018
0.050
0.017
0.032
0.127
0.001
0.045
-0.028
0.139
-0.030
0.113
0.010
0.072
-0.005
-0.010
0.041
-0.029
0.069
0.091
0.018
0.070
0.079
-0.018
0.029
0.020
0.000
0.041
0.116
0.077
-0.034
0.027
-0.011
0.031
-0.042
-0.002
0.078
0.081
0.013
0.018
0.011
-0.051
0.092
0.072
0.005
0.021
-0.043
0.090
0.016
0.046
0.036
-0.075
0.080
0.051
0.027
0.098
-0.002
0.040
-0.015
0.057
-0.064
0.031
0.096
0.028
0.069
0.021
0.040
-0.003
0.024
-0.034
0.014
-0.049
0.059
0.056
0.053
0.062
-0.021
-0.058
0.090
0.097
-0.027
-0.055
0.054
0.056
0.147
0.048
-0.076
0.023
0.093
0.006
0.025
0.007
0.034
-0.009
-0.019
0.057
0.018
0.059
0.070
0.021
0.025
0.013
-0.016
0.003
0.039
0.000
0.010
0.077
0.161
-0.021
0.035
0.009
-0.034
-0.009
0.102
0.039
0.061
0.034
-0.032
-0.030
0.042
0.081
-0.004
0.042
-0.077
-0.011
0.081
0.018
-0.069
0.025
0.068
0.051
0.037
0.090
0.018
0.004
0.025
0.003
0.033
0.008
-0.011
0.078
0.022
0.137
-0.025
-0.020
0.063
0.078
-0.017
-0.002
-0.018
0.017
0.135
0.025
0.006
0.021
0.049
0.075
-0.040
-0.062
-0.033
0.112
0.047
-0.078
0.043
0.059
0.041
0.022
0.018
-0.004
0.019
0.026
-0.010
0.009
0.055
0.049
0.063
0.033
0.016
0.039
0.024
0.033
0.060
-0.004
-0.031
-0.038
0.050
0.043
0.047
0.030
0.063
0.030
-0.019
0.038
0.003
0.025
0.053
0.060
-0.027
-0.011
0.107
-0.031
-0.049
0.003
0.009
0.046
0.090
0.033
0.018
0.036
-0.022
0.059
0.044
0.043
0.027
0.044
0.051
0.059
0.064
-0.021
-0.010
0.128
-0.048
0.068
0.014
0.065
0.032
0.005
0.045
0.018
0.044
0.054
0.054
0.065
0.055
-0.029
-0.029
-0.042
0.078
0.056
0.054
-0.005
0.060
0.017
-0.042
0.036
0.040
-0.028
-0.022
0.126
0.057
0.038
0.001
0.016
0.076
0.027
0.021
0.040
0.045
0.123
-0.003
0.008
0.031
0.101
-0.016
0.015
0.084
0.061
-0.015
0.037
-0.007
0.006
0.068
-0.035
-0.014
0.022
0.092
-0.017
-0.022
0.005
0.023
0.072
0.120
0.029
-0.007
0.047
0.027
0.039
0.008
-0.061
0.033
0.018
-0.021
0.083
0.018
0.027
-0.042
0.017
-0.015
0.061
0.041
0.078
0.036
0.024
0.008
0.061
0.071
0.071
0.044
-0.022
-0.006
0.061
0.049
0.046
-0.003
-0.009
0.018
-0.003
0.049
0.081
0.007
0.085
-0.011
0.017
-0.006
0.087
0.015
-0.062
0.055
0.037
0.040
0.036
-0.025
0.051
0.007
0.037
-0.016
0.000
0.040
0.010
0.041
0.028
0.054
0.040
0.075
-0.009
-0.013
0.024
0.044
0.104
-0.053
0.057
-0.019
0.073
0.061
0.106
0.006
0.046
0.006
-0.007
0.005
0.076
0.007
0.082
0.004
0.073
0.115
-0.013
0.006
-0.011
0.067
-0.059
0.087
0.004
0.083
0.075
-0.030
-0.024
-0.023
0.051
0.142
-0.050
0.040
0.054
0.010
-0.036
-0.033
0.040
0.026
0.071
0.132
0.111
-0.061
0.060
0.065
0.025
-0.036
0.007
0.069
0.040
0.026
-0.082
0.042
-0.067
0.060
-0.048
0.067
0.137
0.034
-0.034
-0.041
0.054
0.027
0.030
0.043
0.006
0.093
0.053
-0.010
-0.031
0.033
0.036
0.113
0.098
0.001
0.025
0.072
0.072
-0.036
0.033
0.017
0.044
-0.006
0.053
0.086
0.067
0.023
-0.013
0.023
0.013
0.060
0.000
0.011
-0.000
0.001
-0.013
0.003
0.004
0.125
-0.015
-0.024
0.013
0.018
0.077
0.018
-0.078
0.125
0.011
-0.033
0.097
0.052
-0.010
0.037
0.079
0.129
0.016
-0.023
-0.044
-0.002
0.061
0.069
0.090
0.028
0.032
-0.026
0.013
0.024
0.056
0.043
-0.068
0.053
0.061
-0.052
0.071
0.039
0.089
0.027
0.017
0.031
-0.077
0.038
-0.006
-0.053
0.025
0.107
0.017
0.051
-0.048
-0.021
0.014
-0.009
0.007
0.052
0.001
0.005
0.021
0.052
0.099
0.022
0.033
0.025
-0.032
0.002
0.197
0.070
0.012
-0.025
0.033
0.036
0.027
0.007
0.067
-0.004
0.093
0.076
0.048
-0.032
0.014
-0.031
0.066
0.018
0.134
-0.003
-0.001
0.054
-0.006
0.043
0.035
0.048
-0.038
0.078
0.045
0.015
-0.047
0.079
0.032
0.098
0.066
0.070
0.018
-0.043
0.025
0.113
0.041
0.016
0.013
0.056
0.041
0.057
0.077
-0.029
-0.038
0.053
0.075
0.038
0.059
0.055
0.055
-0.008
-0.005
-0.012
0.043
0.035
0.046
-0.011
0.059
0.058
0.030
-0.042
-0.028
0.075
0.032
0.051
-0.011
0.083
0.057
-0.046
0.041
-0.002
0.083
0.085
0.052
0.035
-0.023
0.057
0.075
0.082
-0.033
-0.031
0.021
0.087
0.091
-0.027
-0.068
0.080
-0.001
0.060
0.004
0.044
0.073
-0.038
0.057
0.006
-0.076
0.074
0.084
0.059
-0.128
0.057
0.056
0.051
-0.017
0.036
0.069
0.109
-0.056
-0.015
-0.051
0.021
0.073
0.036
-0.022
0.028
0.035
0.107
-0.028
0.037
0.010
0.041
-0.027
0.023
0.019
0.026
0.040
-0.019
-0.017
0.028
0.042
0.049
0.035
0.088
0.040
0.002
0.146
0.053
-0.013
-0.028
-0.005
0.078
0.084
0.010
0.016
0.041
0.013
0.024
0.059
-0.043
0.003
0.087
-0.073
0.037
0.091
0.086
0.035
0.020
-0.001
0.059
0.035
0.055
-0.028
0.056
0.043
0.003
-0.029
0.014
0.076
0.001
-0.014
0.022
-0.032
0.088
0.039
0.014
0.050
0.020
-0.031
0.005
0.071
0.093
-0.004
0.053
0.047
0.002
0.002
0.033
0.078
0.035
0.075
0.022
0.033
0.060
-0.054
0.005
0.119
0.057
0.066
-0.003
0.004
0.005
0.024
0.080
0.022
0.099
0.021
0.000
0.070
0.057
0.097
0.071
-0.024
-0.096
0.009
0.089
0.008
0.046
0.093
0.022
0.060
-0.002
0.024
0.042
0.044
0.053
0.039
-0.000
0.010
0.041
0.100
0.015
0.034
-0.004
0.059
0.014
0.082
0.009
-0.013
-0.018
0.032
0.026
-0.014
0.127
0.078
-0.021
-0.056
-0.015
0.066
0.103
-0.031
-0.016
0.014
0.051
-0.016
-0.054
0.027
0.059
0.044
0.065
0.063
-0.078
-0.042
0.194
0.091
0.034
-0.030
0.000
-0.010
0.092
0.072
0.017
0.045
-0.048
0.052
0.042
0.127
0.027
-0.052
-0.063
0.067
0.024
0.082
0.015
-0.045
0.058
0.021
-0.018
0.051
0.035
0.061
0.021
0.007
-0.009
-0.032
-0.026
0.062
-0.006
0.085
0.082
-0.080
0.013
0.030
0.013
0.077
-0.018
0.001
0.055
0.042
0.100
0.041
0.059
-0.023
0.039
-0.027
0.066
0.063
0.002
0.070
0.024
0.049
0.029
0.028
-0.058
0.108
0.014
0.048
0.058
0.040
0.027
-0.036
0.028
0.101
0.077
0.077
0.019
0.101
0.000
-0.043
0.040
0.044
0.056
0.007
-0.046
0.056
0.093
0.040
-0.044
0.059
0.026
0.013
0.023
-0.046
-0.028
0.086
0.082
0.048
0.026
0.059
-0.079
0.048
0.057
-0.012
0.034
0.043
-0.033
0.003
0.076
0.075
0.003
0.081
0.015
0.123
-0.030
0.039
0.026
0.017
0.044
0.023
0.125
0.078
0.086
-0.097
0.087
-0.053
0.027
0.055
-0.028
0.072
0.048
0.045
0.002
-0.017
0.091
-0.010
0.038
0.030
0.028
0.060
0.065
0.055
0.003
-0.032
0.040
0.089
-0.060
0.072
0.180
0.079
-0.041
-0.004
-0.040
-0.008
0.059
0.023
0.068
-0.014
0.084
0.115
-0.034
0.048
0.067
0.035
0.017
-0.005
0.039
0.060
0.050
0.070
-0.027
0.003
0.026
0.082
-0.034
0.017
0.025
0.034
0.035
0.045
-0.012
0.056
0.045
0.045
0.038
0.007
-0.019
0.055
0.041
0.007
0.072
0.035
0.063
0.081
0.048
-0.087
-0.002
-0.040
0.095
0.105
0.047
0.015
0.008
-0.035
0.104
0.049
-0.033
0.027
0.016
0.058
0.065
-0.003
0.032
0.002
-0.004
0.012
0.153
0.034
-0.023
0.008
0.024
0.023
-0.014
0.020
0.056
0.021
0.099
0.027
-0.050
0.011
0.115
0.027
0.035
-0.042
0.055
0.116
0.053
0.017
0.016
0.081
0.059
0.060
0.075
-0.007
0.059
-0.007
0.001
0.080
0.132
-0.032
0.005
0.072
0.072
-0.008
-0.005
-0.019
-0.032
0.074
0.046
0.045
0.060
-0.007
0.053
0.041
-0.044
0.115
0.044
0.024
0.087
0.006
0.074
0.068
0.061
-0.001
0.063
0.101
0.019
0.017
-0.012
0.007
0.111
-0.039
0.071
-0.060
0.067
0.016
0.020
0.096
0.004
-0.030
0.047
0.042
0.083
-0.047
-0.001
0.026
0.062
0.005
0.135
-0.010
0.017
0.062
0.036
0.076
0.063
-0.071
0.071
-0.084
0.054
-0.015
0.067
0.022
0.088
0.005
-0.033
-0.007
0.072
-0.044
0.041
0.015
-0.027
0.077
0.019
0.108
0.037
-0.008
-0.043
0.093
0.040
0.028
0.010
0.033
0.033
-0.038
0.019
0.058
-0.058
0.041
0.034
0.126
0.047
-0.006
0.057
-0.059
0.064
0.013
0.026
0.011
0.028
0.114
0.041
-0.079
0.034
0.016
-0.017
-0.013
-0.009
0.058
0.034
0.090
0.021
0.016
-0.009
0.035
0.013
0.017
0.077
0.147
0.013
0.037
-0.003
-0.057
-0.015
-0.008
0.093
0.081
0.130
0.057
-0.048
-0.014
-0.012
-0.006
0.054
0.121
-0.002
0.039
-0.007
0.049
-0.043
0.019
0.036
-0.019
0.003
0.047
0.054
0.055
0.001
0.025
0.004
0.007
0.040
0.044
0.032
0.050
0.084
0.033
-0.014
0.024
0.094
0.077
-0.051
0.063
0.010
0.036
0.032
0.046
-0.015
-0.006
0.059
0.096
0.016
0.004
-0.059
-0.007
0.019
0.065
0.063
0.099
0.038
-0.023
0.093
-0.038
0.041
-0.033
0.098
0.034
0.140
-0.030
0.036
-0.001
0.060
-0.016
0.011
0.077
-0.019
0.103
0.006
0.112
0.050
0.040
-0.024
0.069
-0.004
0.075
-0.008
0.084
0.059
-0.044
0.019
0.062
-0.031
0.017
0.068
-0.007
0.081
-0.024
0.030
0.072
0.036
-0.024
0.014
0.050
0.020
0.056
0.085
0.014
0.014
0.007
0.041
0.032
0.024
0.057
0.080
-0.012
0.001
0.010
0.074
0.060
0.023
0.069
-0.000
0.016
0.024
0.007
0.069
0.070
-0.050
0.044
-0.039
-0.011
-0.017
0.065
0.078
0.040
0.018
-0.022
-0.041
0.089
0.095
0.016
0.077
-0.015
0.067
-0.010
0.068
0.019
-0.034
0.042
0.057
0.102
-0.011
0.036
0.006
-0.041
0.087
-0.021
-0.008
-0.039
0.011
0.093
0.029
-0.020
0.024
0.063
0.029
-0.012
0.121
0.043
-0.018
0.013
0.073
0.022
-0.010
0.041
0.090
-0.038
-0.007
-0.011
0.041
-0.005
0.077
0.071
-0.052
0.010
0.043
0.058
0.055
0.034
-0.005
-0.018
0.071
0.017
0.052
0.030
0.085
0.016
0.032
0.070
0.013
0.038
0.038
0.086
0.005
0.026
0.026
0.034
0.018
0.044
0.026
0.008
-0.017
0.018
-0.006
0.014
0.011
0.082
-0.055
0.084
-0.013
-0.034
0.150
0.049
0.002
-0.011
0.060
0.000
0.004
-0.039
0.011
0.163
-0.069
-0.076
0.120
0.014
0.014
0.101
0.045
0.018
-0.050
0.103
0.022
-0.008
0.038
0.066
0.023
0.064
-0.002
0.020
0.026
0.005
-0.024
0.005
0.034
0.014
0.015
0.122
-0.043
-0.014
-0.001
0.088
0.014
0.015
0.113
0.054
0.079
-0.063
-0.048
0.048
0.015
-0.039
0.026
-0.011
0.027
0.079
-0.024
0.052
0.055
0.031
0.020
0.000
0.053
0.039
0.035
0.083
0.076
-0.064
-0.010
-0.034
0.121
-0.013
0.052
0.071
0.024
0.013
0.026
0.047
-0.040
0.079
0.011
0.136
-0.020
0.047
-0.007
-0.039
0.067
0.046
0.017
0.060
0.011
0.017
0.037
0.058
0.032
0.096
-0.037
-0.026
0.060
0.040
0.090
0.093
0.039
-0.056
0.062
0.029
0.048
0.016
0.048
0.066
0.100
-0.026
0.037
-0.137
0.025
0.166
0.062
-0.015
0.065
0.016
0.046
0.051
-0.019
-0.002
-0.001
0.105
0.022
0.080
0.012
-0.022
-0.005
0.073
0.042
-0.010
0.032
0.053
0.022
0.010
0.003
0.054
0.039
-0.043
0.067
0.046
0.106
-0.023
-0.000
0.074
0.003
0.028
0.047
-0.062
0.019
0.012
0.020
0.030
0.069
0.083
-0.005
-0.065
-0.058
0.053
0.175
0.024
-0.010
-0.011
0.012
0.071
0.102
0.031
0.041
0.063
-0.016
0.068
0.049
-0.025
0.063
0.029
0.038
0.030
0.081
0.019
-0.100
0.088
0.087
0.030
0.013
-0.026
0.019
-0.012
0.110
0.067
0.022
-0.044
0.064
0.068
-0.046
0.038
-0.010
0.059
-0.042
0.097
-0.002
0.029
0.135
0.037
-0.005
0.046
0.088
-0.018
0.065
0.107
-0.036
-0.033
0.007
0.004
0.058
0.138
0.065
0.071
-0.024
-0.051
0.019
0.038
0.065
-0.028
0.070
0.086
-0.041
0.053
0.024
0.117
0.054
0.046
-0.001
0.011
0.069
0.087
-0.006
-0.023
-0.015
0.012
0.099
0.043
0.071
0.003
0.048
-0.032
-0.031
0.071
0.005
-0.119
0.045
0.101
0.065
-0.044
0.090
0.024
0.008
0.022
0.058
-0.009
0.055
-0.014
0.002
0.080
0.047
0.091
-0.027
0.081
0.015
0.078
-0.066
0.058
0.024
0.063
-0.065
0.006
0.052
0.092
0.022
-0.006
0.058
0.010
0.009
0.091
0.037
-0.043
0.031
0.000
0.110
-0.016
0.037
0.081
0.020
-0.024
0.050
0.003
0.082
0.044
0.111
0.008
0.051
0.066
0.013
0.010
0.095
0.039
-0.068
0.014
0.014
0.100
0.089
-0.009
0.006
-0.060
0.079
0.067
0.036
0.084
0.096
-0.059
-0.040
-0.029
0.013
0.077
0.168
-0.055
0.016
0.013
0.061
0.073
0.010
0.081
-0.000
0.078
0.028
0.004
0.048
-0.036
0.098
0.042
0.085
-0.085
0.034
0.101
0.045
0.019
0.021
0.047
0.171
-0.033
0.146
-0.018
0.009
0.019
-0.044
0.135
-0.030
-0.021
-0.032
0.069
0.097
0.015
-0.103
0.106
0.078
0.074
0.003
-0.026
0.091
-0.033
0.065
0.014
0.030
0.053
0.099
0.004
-0.001
-0.104
0.070
0.121
0.053
-0.059
0.059
0.058
0.130
0.024
0.053
0.016
0.005
0.016
0.115
0.079
0.082
0.114
0.008
-0.069
0.010
0.059
0.060
0.048
0.030
0.103
-0.012
0.033
-0.099
0.082
0.080
0.038
0.028
0.001
0.023
0.071
-0.013
0.027
0.024
0.031
-0.033
0.016
0.008
0.077
0.014
0.035
0.117
-0.022
0.076
-0.037
0.022
0.064
0.039
0.089
0.012
-0.007
0.005
0.001
0.064
0.052
0.064
-0.019
0.046
-0.021
-0.008
-0.011
0.088
0.138
-0.038
0.035
-0.011
0.027
0.016
0.058
0.019
0.009
0.035
-0.017
0.006
0.037
-0.018
0.052
-0.022
0.092
-0.024
-0.030
0.069
0.084
-0.065
0.077
0.037
0.016
0.005
0.045
-0.031
0.078
0.020
0.013
-0.041
0.012
-0.079
0.016
0.019
0.051
0.017
-0.030
0.024
0.026
0.111
0.104
0.015
-0.037
0.060
0.063
-0.011
-0.011
0.062
-0.026
-0.017
0.018
0.019
-0.009
0.036
0.049
0.024
0.009
0.008
0.034
0.015
0.039
0.081
0.015
0.119
0.013
0.004
0.049
0.018
-0.059
0.013
0.085
0.066
-0.043
-0.003
-0.030
0.065
0.073
0.101
0.106
0.036
-0.068
0.011
0.133
0.036
-0.009
0.003
0.021
0.107
0.031
0.011
-0.065
0.024
0.089
0.045
-0.003
0.001
0.000
0.036
0.015
0.036
0.077
-0.011
0.008
0.049
0.048
0.020
-0.000
0.011
0.049
0.030
0.011
0.091
0.042
0.056
0.016
-0.009
-0.034
0.009
0.117
0.041
0.042
0.025
-0.012
0.114
0.015
0.036
0.058
-0.035
0.005
-0.008
0.028
0.106
0.073
-0.057
0.105
0.049
0.056
-0.007
0.103
0.017
0.076
-0.010
0.044
0.036
-0.038
0.035
0.014
-0.014
0.068
0.073
-0.000
-0.031
-0.015
0.042
-0.013
0.043
0.028
0.082
0.029
0.045
0.018
0.004
0.103
0.118
-0.043
0.076
0.090
-0.031
-0.049
0.013
0.073
0.093
-0.009
0.073
0.124
-0.021
0.047
-0.001
0.043
-0.033
0.033
0.042
0.060
-0.062
0.005
0.031
-0.029
0.084
-0.022
0.008
0.040
0.049
-0.020
0.015
0.095
0.110
0.049
0.002
0.009
0.014
0.038
0.077
0.002
-0.032
0.048
0.124
0.073
-0.040
0.012
0.060
0.134
0.027
0.013
0.030
0.056
0.016
0.040
-0.038
0.083
0.041
0.005
0.010
-0.003
0.038
-0.029
-0.016
-0.061
0.079
-0.013
0.065
-0.004
0.046
0.032
0.011
0.029
0.010
0.029
0.105
-0.011
0.093
0.023
0.055
0.048
0.013
0.049
-0.006
0.064
0.003
-0.021
0.059
-0.008
0.073
0.003
0.016
0.074
0.009
0.031
-0.018
0.037
0.028
0.025
0.068
0.044
-0.011
0.044
0.049
0.114
0.020
0.053
0.007
0.033
-0.000
0.095
0.030
-0.048
0.004
0.053
0.027
0.032
0.011
0.005
-0.034
0.023
0.074
0.076
-0.092
-0.027
-0.010
0.081
0.101
0.049
0.019
0.011
0.066
0.020
0.069
0.054
-0.006
0.021
0.007
0.044
0.045
0.015
0.026
-0.026
0.018
-0.039
0.076
0.060
0.114
0.061
-0.057
-0.002
0.033
0.052
0.036
0.054
0.012
-0.012
0.027
0.073
0.115
-0.118
0.044
-0.052
0.125
0.041
0.048
0.045
-0.064
0.024
0.032
0.013
0.015
0.066
0.028
0.012
-0.006
0.008
0.053
-0.010
0.022
0.104
0.005
0.029
0.046
0.000
0.091
0.056
0.022
0.055
-0.020
-0.024
0.078
0.106
0.026
0.040
0.084
-0.006
0.008
0.113
-0.029
-0.044
0.050
0.045
0.037
0.040
-0.039
0.012
0.015
0.029
0.000
0.048
0.090
-0.040
0.094
0.062
-0.059
-0.065
0.087
0.010
0.043
0.018
0.062
0.038
-0.053
0.067
0.176
-0.036
0.075
0.034
0.009
0.034
0.016
0.035
0.046
0.043
0.120
-0.015
-0.018
0.015
0.017
0.092
0.069
-0.014
-0.028
0.062
0.054
-0.002
0.120
0.012
-0.062
0.014
0.096
0.017
-0.048
-0.008
-0.026
-0.025
0.080
0.131
0.033
0.007
0.045
-0.000
0.044
-0.062
0.052
0.047
-0.067
-0.011
0.113
0.051
0.038
0.013
0.045
-0.056
0.061
0.084
0.069
0.001
0.081
0.027
0.028
-0.022
0.034
-0.009
-0.034
0.073
0.073
0.046
0.148
-0.060
0.020
0.077
0.003
0.016
0.014
0.089
0.037
0.017
0.022
0.007
0.036
0.015
-0.042
-0.024
0.035
0.029
-0.027
0.028
0.031
0.094
0.039
-0.096
0.065
0.014
0.069
0.030
0.049
-0.042
0.106
0.075
-0.021
0.031
0.013
-0.004
0.125
0.017
-0.047
-0.017
0.068
0.051
0.036
0.032
0.069
-0.016
0.018
0.094
0.021
0.010
0.030
0.139
-0.063
0.126
0.034
0.024
-0.056
0.028
0.044
-0.031
-0.095
0.033
0.097
0.117
0.052
0.012
0.076
-0.007
-0.012
0.051
-0.019
0.036
0.064
0.007
-0.061
0.024
0.020
-0.031
0.056
0.054
0.014
-0.046
0.004
0.099
0.093
-0.033
-0.001
0.050
0.095
-0.012
0.032
0.049
0.057
0.116
-0.027
0.016
-0.009
0.118
0.076
0.044
-0.019
-0.008
0.038
0.095
0.052
-0.012
0.008
0.034
0.011
-0.027
0.073
0.067
0.007
0.019
0.094
0.018
-0.022
-0.004
0.086
0.081
0.024
-0.020
0.105
0.043
-0.041
-0.087
0.103
0.014
0.069
0.017
0.040
0.082
-0.009
0.073
0.036
-0.045
-0.008
0.046
0.144
0.008
0.049
0.082
0.091
0.011
0.062
0.059
-0.012
0.015
0.053
-0.012
0.020
0.005
0.040
0.021
-0.002
0.073
0.031
0.044
0.046
-0.017
-0.005
-0.014
0.122
0.044
0.114
-0.016
0.049
-0.012
0.030
0.042
0.018
-0.019
0.133
0.029
0.067
-0.007
-0.047
0.033
-0.039
0.096
0.018
-0.055
-0.002
0.051
-0.033
0.050
0.050
0.045
0.060
-0.010
0.081
0.040
0.039
0.140
-0.070
0.048
-0.050
0.040
0.071
0.033
0.027
0.016
-0.011
0.043
0.048
-0.045
-0.015
-0.042
0.028
0.025
0.070
0.022
-0.052
0.003
0.095
0.062
0.007
0.052
-0.018
0.025
0.034
-0.034
0.087
0.050
0.058
0.077
0.037
0.130
-0.043
-0.037
0.044
0.002
0.051
0.055
0.040
0.143
0.048
-0.016
0.037
-0.029
-0.018
0.025
0.055
0.040
0.028
-0.028
-0.018
0.021
0.030
0.032
0.009
0.020
0.084
-0.011
0.072
-0.001
-0.032
0.052
0.030
-0.022
0.038
0.023
0.007
0.033
0.105
0.026
0.045
0.025
-0.087
-0.008
0.102
0.048
-0.003
-0.051
0.117
0.154
0.086
0.011
-0.005
0.016
0.031
0.097
0.005
-0.045
0.076
0.062
-0.036
-0.037
-0.008
0.070
0.017
0.077
0.023
-0.028
0.047
0.048
0.032
0.007
0.009
0.030
0.003
-0.011
-0.033
0.048
-0.029
0.053
0.013
0.003
0.031
0.016
-0.018
0.064
0.105
0.023
0.053
-0.027
0.015
0.069
0.090
-0.018
-0.032
0.059
0.006
-0.005
0.100
0.030
0.042
0.060
-0.022
0.019
-0.016
0.076
0.053
-0.008
0.085
0.072
0.054
-0.003
-0.017
0.024
0.034
-0.007
0.034
0.065
0.056
0.017
0.068
0.046
-0.017
0.083
-0.018
0.009
0.044
0.002
0.133
0.058
0.020
0.048
-0.047
0.079
0.071
-0.013
0.055
0.031
-0.012
0.030
0.027
0.001
0.015
-0.071
0.082
0.039
0.024
0.099
0.015
0.022
0.069
-0.000
-0.003
0.088
0.044
0.018
0.033
0.071
0.043
0.044
-0.020
0.012
0.052
0.055
0.009
-0.063
-0.047
0.107
-0.049
0.073
0.044
0.023
0.056
0.032
0.099
0.029
0.036
0.009
0.151
-0.106
0.042
0.002
0.079
0.059
0.032
-0.021
-0.008
0.037
0.066
0.004
0.016
0.016
-0.046
0.023
0.081
-0.046
-0.002
0.115
0.013
-0.012
0.043
0.066
0.014
0.068
-0.033
0.004
0.107
0.007
0.039
0.020
0.041
0.040
0.097
0.034
-0.016
0.048
-0.025
0.066
0.060
0.081
-0.014
0.008
-0.002
0.043
-0.001
0.080
0.019
0.016
0.062
0.054
-0.049
-0.002
0.012
0.076
0.023
0.089
0.025
0.035
0.026
0.017
0.057
-0.022
0.027
0.046
0.112
0.001
0.025
-0.015
0.026
0.035
-0.006
0.059
0.019
0.060
0.030
0.101
0.038
-0.042
0.046
-0.006
0.006
0.100
0.013
0.145
0.036
0.034
0.024
0.010
-0.038
0.026
0.050
0.047
-0.057
0.104
0.035
0.040
-0.057
0.076
0.075
0.077
0.002
-0.010
-0.085
0.003
0.141
0.044
-0.023
0.072
0.050
0.070
0.056
-0.039
-0.017
0.047
0.083
0.088
0.048
-0.010
0.044
-0.039
0.063
0.005
-0.027
0.095
0.043
0.081
0.046
0.037
0.028
0.028
-0.068
0.077
0.018
0.064
0.033
0.008
0.064
0.071
-0.000
0.028
-0.013
0.050
0.002
0.074
-0.019
0.022
-0.031
0.080
0.009
-0.031
0.073
0.005
0.020
0.061
0.053
0.046
-0.026
0.037
-0.014
0.046
0.012
0.011
0.070
0.032
0.101
-0.035
0.101
0.030
0.051
-0.035
0.030
0.058
0.108
-0.016
0.013
0.011
-0.014
0.048
-0.029
0.037
-0.025
0.051
0.020
-0.007
0.106
0.058
-0.061
0.071
0.014
0.051
0.017
0.003
-0.015
0.038
-0.001
0.048
-0.019
0.022
0.078
-0.007
-0.034
-0.009
0.071
0.049
0.006
0.047
0.021
0.077
0.028
-0.002
0.022
0.106
0.048
0.110
0.078
0.027
0.044
-0.043
0.112
0.046
-0.043
0.027
0.048
0.064
0.020
0.008
0.005
-0.015
0.028
-0.022
0.063
0.048
-0.045
0.032
0.021
0.017
0.003
0.098
0.116
0.097
0.122
-0.071
-0.023
0.070
-0.044
0.090
0.103
0.067
0.097
-0.026
-0.057
0.031
0.065
-0.008
0.110
0.040
0.009
0.014
0.004
0.050
0.042
0.034
0.052
0.054
0.092
-0.018
0.001
-0.044
0.015
-0.010
0.092
-0.027
0.021
0.037
0.079
0.039
0.061
-0.009
-0.038
0.048
0.022
0.026
0.063
0.033
-0.021
-0.029
0.129
0.063
-0.003
0.078
0.103
-0.033
0.073
-0.002
0.055
0.030
0.039
0.018
-0.038
0.054
-0.049
0.006
0.113
0.083
-0.058
0.008
0.038
0.033
-0.040
0.118
0.017
0.004
-0.009
0.083
0.013
0.064
0.045
-0.028
0.055
-0.018
0.049
0.028
0.012
0.038
-0.033
0.002
0.053
0.033
0.118
0.133
-0.025
-0.038
0.076
0.051
0.070
0.026
-0.025
0.078
0.078
-0.025
0.005
0.056
0.026
-0.007
0.075
-0.040
0.055
0.051
0.033
0.041
0.086
0.039
0.012
0.050
-0.065
0.051
0.036
0.092
0.013
0.019
0.020
-0.017
0.035
-0.045
0.022
0.001
-0.065
0.052
0.141
0.034
0.054
0.040
0.013
-0.063
0.042
0.102
0.048
0.007
0.026
0.003
0.024
0.027
0.014
-0.022
0.011
-0.003
-0.002
0.002
-0.039
-0.092
0.031
-0.045
-0.005
0.064
0.062
0.033
0.129
0.118
0.043
-0.098
0.008
-0.011
0.131
0.081
-0.019
-0.049
0.050
-0.055
0.026
0.079
0.115
0.002
-0.085
0.041
-0.090
-0.019
-0.015
-0.003
0.116
-0.023
0.082
0.082
-0.071
0.003
-0.058
0.089
0.028
0.068
-0.020
0.015
-0.124
0.013
0.053
0.038
0.088
-0.012
-0.010
-0.028
0.007
0.097
0.066
0.001
0.094
0.117
-0.057
0.048
0.067
0.120
0.001
0.110
0.086
0.031
0.001
0.033
0.078
-0.141
-0.116
-0.142
-0.104
-0.132
0.036
0.047
-0.039
0.002
-0.070
-0.089
0.020
0.011
0.040
0.037
0.098
0.057
0.007
-0.034
0.135
0.223
0.142
0.226
0.137
0.029
0.001
0.020
0.041
-0.069
0.114
0.109
0.045
-0.005
0.091
0.107
-0.009
-0.013
0.093
0.065
-0.084
0.035
-0.046
0.088
-0.104
-0.053
-0.031
-0.042
0.051
0.087
-0.043
-0.185
-0.046
-0.046
-0.046
0.021
0.130
0.141
0.102
0.094
-0.042
-0.056
0.012
0.140
0.086
0.084
0.110
0.138
0.013
0.078
0.140
0.073
0.068
0.014
0.101
-0.006
-0.028
0.027
0.111
0.076
0.074
0.012
-0.001
-0.017
0.090
0.104
0.086
-0.062
-0.027
0.096
-0.036
-0.233
-0.157
0.019
0.063
0.061
-0.021
-0.103
-0.177
-0.014
0.010
0.001
0.002
0.003
0.088
0.037
0.047
0.030
0.030
-0.067
0.160
0.070
-0.061
-0.019
0.117
0.040
-0.056
-0.349
-0.428
-0.212
-0.069
0.173
0.251
-0.049
-0.493
-0.787
-0.550
-0.156
0.303
0.449
0.394
0.079
0.093
0.114
0.225
0.339
0.152
0.049
-0.036
0.249
0.091
0.337
0.567
0.329
0.071
-0.115
-0.189
-0.084
-0.265
-0.197
-0.120
-0.163
-0.244
-0.013
0.053
0.030
-0.042
-0.110
-0.134
-0.111
-0.090
-0.413
-0.042
0.272
0.337
0.340
0.266
-0.001
-0.029
-0.130
0.018
0.262
0.316
0.313
0.302
0.284
0.192
0.075
-0.011
-0.063
0.128
0.205
0.169
0.104
0.059
0.096
0.174
0.084
0.248
0.176
-0.031
0.045
0.046
0.136
0.091
0.222
0.180
0.137
0.042
0.013
0.067
0.070
0.114
0.078
0.034
0.028
0.208
0.045
0.103
0.073
0.016
0.007
0.058
0.001
-0.148
-0.054
-0.019
-0.014
0.098
0.098
-0.011
0.032
-0.038
-0.052
-0.032
0.035
0.166
0.051
0.028
0.018
0.082
0.072
-0.012
-0.043
0.073
-0.013
-0.002
-0.075
-0.066
-0.031
0.130
0.107
0.085
0.050
0.042
-0.045
0.038
0.021
-0.040
0.155
0.097
0.165
0.018
-0.020
-0.024
0.029
-0.009
-0.026
-0.145
-0.046
-0.145
-0.037
0.036
0.071
0.107
0.013
0.007
-0.029
-0.015
-0.037
0.045
0.080
0.114
0.022
0.001
-0.067
0.086
0.058
-0.021
-0.032
0.050
-0.016
0.066
0.085
0.077
-0.008
-0.171
-0.142
-0.067
-0.158
-0.097
0.074
0.018
0.050
0.093
0.160
0.112
-0.003
-0.055
-0.021
-0.097
0.032
0.174
0.226
0.191
0.286
0.534
0.297
-0.022
-0.061
-0.113
0.006
0.076
0.136
-0.012
0.056
0.087
0.008
0.096
0.035
-0.051
-0.083
0.072
-0.074
0.046
-0.013
-0.027
-0.052
0.112
0.063
0.044
0.028
0.004
-0.019
-0.049
0.042
0.073
0.042
-0.004
-0.029
0.005
0.042
0.071
-0.005
0.058
0.021
-0.011
-0.003
0.036
0.034
0.005
0.033
-0.007
0.102
0.110
0.077
0.015
-0.010
0.105
0.080
0.110
0.093
-0.015
0.055
0.073
0.065
0.109
0.049
-0.016
0.146
0.129
0.083
0.056
0.054
0.040
-0.071
0.058
0.062
0.080
0.026
-0.031
-0.002
-0.009
0.061
0.015
0.027
0.014
0.009
-0.010
-0.087
-0.018
0.123
-0.007
0.030
0.096
0.027
-0.015
-0.030
-0.006
0.006
0.060
-0.046
0.022
0.005
-0.045
0.013
0.003
0.090
0.065
0.053
0.031
0.037
-0.029
0.063
0.022
0.005
0.018
0.110
0.128
-0.004
-0.004
-0.096
0.122
0.124
-0.008
0.073
-0.064
-0.065
0.026
0.069
0.088
0.062
0.000
0.109
-0.046
0.071
0.084
0.027
0.032
0.068
-0.044
-0.021
0.091
0.054
0.028
0.019
0.094
-0.055
-0.002
0.077
0.049
-0.032
0.059
0.067
0.023
-0.006
0.064
-0.011
0.061
-0.042
0.033
0.001
0.047
-0.059
0.015
0.063
0.086
0.067
0.057
-0.023
0.061
-0.001
0.029
0.063
-0.012
-0.008
0.064
0.124
0.053
0.046
0.005
0.050
0.036
0.055
0.028
-0.110
0.034
0.138
0.096
0.024
0.036
0.034
0.046
-0.018
0.080
-0.018
0.101
0.046
0.065
-0.049
0.027
0.049
0.026
0.047
0.107
0.008
-0.045
0.065
0.134
-0.127
0.053
0.138
0.031
0.043
-0.033
-0.025
0.110
0.047
-0.068
0.097
0.065
0.034
-0.013
0.033
0.010
-0.017
0.081
-0.063
0.032
-0.020
-0.007
0.003
0.044
-0.015
0.008
0.012
0.137
0.003
0.051
0.050
-0.049
-0.007
0.137
0.141
0.046
0.112
-0.093
0.034
0.002
0.042
0.109
0.003
0.094
0.009
0.008
0.042
0.022
0.010
0.054
-0.019
0.073
0.026
-0.026
0.105
-0.032
0.044
0.110
0.062
0.003
0.080
0.086
0.014
-0.002
-0.062
0.066
0.070
-0.002
0.058
0.049
-0.013
0.009
-0.065
0.036
0.094
0.079
0.035
-0.010
-0.065
0.065
0.065
-0.017
0.024
0.004
-0.013
0.044
0.003
-0.022
0.129
0.001
0.059
0.083
0.005
-0.046
0.075
0.100
-0.008
-0.005
-0.011
0.048
0.046
0.025
0.084
0.038
-0.003
0.008
0.075
-0.030
0.002
0.024
0.040
0.045
-0.008
-0.067
-0.041
0.080
0.016
-0.044
0.017
0.040
0.050
0.047
0.057
0.070
0.036
0.047
0.064
-0.010
0.006
0.066
0.061
0.025
0.036
-0.005
0.072
-0.023
0.102
0.009
-0.010
0.036
0.013
0.020
0.028
0.102
0.094
-0.023
0.077
-0.037
0.036
-0.001
0.078
-0.017
0.021
0.096
-0.006
0.060
-0.021
0.096
0.019
-0.045
-0.005
0.054
0.020
0.033
-0.003
0.043
0.178
0.009
-0.064
-0.005
0.059
0.094
0.033
0.013
0.051
-0.009
0.059
0.006
0.115
0.044
0.100
0.020
-0.038
0.041
0.026
0.004
0.014
0.050
0.018
0.024
0.127
-0.054
-0.029
0.048
0.011
0.074
0.024
0.003
-0.067
0.041
-0.014
0.088
0.065
-0.036
0.014
0.072
0.080
-0.073
0.003
0.033
0.202
-0.057
0.013
-0.024
0.079
0.027
0.059
-0.006
0.106
0.018
0.033
0.016
0.060
-0.027
0.071
0.007
-0.042
0.048
-0.001
0.066
0.061
0.000
0.066
-0.016
-0.025
0.087
0.083
0.036
0.044
0.027
0.008
-0.033
0.111
0.002
-0.028
0.008
0.016
0.135
0.126
0.030
-0.061
0.004
-0.023
0.070
0.029
0.019
0.050
0.013
0.061
0.007
0.070
0.024
0.046
0.008
0.043
0.086
0.016
0.032
-0.033
0.027
0.098
-0.060
0.085
0.005
0.114
0.050
-0.017
0.035
0.039
0.114
0.039
-0.024
-0.014
-0.020
0.022
0.062
0.026
0.049
-0.019
0.068
0.008
0.025
-0.007
0.035
0.020
0.094
0.123
-0.028
-0.004
-0.017
0.004
0.084
-0.032
-0.007
-0.009
0.037
0.075
0.009
0.006
0.077
0.105
-0.001
0.041
0.057
0.022
0.052
0.021
-0.033
0.084
-0.015
0.047
-0.027
-0.003
0.007
0.053
-0.001
0.015
-0.007
0.012
0.042
0.097
0.000
0.112
-0.006
0.131
-0.012
-0.029
0.008
0.021
0.043
0.032
0.017
0.045
0.002
0.057
0.007
-0.001
0.004
0.068
0.078
-0.086
0.026
0.071
0.034
-0.057
0.082
0.052
-0.023
0.078
0.070
-0.016
0.028
0.050
0.015
0.025
0.021
0.081
-0.046
0.036
-0.032
0.066
0.077
-0.003
0.000
0.083
-0.092
0.008
0.077
-0.002
0.023
0.100
0.029
0.011
0.007
-0.006
0.069
-0.019
0.059
0.004
-0.005
0.082
0.007
0.044
0.025
-0.023
0.034
0.009
-0.032
0.090
0.021
0.049
0.001
0.043
0.047
0.054
0.035
-0.011
0.021
0.029
0.105
0.008
-0.032
0.025
0.095
0.042
0.040
-0.025
0.020
0.045
0.002
-0.001
0.055
0.044
-0.000
0.047
0.028
0.078
-0.036
-0.006
0.010
0.020
-0.002
0.059
-0.008
0.116
0.039
0.038
0.026
0.032
0.027
-0.020
0.034
0.112
0.067
0.034
0.009
0.033
0.036
0.056
0.050
0.089
-0.010
0.025
0.085
-0.068
0.021
-0.028
0.078
0.000
0.092
-0.007
0.071
0.066
0.039
0.027
-0.021
-0.005
0.017
0.154
0.057
-0.007
-0.042
-0.037
0.078
0.090
-0.039
0.062
0.013
0.091
0.067
0.037
0.054
-0.020
0.095
-0.046
0.020
0.063
0.065
0.072
-0.014
0.097
0.033
-0.012
-0.036
0.096
0.056
-0.059
0.039
0.009
0.044
-0.024
0.012
0.136
0.048
0.013
-0.031
0.077
0.014
0.085
0.044
0.074
-0.027
-0.008
0.009
0.113
0.050
-0.042
0.017
0.015
0.089
-0.002
-0.081
0.050
0.050
0.058
0.017
0.119
0.111
0.055
-0.062
-0.024
0.001
0.014
0.043
0.114
0.025
0.026
0.045
0.027
0.021
0.035
0.017
0.063
0.086
0.053
0.038
-0.016
0.042
0.059
0.026
0.050
0.109
-0.009
-0.041
0.022
-0.042
0.021
0.111
0.073
0.043
0.038
0.051
0.104
-0.104
0.040
0.040
-0.015
0.030
0.046
0.015
0.065
0.079
0.023
-0.015
0.126
0.020
-0.027
-0.007
-0.016
0.041
0.023
0.065
0.102
0.005
0.008
-0.002
0.052
0.056
-0.059
0.071
0.066
0.042
0.003
0.041
0.077
0.052
0.044
0.048
-0.049
0.009
0.040
-0.001
0.059
0.024
-0.013
0.062
-0.003
0.042
0.044
0.007
0.072
0.087
0.008
-0.059
0.048
0.070
-0.031
0.055
0.083
0.011
-0.015
0.018
0.091
0.040
0.024
0.026
-0.014
0.074
0.045
0.142
0.000
-0.048
0.008
-0.032
0.070
0.013
0.059
0.001
0.032
0.040
0.048
0.023
0.060
-0.013
-0.082
0.054
0.004
0.092
-0.007
0.043
0.046
0.006
0.110
0.020
0.054
0.063
-0.010
0.004
0.021
0.003
0.000
0.059
0.066
0.037
0.033
0.027
-0.004
-0.035
0.043
-0.019
0.051
0.088
0.047
0.054
-0.037
0.050
-0.030
-0.011
0.061
0.078
0.073
-0.007
0.027
-0.025
-0.028
0.082
0.029
0.110
-0.022
0.079
0.000
0.016
0.032
-0.007
-0.002
0.081
0.113
-0.042
-0.064
0.033
0.065
-0.002
0.007
0.038
-0.024
-0.008
-0.006
0.022
0.036
0.021
0.016
0.038
-0.018
0.031
0.024
0.043
0.039
0.115
-0.015
0.122
0.047
-0.111
-0.014
0.080
0.056
0.101
0.007
-0.034
0.019
0.080
0.086
-0.106
-0.019
0.017
0.049
0.086
0.051
-0.004
-0.023
-0.031
0.099
0.030
0.007
-0.013
0.009
0.043
0.019
0.041
-0.066
0.066
0.042
0.025
0.070
0.042
-0.007
0.074
0.041
0.057
-0.059
0.062
-0.010
-0.020
0.043
0.030
0.016
0.073
0.036
-0.015
0.043
0.012
0.045
0.001
-0.019
0.073
0.069
0.006
0.004
-0.048
0.060
-0.023
0.011
0.023
0.102
0.054
0.013
0.045
0.045
0.054
-0.034
0.033
-0.018
0.036
0.111
0.055
-0.056
0.186
0.061
-0.027
0.008
0.006
0.043
-0.010
0.061
0.122
-0.055
-0.046
0.010
-0.021
0.130
0.029
0.090
-0.029
-0.014
0.058
0.082
0.048
0.025
0.003
0.050
0.090
0.082
0.067
0.013
0.003
-0.038
-0.024
0.024
0.064
0.102
0.084
-0.085
0.055
0.045
-0.029
0.123
0.027
-0.002
0.050
-0.009
0.108
-0.046
0.072
0.045
0.099
-0.023
0.053
0.120
0.015
-0.026
-0.059
0.097
0.060
0.000
0.027
0.011
0.042
0.043
-0.012
0.077
-0.044
-0.017
0.059
0.102
0.041
-0.027
0.009
0.055
0.048
0.048
0.078
0.031
-0.059
-0.016
-0.039
0.013
0.098
-0.020
0.017
0.016
0.040
0.018
0.014
0.061
0.092
-0.001
0.006
0.030
0.032
-0.016
-0.026
0.073
0.054
0.034
-0.103
-0.002
0.090
0.047
0.072
0.035
-0.008
0.010
0.044
0.042
0.065
0.050
-0.025
0.049
-0.033
0.081
0.039
-0.011
0.002
0.058
0.025
0.047
0.023
0.072
-0.028
0.075
0.068
0.065
-0.082
0.107
-0.003
0.007
0.027
0.053
-0.003
0.058
0.001
0.032
0.070
-0.039
-0.019
0.007
0.122
0.007
-0.012
0.058
-0.004
0.097
0.030
0.091
0.054
0.009
0.018
0.086
-0.021
0.155
0.002
-0.005
0.023
-0.049
0.070
0.016
-0.033
0.051
0.053
0.044
0.007
-0.008
0.006
0.083
0.067
-0.064
0.059
0.021
0.050
0.101
-0.017
-0.041
0.108
0.108
-0.069
0.013
-0.015
0.061
0.111
-0.012
-0.064
0.057
0.088
0.069
0.041
0.011
0.031
0.009
0.098
0.069
0.042
-0.002
-0.026
0.029
0.040
-0.009
0.024
0.028
0.106
0.063
0.034
0.067
0.020
-0.080
-0.018
-0.029
0.003
0.081
0.004
0.081
0.012
0.088
0.086
-0.053
0.087
-0.005
0.042
-0.068
0.069
0.098
0.005
0.062
0.006
-0.007
0.079
0.048
0.033
-0.027
0.006
0.034
0.096
0.050
0.048
0.047
-0.005
0.088
-0.055
0.018
-0.003
0.097
0.109
0.012
0.032
0.059
0.031
0.059
-0.021
0.023
0.053
0.088
-0.002
0.026
-0.041
0.048
0.073
0.036
0.038
0.090
0.027
0.006
0.028
0.023
-0.020
0.028
0.136
-0.051
-0.007
-0.002
0.059
0.073
0.058
-0.041
-0.010
0.011
0.066
0.020
0.062
0.028
0.132
-0.003
-0.050
0.032
-0.037
0.023
0.018
0.014
0.050
0.046
0.058
-0.039
0.013
0.089
0.037
0.073
-0.065
0.032
0.133
0.033
0.024
-0.026
-0.004
-0.001
0.122
0.110
-0.066
0.021
-0.011
0.027
0.018
-0.014
-0.037
0.052
-0.001
-0.007
0.069
0.069
0.088
0.048
0.023
0.021
0.062
0.072
0.077
-0.008
-0.032
-0.014
0.019
0.034
0.008
0.041
0.038
0.031
-0.001
0.032
0.000
-0.009
0.051
0.010
-0.016
0.044
0.009
-0.016
0.004
0.049
0.050
0.046
0.104
-0.059
0.018
-0.009
0.010
-0.094
0.060
0.036
-0.012
0.039
0.030
0.049
0.011
-0.020
-0.051
0.010
-0.015
0.017
0.047
0.026
0.059
0.018
-0.002
0.140
0.019
0.036
0.012
0.061
0.035
-0.043
0.019
-0.031
0.071
0.050
0.060
0.026
0.065
-0.061
-0.025
-0.061
0.074
0.013
0.006
0.035
0.018
0.030
0.102
0.015
-0.019
-0.012
0.045
0.004
-0.001
0.085
0.054
0.021
-0.063
0.005
0.018
0.059
-0.036
-0.060
0.040
0.079
-0.036
0.089
0.066
-0.003
0.012
0.074
-0.027
0.065
0.003
0.051
-0.012
0.026
0.125
0.005
-0.002
0.053
0.009
-0.030
0.098
0.060
-0.001
0.023
0.078
-0.025
0.052
0.114
-0.007
-0.007
0.058
0.116
0.045
0.077
0.035
0.053
0.027
0.016
0.002
-0.023
0.060
0.046
0.068
0.025
0.000
0.032
0.039
-0.014
-0.010
-0.075
0.053
0.107
0.092
-0.006
-0.037
-0.046
0.023
0.013
0.088
-0.041
0.040
0.095
0.000
0.015
-0.030
0.072
0.027
0.077
0.046
0.075
0.004
-0.063
0.000
0.023
0.013
0.154
0.025
0.104
-0.035
-0.020
-0.026
0.002
0.063
-0.034
0.082
0.059
0.075
-0.028
0.037
0.002
0.128
0.029
-0.060
-0.010
0.021
0.064
0.023
-0.063
0.007
-0.003
0.035
0.013
0.020
0.035
-0.029
0.003
0.064
0.098
-0.010
-0.037
-0.042
0.049
0.077
0.008
0.024
0.130
0.053
-0.007
-0.047
-0.016
0.104
0.016
0.026
-0.051
0.021
0.099
-0.037
0.059
0.072
0.040
0.010
-0.030
0.104
0.052
0.031
0.008
0.054
-0.005
-0.036
-0.006
0.043
0.100
-0.000
0.035
-0.022
0.063
0.023
-0.001
-0.019
0.062
0.081
-0.024
0.031
0.006
0.033
0.110
0.049
0.030
-0.001
0.059
0.039
0.102
0.051
-0.088
-0.063
0.037
0.076
0.040
0.035
-0.037
0.087
0.112
0.038
0.005
-0.056
-0.057
0.035
0.069
0.005
-0.083
0.109
-0.026
0.100
0.025
0.004
0.079
0.005
0.109
0.091
0.007
-0.064
-0.010
-0.048
0.125
0.084
0.080
0.069
-0.035
0.050
0.004
-0.001
0.064
0.015
-0.043
0.078
-0.011
0.034
-0.005
0.042
0.111
0.096
-0.007
0.046
-0.035
0.100
0.036
-0.082
0.021
0.079
0.060
0.042
0.025
-0.007
0.021
-0.031
0.104
0.004
-0.014
0.021
0.045
0.025
0.003
0.051
-0.013
0.058
0.005
0.076
0.073
0.026
0.072
-0.044
0.003
0.014
0.064
0.067
0.049
0.013
-0.001
-0.038
0.068
0.078
0.024
0.075
-0.045
0.037
0.100
0.003
0.034
0.023
-0.022
-0.064
0.058
0.067
0.125
0.012
-0.013
0.038
-0.019
0.080
0.106
-0.019
-0.034
-0.004
0.046
0.040
-0.071
0.051
0.019
0.016
0.070
-0.007
0.008
0.041
0.003
0.120
0.005
-0.003
0.017
0.114
0.069
-0.001
-0.008
0.032
0.011
0.045
0.030
0.012
0.030
0.014
0.098
-0.074
-0.030
-0.024
0.054
0.068
0.048
0.032
0.009
-0.039
0.096
0.052
-0.050
0.069
-0.016
0.088
0.022
0.053
0.022
0.084
-0.013
0.016
0.098
0.064
-0.046
0.003
0.057
0.054
-0.012
0.079
0.037
0.051
0.057
-0.053
0.088
0.030
0.065
0.010
-0.004
0.006
0.092
-0.010
0.076
0.004
0.036
-0.021
0.048
-0.031
0.080
0.046
0.076
0.049
-0.010
-0.001
0.016
-0.024
0.084
0.018
0.085
0.059
-0.023
-0.004
0.078
0.027
0.047
-0.031
0.044
0.082
0.025
-0.040
0.061
0.064
0.024
-0.026
0.068
-0.006
-0.002
0.054
0.050
-0.018
-0.046
-0.033
0.115
0.053
0.023
0.041
0.066
0.006
0.055
0.003
0.088
0.082
0.032
0.005
0.037
-0.056
0.106
0.033
0.009
0.011
0.157
-0.004
-0.036
-0.034
0.027
0.094
0.100
-0.075
-0.042
0.024
-0.012
-0.031
0.057
0.049
0.047
0.028
0.013
0.101
-0.038
0.055
-0.048
0.121
0.046
0.086
0.014
0.072
0.049
0.072
0.023
-0.016
0.004
0.003
0.005
-0.037
-0.036
0.121
0.091
-0.015
-0.037
-0.002
0.081
0.102
-0.002
0.010
0.033
0.013
0.101
0.033
0.004
0.050
0.007
0.012
0.067
0.053
0.063
0.037
-0.035
0.096
0.024
-0.021
-0.002
0.030
-0.019
0.039
0.142
-0.011
-0.051
0.077
0.072
0.029
-0.013
-0.015
0.074
0.040
0.057
0.101
0.011
0.018
0.083
0.013
0.085
-0.100
-0.096
0.068
0.028
0.090
0.035
0.012
0.013
0.029
0.078
-0.017
-0.068
0.022
0.065
-0.065
0.093
0.056
0.019
0.009
0.069
0.051
0.031
0.049
0.038
-0.036
0.024
0.072
0.030
0.100
-0.033
0.004
0.071
0.043
0.046
0.081
-0.034
0.064
0.082
-0.079
0.021
0.078
-0.026
0.018
0.173
-0.027
0.007
-0.037
0.038
0.031
-0.012
0.064
-0.025
-0.002
0.128
0.049
-0.009
0.023
0.039
-0.027
0.076
0.137
-0.039
0.015
0.009
0.101
0.012
0.066
0.023
0.069
-0.025
0.046
0.043
-0.045
0.065
0.068
0.068
-0.046
-0.006
-0.047
0.105
0.030
0.049
0.024
0.087
0.004
0.042
-0.006
0.007
0.076
0.001
0.031
0.031
0.066
0.050
0.024
0.108
-0.033
0.069
0.056
-0.073
0.017
0.012
0.002
0.033
0.083
-0.012
0.011
0.024
-0.057
0.090
0.077
-0.024
0.031
0.004
0.021
0.077
0.036
0.037
-0.046
0.039
0.062
0.063
0.020
-0.041
0.066
0.028
-0.001
0.014
-0.074
-0.017
0.030
0.068
0.071
0.038
-0.062
0.015
0.055
0.089
0.029
0.028
0.073
-0.063
0.033
0.041
0.072
0.060
0.014
-0.011
-0.029
-0.081
0.011
0.093
-0.018
0.049
0.016
-0.057
0.015
0.054
0.007
0.057
0.063
0.023
0.008
0.046
0.073
0.075
-0.034
-0.001
0.020
0.039
0.029
0.090
0.019
-0.082
0.064
0.116
0.079
-0.032
0.037
0.026
0.093
0.022
0.013
-0.036
0.127
0.021
0.002
0.073
0.094
-0.037
0.034
0.031
0.023
0.048
0.067
0.048
-0.039
0.045
0.015
0.032
0.029
-0.026
0.062
-0.007
0.049
0.030
0.076
-0.022
0.005
0.061
0.160
-0.003
0.080
-0.050
-0.049
0.053
0.165
0.061
-0.058
0.002
0.070
0.029
0.103
0.031
0.016
-0.051
-0.004
-0.001
0.114
0.059
0.034
0.086
0.000
0.081
-0.075
0.023
0.035
-0.010
0.065
0.110
0.036
-0.001
-0.001
-0.021
0.089
-0.003
0.059
-0.009
0.048
0.010
0.083
0.038
0.060
-0.048
-0.009
-0.013
0.045
0.075
-0.021
-0.041
0.049
-0.003
0.021
0.057
0.011
-0.047
0.054
0.039
0.017
0.038
0.041
-0.085
0.066
0.064
0.023
0.100
0.060
0.075
-0.029
0.006
-0.017
0.097
0.094
-0.001
0.038
0.062
-0.003
-0.002
-0.018
0.093
-0.008
0.037
0.046
0.015
0.025
0.026
0.042
-0.003
0.103
-0.007
-0.022
0.010
0.132
-0.003
0.127
-0.065
0.096
-0.061
0.091
0.020
-0.123
0.044
0.032
0.072
0.047
0.048
0.040
-0.014
0.000
0.016
-0.002
-0.020
0.004
0.004
0.064
0.098
0.039
0.043
-0.015
0.032
0.021
0.109
0.016
0.020
-0.009
0.074
0.015
-0.000
0.003
0.067
-0.005
-0.001
0.020
0.040
0.068
-0.016
0.072
-0.019
0.011
-0.017
0.005
0.088
0.050
-0.028
0.020
-0.044
0.040
-0.031
0.007
0.057
0.029
0.083
0.003
-0.019
0.049
0.099
-0.004
-0.020
0.036
0.030
0.071
0.120
0.146
-0.092
-0.034
0.004
-0.004
0.122
0.010
0.007
0.029
0.019
0.020
-0.116
0.073
0.106
0.068
-0.053
0.024
0.085
0.020
-0.018
0.012
-0.014
0.003
0.015
0.033
0.005
0.095
0.023
0.016
0.011
-0.015
0.001
0.069
0.023
0.030
0.066
0.078
0.036
0.020
0.023
0.019
-0.023
0.044
0.061
0.027
0.082
0.043
0.087
0.014
0.003
-0.030
0.023
0.099
0.088
0.023
-0.062
0.072
0.012
0.100
0.030
0.027
0.033
0.036
-0.008
-0.036
-0.019
0.037
0.061
-0.092
0.006
0.052
0.093
-0.017
0.066
0.048
0.082
-0.102
0.025
0.019
0.097
0.006
0.053
0.038
0.012
0.075
-0.001
-0.066
0.091
0.066
0.079
0.118
-0.028
-0.050
0.020
-0.048
0.019
0.080
0.066
0.089
0.038
-0.053
0.046
0.076
0.105
0.061
-0.023
0.056
-0.025
0.051
0.005
0.032
0.010
0.050
0.045
0.085
-0.041
-0.052
0.041
0.087
0.049
0.120
-0.024
0.080
-0.012
0.023
0.004
-0.007
0.085
0.076
0.085
0.064
-0.062
0.015
0.015
0.024
0.029
-0.037
0.000
0.025
0.101
0.040
0.020
0.001
0.037
0.077
0.024
0.017
-0.028
0.028
0.127
0.062
-0.004
0.010
0.021
0.121
0.017
-0.037
-0.048
0.089
0.057
0.082
0.009
-0.024
0.006
0.040
-0.062
0.039
0.029
0.043
0.029
0.062
0.110
-0.032
0.072
-0.009
0.095
0.046
0.038
0.087
-0.062
0.020
0.065
0.033
0.018
0.058
-0.016
0.079
0.014
0.056
-0.002
0.028
-0.004
-0.056
0.055
0.045
0.027
0.122
0.020
-0.039
0.061
0.041
-0.002
-0.008
-0.013
0.011
-0.009
0.120
0.027
-0.030
0.004
-0.006
0.081
0.012
0.132
-0.016
0.057
0.039
0.010
0.126
0.043
0.021
0.077
0.071
-0.012
0.017
0.011
0.050
0.083
0.038
0.034
0.000
0.000
0.083
-0.026
-0.034
0.035
0.025
0.024
0.159
0.023
0.004
0.004
0.076
0.046
-0.027
-0.067
0.047
0.099
0.062
-0.030
0.058
-0.093
-0.025
0.060
0.091
0.005
-0.037
0.144
0.023
0.026
-0.012
0.054
-0.030
0.062
0.016
0.019
0.018
0.047
0.023
0.063
0.051
-0.007
0.019
0.093
0.038
0.087
0.032
-0.014
0.040
0.021
0.061
-0.059
0.088
0.008
0.020
-0.050
0.002
0.066
0.015
0.074
-0.066
0.102
0.016
0.015
0.112
-0.003
0.076
0.009
-0.032
0.021
-0.004
0.058
-0.020
0.022
0.101
0.045
0.023
-0.064
0.020
0.038
0.083
0.095
-0.041
0.029
0.047
0.000
0.006
0.035
-0.018
0.064
0.090
0.001
0.042
-0.024
0.089
-0.038
0.006
0.025
-0.017
0.036
0.110
-0.049
0.081
0.008
0.098
0.039
0.017
0.065
0.047
-0.057
0.090
0.036
-0.005
0.050
0.083
0.104
-0.042
0.075
0.001
0.024
0.049
0.059
0.059
0.008
0.046
0.011
0.029
0.006
0.088
0.059
-0.002
0.048
-0.023
0.034
-0.008
0.088
-0.016
0.040
-0.026
-0.016
-0.025
0.018
0.048
-0.013
0.104
-0.013
0.037
0.041
0.061
-0.032
0.095
0.078
-0.031
0.042
0.040
0.038
0.078
0.026
0.061
0.015
-0.002
-0.017
0.199
0.054
-0.051
-0.040
0.051
0.028
0.077
0.077
-0.075
0.009
0.037
-0.008
0.017
0.123
0.043
-0.039
-0.026
0.014
0.110
0.025
-0.036
-0.056
0.108
0.055
0.055
-0.009
-0.031
0.000
0.135
0.084
-0.043
0.050
0.018
-0.007
0.064
0.036
-0.004
0.004
-0.011
0.045
-0.000
0.064
-0.005
0.013
0.064
0.059
0.005
0.009
0.069
0.045
0.010
0.066
0.002
0.115
-0.075
0.024
0.004
0.061
-0.016
0.105
-0.009
0.049
-0.032
-0.004
0.132
-0.023
0.049
0.044
-0.057
0.020
0.088
-0.021
0.129
0.034
-0.014
0.052
0.089
0.086
0.072
0.026
0.012
0.051
0.152
0.052
0.055
-0.002
-0.035
-0.028
0.009
0.000
0.013
0.027
0.052
0.011
0.001
0.079
-0.014
-0.001
0.085
-0.030
-0.009
0.054
0.087
0.011
-0.036
0.037
0.059
0.017
0.059
0.056
0.101
0.013
-0.060
0.069
0.091
0.089
-0.019
-0.027
0.101
0.037
0.050
-0.047
0.007
0.078
0.094
0.043
0.033
0.021
0.027
0.007
0.081
0.070
0.083
-0.068
0.007
0.012
0.054
0.012
-0.033
0.041
-0.076
0.086
0.114
0.078
0.005
0.031
-0.070
-0.052
0.010
0.029
0.096
0.064
0.070
0.029
-0.083
0.011
0.002
0.014
-0.102
0.110
-0.039
0.122
0.059
0.064
0.044
0.021
-0.043
-0.039
0.130
0.073
0.030
0.057
-0.025
0.055
0.004
0.030
0.050
0.047
0.044
0.061
-0.033
-0.064
0.029
0.024
0.125
0.003
0.014
0.042
0.018
0.014
0.041
0.094
0.018
0.017
-0.037
0.024
0.055
0.001
0.023
0.040
-0.033
-0.016
0.127
-0.046
0.040
-0.031
0.114
-0.032
0.008
-0.017
0.120
0.068
0.005
0.009
-0.001
0.043
0.017
0.042
0.092
0.006
-0.010
0.026
0.015
0.076
0.047
0.049
0.021
0.085
-0.039
-0.044
0.072
0.036
0.020
0.046
0.033
0.042
0.042
0.012
0.034
-0.012
0.026
0.033
0.059
0.020
0.023
-0.009
0.027
0.068
-0.064
0.030
0.133
0.030
0.047
0.003
-0.046
-0.000
0.035
0.015
0.074
0.023
0.017
0.046
0.068
0.021
-0.014
-0.002
0.005
0.094
0.038
0.015
-0.041
0.020
0.039
0.016
0.127
0.071
0.025
-0.024
0.004
-0.009
0.073
0.013
0.051
0.044
0.012
-0.020
0.074
0.017
0.058
-0.030
0.087
-0.050
0.008
0.010
0.082
0.072
0.025
0.013
0.042
0.031
0.069
-0.027
0.015
0.019
0.046
-0.006
0.036
0.100
0.019
0.025
-0.031
0.156
0.062
-0.021
0.021
0.010
0.089
0.020
0.061
0.061
-0.035
-0.008
0.134
-0.015
0.131
-0.019
0.003
-0.039
0.033
0.124
0.072
-0.047
0.048
0.020
0.078
-0.005
-0.016
0.142
-0.020
-0.023
0.061
0.010
-0.038
0.030
0.006
0.106
0.099
0.022
0.023
0.035
-0.009
0.145
0.052
0.089
0.019
-0.056
-0.047
0.008
-0.003
0.056
0.028
0.020
-0.012
0.034
-0.018
0.001
-0.008
0.045
0.004
0.034
0.098
0.022
-0.029
0.037
0.026
-0.010
0.065
0.060
0.010
0.030
0.147
0.030
0.026
-0.009
-0.035
0.097
-0.026
0.049
0.021
0.060
0.032
0.011
0.003
0.009
0.052
0.102
0.007
-0.019
0.050
0.058
-0.009
0.017
-0.013
0.070
-0.040
-0.024
-0.023
0.042
-0.045
-0.029
0.044
0.017
0.022
0.005
-0.002
0.071
0.044
0.007
-0.023
0.095
0.023
0.044
0.010
0.003
0.051
0.037
0.057
0.027
-0.003
-0.007
0.118
0.016
0.020
-0.052
0.079
0.073
0.081
0.004
0.011
0.032
-0.053
-0.024
0.076
0.069
0.019
0.006
0.021
-0.011
0.068
0.033
0.012
0.026
-0.037
0.012
0.002
0.088
0.022
0.022
0.049
0.062
-0.031
0.007
0.013
0.018
0.027
0.045
0.086
-0.004
0.012
-0.032
-0.009
-0.008
0.078
0.017
0.078
-0.045
-0.025
0.078
0.025
0.018
0.042
0.019
0.059
-0.045
0.097
0.066
0.018
0.042
-0.035
0.044
0.008
-0.009
0.045
0.037
0.028
0.029
-0.069
0.006
0.022
0.041
0.047
0.127
-0.022
0.029
-0.050
0.035
0.092
0.074
-0.048
0.108
0.070
-0.013
0.001
0.016
0.091
0.048
0.102
-0.008
0.034
0.044
-0.026
0.006
0.117
0.145
-0.024
-0.049
0.028
0.029
0.034
-0.004
0.087
-0.006
0.003
-0.004
0.056
-0.056
0.041
0.002
0.041
-0.000
0.039
0.066
0.016
-0.044
0.015
0.047
0.012
0.020
0.029
0.085
0.030
0.069
0.063
0.009
0.050
0.022
-0.011
0.073
0.017
0.020
0.073
-0.085
0.143
0.079
-0.019
0.041
0.001
0.101
0.025
0.055
-0.017
-0.004
0.076
-0.013
-0.034
0.044
0.020
0.124
0.032
0.019
-0.077
0.080
-0.011
0.066
-0.067
0.156
0.080
0.036
-0.037
-0.040
0.032
0.099
-0.054
0.092
0.063
-0.044
0.048
0.022
-0.024
-0.049
-0.040
0.049
0.159
0.109
0.005
0.009
-0.012
0.096
0.009
0.030
0.043
0.063
0.074
0.058
0.055
0.002
0.036
0.061
-0.024
0.056
0.004
0.015
-0.015
0.010
0.066
0.030
0.016
0.048
0.075
0.065
0.045
-0.090
0.087
0.028
0.139
0.007
-0.011
-0.022
0.011
0.080
0.013
0.040
0.034
0.052
0.095
0.054
-0.047
0.070
0.107
0.060
-0.024
-0.006
0.077
-0.040
0.074
0.005
-0.053
0.012
0.066
0.041
0.016
0.074
0.045
-0.042
0.073
0.029
-0.048
0.220
0.007
0.039
0.013
0.015
0.090
0.059
0.103
-0.027
-0.102
0.003
0.050
0.060
0.020
-0.014
0.053
0.043
0.032
0.044
0.029
0.007
0.023
-0.046
0.047
0.035
0.044
-0.003
0.089
0.030
0.023
-0.018
0.065
0.078
-0.023
0.112
0.012
0.019
0.026
0.006
0.068
0.048
-0.014
0.032
-0.014
0.027
0.054
0.017
0.017
-0.060
-0.028
0.107
0.009
0.094
0.040
0.042
-0.008
0.063
0.071
0.085
-0.005
-0.018
-0.030
0.108
0.037
-0.030
0.040
0.058
0.039
0.050
0.058
-0.075
0.061
0.075
0.091
-0.037
-0.005
0.068
-0.052
-0.048
0.031
-0.010
-0.031
0.057
0.119
0.040
-0.020
0.102
0.049
0.000
-0.055
0.043
0.029
0.061
-0.007
0.132
0.039
0.125
0.064
0.105
-0.112
0.000
0.130
0.034
0.053
0.007
-0.026
0.046
-0.081
0.038
0.025
0.060
0.023
-0.011
0.016
-0.019
-0.002
0.079
0.050
0.031
-0.001
-0.016
-0.007
0.086
0.117
0.096
0.018
-0.073
0.023
0.066
0.080
0.004
0.012
0.054
0.049
0.048
0.010
0.030
0.044
0.056
-0.033
-0.011
-0.005
0.130
-0.007
0.035
0.021
-0.043
0.034
0.082
0.089
0.012
0.004
0.062
-0.072
0.116
-0.004
0.080
0.050
-0.023
-0.029
0.069
-0.035
0.069
0.056
0.104
0.018
-0.033
0.012
0.148
-0.032
-0.007
0.028
0.044
0.039
0.105
0.053
-0.011
-0.015
-0.032
0.103
0.025
0.014
0.014
0.053
-0.045
0.106
0.021
0.036
0.029
0.007
0.106
-0.051
0.048
0.059
0.064
-0.035
0.128
-0.001
0.014
-0.011
0.019
0.066
0.051
0.033
0.054
0.083
0.009
-0.024
0.017
0.054
0.104
0.048
0.057
-0.009
0.042
0.103
-0.026
-0.008
-0.036
0.115
0.022
-0.004
0.039
0.089
-0.033
-0.024
0.059
0.067
0.027
0.063
0.073
-0.036
-0.002
0.090
0.065
0.024
-0.018
-0.009
-0.004
0.131
0.027
0.017
-0.051
0.057
0.067
-0.020
0.084
0.012
-0.002
0.037
0.134
0.015
-0.062
0.022
0.060
0.022
-0.034
0.130
0.001
0.035
-0.001
0.056
0.072
0.145
-0.040
0.040
0.140
0.102
-0.020
-0.051
0.047
0.009
0.060
0.080
0.004
0.001
-0.045
-0.024
0.091
0.041
0.014
0.080
-0.041
-0.037
0.087
0.039
-0.023
0.043
0.102
0.039
0.042
0.009
0.101
-0.064
0.071
0.059
0.115
-0.047
0.032
0.091
0.041
0.033
0.025
-0.002
-0.002
0.132
-0.025
0.004
0.014
0.108
0.005
0.028
0.010
0.026
-0.020
0.008
0.074
0.114
0.043
-0.022
-0.013
0.063
-0.014
0.136
-0.024
-0.026
-0.014
0.037
0.015
0.092
0.015
0.128
0.026
0.026
-0.075
0.005
-0.027
0.069
0.049
0.065
0.069
0.067
0.046
-0.064
0.043
0.041
0.101
0.047
0.030
-0.065
0.068
0.028
0.015
0.010
0.040
0.052
-0.060
0.022
0.013
0.113
0.042
0.092
0.083
0.032
-0.038
-0.053
-0.015
0.029
0.099
0.049
-0.023
-0.044
0.040
0.063
0.082
0.008
0.038
0.017
-0.005
0.058
0.021
0.062
0.095
0.032
0.058
-0.024
0.089
-0.022
0.002
0.054
0.066
-0.063
0.029
0.082
0.052
0.105
0.104
-0.056
0.023
0.018
-0.002
0.037
0.079
0.048
-0.031
0.046
-0.026
0.068
0.103
0.072
-0.032
0.040
0.070
0.072
0.018
0.003
0.008
0.074
0.014
0.041
0.022
0.021
0.051
0.038
0.082
0.110
-0.017
-0.001
-0.000
0.043
0.056
0.009
-0.017
0.042
0.045
0.050
0.121
0.085
-0.060
-0.064
-0.002
0.006
0.020
0.089
0.017
0.098
-0.008
0.036
0.002
0.055
0.127
0.028
0.014
0.042
0.057
0.059
0.084
-0.040
0.073
0.011
-0.004
-0.006
-0.050
0.021
0.121
0.100
-0.043
-0.038
0.034
0.039
0.046
0.042
0.102
0.056
0.086
-0.000
0.028
-0.012
0.066
0.024
-0.061
-0.001
0.092
0.032
0.000
-0.020
0.071
0.050
0.027
-0.011
-0.048
0.022
0.138
0.018
0.061
0.057
-0.060
-0.025
-0.007
0.030
0.041
0.095
0.056
-0.026
-0.027
-0.039
0.118
0.092
0.009
-0.003
0.052
0.141
-0.009
0.017
0.058
0.012
-0.053
-0.006
0.037
-0.004
0.008
0.002
0.129
0.023
0.037
-0.062
0.029
-0.062
0.094
-0.014
0.024
0.047
0.069
0.029
-0.005
0.008
-0.011
-0.013
-0.006
-0.001
0.002
-0.006
0.069
0.048
-0.028
0.021
0.047
0.016
0.072
-0.057
-0.005
0.051
0.069
0.046
0.030
0.001
0.006
0.064
0.027
0.002
-0.039
0.054
0.044
0.038
-0.004
0.010
0.068
0.021
0.047
0.063
-0.021
-0.070
-0.021
-0.017
0.084
0.082
-0.044
0.078
0.019
0.010
0.037
0.052
-0.034
0.056
0.069
-0.034
0.072
0.013
-0.008
-0.006
0.069
0.120
-0.039
0.033
0.012
0.042
0.023
0.057
0.066
-0.028
0.026
-0.014
0.008
-0.021
-0.017
0.059
0.110
-0.009
0.060
-0.017
0.046
-0.021
0.047
-0.005
0.070
0.008
-0.011
0.059
0.051
0.046
0.016
0.001
0.047
0.066
0.085
0.075
-0.030
0.116
0.030
-0.039
-0.063
0.027
-0.011
0.109
0.071
0.016
-0.052
-0.015
-0.020
0.125
-0.011
0.036
0.034
0.060
-0.026
0.002
0.041
0.004
-0.004
0.104
0.020
0.079
-0.025
0.089
0.038
0.007
-0.030
0.004
0.006
0.051
0.029
0.033
0.021
-0.015
0.045
-0.028
0.104
0.028
0.071
-0.012
0.048
0.021
0.135
-0.011
0.030
-0.037
-0.036
0.006
0.071
0.028
-0.016
0.041
-0.000
-0.007
0.113
0.080
-0.012
0.003
0.086
0.099
-0.008
0.027
-0.035
0.113
0.011
0.033
0.026
0.038
0.005
0.115
0.009
0.043
0.014
0.081
-0.091
0.037
0.013
0.091
-0.016
-0.023
0.090
0.021
0.060
-0.005
0.082
0.095
0.028
0.059
0.014
0.094
-0.033
-0.023
0.045
0.038
0.054
0.010
0.072
-0.036
0.051
0.039
-0.006
0.017
-0.011
0.080
0.108
0.071
-0.097
0.101
0.112
-0.041
0.014
-0.037
-0.011
0.022
0.060
0.030
0.048
0.085
0.001
0.052
-0.012
-0.028
-0.029
0.033
0.053
0.034
0.065
0.085
0.040
0.016
-0.055
0.015
-0.000
0.072
-0.012
0.050
0.108
0.101
0.050
0.016
-0.055
0.043
0.057
0.055
-0.067
0.040
0.008
0.035
0.060
0.008
0.078
-0.009
0.028
0.077
0.024
-0.060
0.036
0.002
0.072
0.067
-0.055
0.073
0.050
-0.052
-0.021
0.127
0.140
-0.028
0.046
-0.031
-0.033
0.047
0.101
0.039
0.104
0.024
0.001
-0.026
-0.036
-0.015
0.037
0.083
0.066
0.052
-0.011
-0.008
0.043
0.140
0.046
-0.050
0.021
0.009
0.006
0.013
0.010
0.092
0.140
0.025
-0.006
0.024
0.033
0.079
0.039
0.023
0.011
-0.011
0.005
0.093
0.028
0.039
0.074
0.010
0.012
0.069
0.060
-0.043
-0.018
0.031
-0.013
0.031
-0.004
0.048
0.050
0.055
0.026
-0.051
0.058
0.075
0.008
0.062
0.033
-0.093
0.009
0.031
0.036
0.054
0.038
-0.005
0.041
-0.024
0.057
-0.008
-0.022
0.044
0.033
0.082
0.027
-0.018
0.048
0.070
0.030
-0.006
-0.027
0.013
0.187
-0.013
0.029
-0.107
0.072
0.061
0.006
0.144
0.012
-0.012
0.045
0.034
0.042
0.062
0.037
0.083
-0.026
0.009
0.039
-0.003
0.059
0.044
0.024
0.041
-0.008
0.029
0.090
-0.073
-0.025
-0.040
0.045
0.137
-0.003
-0.002
0.040
-0.075
0.004
0.128
0.007
0.089
0.042
0.085
-0.021
0.003
0.043
0.030
0.044
0.016
0.060
0.011
0.062
-0.008
-0.076
0.102
0.045
0.009
0.085
0.015
0.054
0.063
0.034
-0.017
0.047
0.006
-0.058
0.038
0.020
-0.004
0.102
0.023
-0.041
0.082
0.037
-0.017
0.005
0.015
-0.012
-0.007
-0.005
0.052
0.050
0.070
-0.026
-0.050
0.026
0.018
0.060
-0.046
0.039
0.055
0.009
0.025
-0.030
0.090
0.044
0.027
0.013
0.046
-0.017
-0.001
0.033
-0.001
0.060
0.008
0.089
0.013
0.017
0.019
0.015
0.071
-0.017
0.027
0.047
0.067
0.030
0.005
-0.051
0.096
0.070
0.033
-0.031
0.012
-0.050
0.086
0.051
0.041
0.037
-0.023
0.043
0.036
0.061
0.059
0.062
-0.010
0.024
0.026
0.103
0.079
0.028
0.104
-0.051
-0.004
0.096
0.035
-0.105
0.053
0.010
0.053
0.133
-0.016
0.010
0.000
0.043
-0.024
0.056
0.111
0.072
0.045
0.129
-0.097
-0.001
0.052
0.077
0.051
0.056
0.064
0.036
0.059
0.026
-0.041
-0.012
0.054
0.074
0.027
0.022
0.070
0.052
0.039
-0.014
-0.010
0.013
-0.021
0.112
0.008
0.013
0.009
0.098
-0.007
0.036
0.090
0.028
0.004
0.062
0.026
-0.047
-0.005
0.037
0.007
-0.010
0.069
0.041
0.002
0.109
0.030
0.047
-0.008
-0.024
0.040
0.044
0.065
-0.008
0.065
0.030
-0.039
-0.015
0.086
0.070
0.032
0.049
0.050
0.009
0.012
0.028
0.059
0.080
0.000
0.051
0.070
0.038
-0.015
0.021
0.044
-0.018
0.038
0.015
0.027
0.043
0.012
0.043
-0.005
0.089
-0.019
0.002
0.046
0.112
0.069
0.045
-0.060
-0.002
0.000
0.140
0.120
-0.034
-0.021
0.000
0.013
0.064
0.084
-0.053
0.039
0.019
0.059
-0.003
0.101
-0.067
0.074
-0.032
0.055
0.083
0.041
0.068
-0.020
-0.011
0.087
0.052
0.147
0.016
0.003
-0.028
0.026
0.018
0.003
0.069
-0.069
0.063
0.076
0.010
0.000
0.084
0.054
-0.008
-0.012
-0.002
0.041
-0.006
0.015
0.018
0.083
0.059
0.022
0.028
-0.018
0.028
0.065
0.041
0.017
0.023
-0.019
-0.016
-0.021
0.082
0.046
0.041
-0.002
0.078
0.017
0.079
0.028
0.033
0.024
0.074
-0.045
0.122
0.005
0.052
0.046
0.032
0.020
-0.012
0.050
-0.031
0.048
0.047
0.087
0.021
-0.134
0.039
0.076
-0.001
0.064
0.003
-0.032
0.037
0.119
0.009
-0.024
0.072
0.070
0.006
0.043
-0.008
-0.006
0.050
0.025
0.037
0.039
-0.012
-0.035
0.083
0.017
0.027
-0.007
0.126
-0.028
0.012
-0.004
0.044
0.068
0.041
0.026
0.021
0.060
0.030
0.013
0.009
0.121
0.039
0.010
0.021
0.036
0.038
-0.117
0.043
0.053
0.079
0.095
-0.017
-0.104
-0.006
0.046
0.047
0.072
-0.082
0.008
0.007
0.099
-0.015
0.041
0.014
0.111
-0.015
0.094
-0.062
0.048
-0.069
0.054
0.085
0.030
0.012
0.027
-0.016
0.003
0.093
0.037
0.050
0.000
0.112
0.032
0.014
-0.048
0.059
0.010
0.010
0.072
0.056
0.004
0.041
0.037
-0.009
-0.016
0.121
-0.038
0.019
0.045
0.071
0.003
0.078
0.017
-0.036
0.105
-0.016
-0.026
0.083
0.043
0.022
0.034
-0.017
0.036
0.015
-0.030
0.026
0.056
0.072
-0.000
0.026
0.024
0.091
0.087
0.008
0.003
-0.004
0.090
0.048
-0.052
-0.033
0.043
-0.010
0.047
-0.001
0.033
0.098
0.084
-0.069
0.072
0.013
0.009
-0.030
0.072
0.013
0.053
0.056
0.015
0.064
0.021
0.042
0.028
0.016
-0.041
0.054
0.074
0.010
0.027
0.018
0.037
0.031
0.040
0.029
-0.011
0.097
0.036
-0.013
0.050
-0.009
-0.043
-0.028
0.041
0.064
0.051
0.019
-0.000
0.047
0.004
0.064
-0.055
0.025
0.069
0.042
0.040
0.023
0.061
0.000
0.061
-0.004
0.035
0.028
-0.024
0.053
-0.002
0.123
0.062
-0.016
0.088
0.046
0.035
0.048
-0.066
-0.011
0.005
0.053
0.087
-0.087
0.005
0.023
-0.026
0.103
-0.036
0.018
-0.015
0.056
0.013
-0.043
0.021
0.133
0.080
0.039
0.097
-0.047
0.018
0.008
-0.047
0.008
0.065
0.015
0.030
0.009
-0.044
0.074
0.018
0.032
0.051
-0.001
0.018
0.109
-0.019
0.056
0.008
-0.021
0.045
0.033
-0.010
0.109
0.027
-0.043
-0.040
0.063
0.109
0.045
-0.016
-0.015
0.023
0.021
0.051
0.045
0.113
-0.017
0.057
0.049
-0.030
-0.082
0.004
0.006
0.038
0.059
0.014
-0.042
0.100
0.006
0.059
0.069
0.064
-0.017
0.007
0.085
0.069
-0.022
0.038
0.124
0.006
0.008
0.015
0.021
0.046
0.022
0.048
-0.138
0.040
0.039
0.027
0.033
-0.027
0.091
0.076
0.043
0.116
0.076
-0.030
0.031
-0.067
0.011
0.042
0.019
0.010
0.033
0.041
0.046
0.007
0.066
-0.036
-0.015
0.018
0.099
0.103
-0.036
0.031
0.028
0.037
-0.012
-0.043
0.018
0.123
0.045
-0.046
0.104
-0.039
0.002
0.059
0.054
0.084
-0.019
0.036
0.036
-0.022
0.008
-0.032
0.068
-0.042
0.081
0.035
0.041
0.024
-0.031
0.055
0.082
0.149
0.068
0.036
-0.004
0.028
-0.008
-0.044
0.018
-0.006
-0.040
0.033
0.059
0.071
-0.017
-0.009
0.062
0.071
-0.047
0.062
0.020
0.117
-0.015
-0.029
0.074
0.073
0.027
0.058
0.051
0.058
-0.005
0.005
0.007
0.180
0.038
0.024
-0.012
0.026
0.026
0.038
0.064
0.059
0.029
0.033
-0.031
-0.038
0.150
0.040
0.017
0.022
0.028
0.060
0.061
0.092
0.000
0.002
-0.041
0.059
0.040
0.076
0.028
0.001
0.060
0.053
0.030
-0.018
0.065
-0.003
-0.079
-0.009
0.105
0.017
0.102
-0.022
-0.039
0.088
0.132
-0.008
0.009
0.062
0.025
-0.026
0.108
0.032
0.075
0.012
0.008
0.025
0.023
0.009
0.075
0.039
-0.038
0.044
0.034
0.026
0.024
-0.020
0.073
0.060
-0.057
-0.004
0.041
0.090
-0.003
-0.052
0.062
0.178
0.008
-0.050
0.098
0.058
0.011
0.009
0.082
0.085
-0.038
-0.047
0.029
0.114
0.063
0.006
0.043
0.053
-0.012
-0.015
0.027
-0.044
0.077
0.076
0.020
-0.015
-0.008
0.058
0.098
0.054
0.019
-0.001
0.058
0.034
0.001
0.073
0.050
0.009
-0.020
0.008
0.012
0.051
0.036
0.108
0.005
0.008
0.036
0.059
-0.013
0.039
0.101
0.015
0.027
0.039
0.038
0.028
0.040
0.126
-0.018
0.084
0.026
0.003
-0.053
0.112
0.039
0.053
0.034
0.009
0.039
0.034
0.127
-0.011
0.016
0.082
-0.034
0.097
0.040
-0.052
-0.035
0.070
0.082
-0.027
-0.046
0.001
0.077
0.101
-0.041
0.080
0.048
0.077
0.022
-0.030
0.009
-0.012
0.053
0.045
0.041
0.048
-0.025
0.011
0.065
0.060
0.077
0.009
0.039
0.014
-0.009
0.015
-0.031
0.059
0.093
0.091
-0.062
0.015
0.042
0.122
-0.004
-0.016
0.010
0.029
0.030
-0.056
0.014
-0.052
0.090
0.041
-0.001
0.042
0.038
0.064
0.021
0.006
-0.024
0.046
0.006
-0.072
0.122
0.085
0.030
-0.032
0.016
0.026
0.065
-0.029
-0.008
0.020
-0.012
0.020
0.067
0.012
0.012
0.020
0.061
0.015
-0.020
0.054
0.089
0.026
0.053
0.077
-0.006
-0.026
-0.039
0.054
0.043
0.053
0.044
0.066
-0.042
0.004
0.026
-0.066
0.053
0.057
0.051
0.088
-0.051
0.009
-0.008
0.052
0.093
0.049
-0.024
0.013
0.053
-0.036
0.102
0.047
-0.007
0.081
-0.027
0.016
0.047
-0.032
0.038
0.106
0.070
-0.026
0.003
0.081
-0.051
0.007
0.111
0.066
0.035
-0.073
-0.035
0.109
0.104
0.064
-0.122
0.025
0.109
-0.000
0.019
0.025
-0.009
-0.050
0.048
-0.022
0.024
0.101
0.087
0.004
0.058
-0.031
0.038
0.100
-0.008
-0.069
0.062
0.033
0.049
0.015
0.092
-0.033
0.009
0.044
0.028
-0.011
0.051
0.026
0.014
0.001
0.035
0.008
0.007
-0.014
0.072
0.105
0.013
-0.053
0.104
-0.002
0.001
0.012
0.018
0.050
0.037
0.023
0.016
0.013
-0.044
0.012
0.047
0.011
-0.062
0.038
0.036
-0.052
0.020
0.058
0.042
0.158
0.054
0.050
-0.059
-0.013
0.066
-0.002
0.039
0.039
0.044
0.097
0.038
-0.015
0.001
0.022
-0.056
0.034
0.034
0.011
0.026
0.078
0.006
0.061
0.029
0.048
-0.005
0.027
0.034
-0.006
0.107
-0.005
0.039
0.060
0.037
0.023
-0.008
-0.031
-0.058
0.087
0.025
0.083
-0.036
0.033
0.063
0.080
-0.025
0.030
0.027
0.075
-0.043
-0.012
0.154
-0.034
0.084
-0.019
0.009
0.031
0.027
0.080
0.019
-0.020
0.035
0.101
0.047
0.027
0.061
0.047
0.008
0.031
-0.011
0.018
0.036
0.072
0.017
0.014
0.080
-0.058
0.053
0.058
0.019
0.096
0.060
-0.042
0.075
-0.002
0.067
0.015
0.060
-0.020
-0.082
0.011
0.023
0.109
0.043
0.092
-0.009
0.018
0.001
-0.002
0.057
0.168
0.031
0.057
0.001
-0.025
0.007
0.046
0.058
0.026
-0.024
-0.005
0.068
0.037
0.109
-0.001
0.059
0.037
-0.003
-0.075
-0.039
0.066
0.112
0.046
-0.014
0.015
-0.002
0.058
-0.021
0.014
0.047
0.057
0.059
-0.046
0.002
0.069
0.082
-0.018
0.058
0.063
-0.006
0.054
0.020
0.110
0.036
-0.035
0.030
0.053
0.049
-0.048
0.047
0.029
0.025
0.038
0.016
0.006
-0.019
0.039
0.026
0.013
-0.030
0.145
-0.005
0.028
0.072
-0.021
0.036
0.061
0.086
0.006
0.035
0.049
-0.059
0.023
0.027
0.084
0.026
0.015
0.110
0.084
0.025
0.046
0.011
0.106
0.053
-0.051
0.037
0.053
0.037
0.079
0.005
0.036
0.059
0.024
0.029
0.041
0.061
-0.008
0.011
0.113
-0.015
0.040
0.106
-0.054
0.073
0.039
-0.035
0.047
0.125
-0.045
0.137
0.046
-0.018
0.024
0.022
-0.012
0.038
0.071
0.006
0.036
0.101
0.070
0.057
0.014
-0.049
0.038
0.003
0.049
0.027
0.064
0.074
0.082
-0.001
-0.040
0.008
0.157
-0.006
-0.006
0.057
-0.002
-0.061
0.090
0.074
0.071
-0.030
0.016
-0.013
0.082
-0.021
0.042
0.040
0.026
0.075
-0.023
0.133
0.013
0.043
-0.004
0.083
-0.037
0.025
0.005
-0.035
0.057
0.072
-0.060
0.040
0.009
0.052
0.067
0.041
-0.026
0.137
0.066
0.032
-0.083
0.052
0.147
-0.029
0.033
-0.017
0.079
0.003
0.020
-0.068
-0.004
0.075
0.043
0.051
0.045
-0.052
0.064
0.084
0.026
0.030
-0.009
0.088
0.078
0.022
0.061
0.038
0.071
-0.016
0.073
0.012
-0.038
0.017
0.103
0.029
0.074
0.058
-0.008
0.049
0.051
-0.066
0.064
0.025
0.015
0.023
0.010
0.026
0.112
0.011
-0.033
0.072
-0.032
0.054
0.067
-0.004
0.031
0.020
0.040
0.040
0.023
-0.008
0.025
0.108
0.075
-0.034
0.018
0.054
0.005
0.039
0.062
-0.009
-0.019
0.035
-0.022
0.025
0.063
0.020
0.046
0.108
0.104
-0.096
-0.100
0.016
0.057
0.024
0.033
0.009
0.026
-0.002
0.055
-0.017
0.086
0.084
-0.038
-0.019
0.031
-0.003
0.105
0.052
0.078
0.035
-0.061
0.101
-0.005
0.036
0.005
0.091
0.078
-0.091
-0.115
0.082
0.041
0.036
-0.038
0.041
0.050
0.094
-0.026
0.091
-0.022
0.043
0.016
0.060
0.049
0.024
-0.003
0.101
-0.006
0.029
0.067
0.029
0.026
0.053
-0.006
-0.045
-0.022
0.003
0.139
-0.034
0.031
0.035
-0.013
0.080
0.086
-0.004
0.029
-0.013
0.052
0.063
0.060
0.004
0.044
-0.042
-0.018
0.073
-0.020
0.084
-0.028
0.044
0.021
0.001
0.081
0.066
0.055
0.037
-0.001
0.088
-0.013
0.038
0.048
0.079
0.025
0.067
-0.051
0.015
0.037
-0.023
0.047
0.029
0.087
-0.005
0.025
0.046
-0.012
-0.063
0.034
0.090
-0.046
0.087
0.053
-0.021
0.024
-0.050
0.025
0.073
0.032
0.056
0.051
0.054
0.072
-0.070
0.037
-0.044
0.102
0.026
-0.023
0.034
0.042
0.090
-0.021
0.006
0.024
0.017
0.094
0.042
0.016
0.046
0.077
0.112
0.072
-0.083
-0.014
0.083
-0.016
-0.027
0.051
0.037
0.041
0.080
0.071
0.031
0.007
0.022
-0.031
0.087
0.039
-0.022
0.015
0.012
0.017
0.041
0.066
0.059
-0.053
0.089
-0.017
0.030
0.105
0.038
-0.031
0.035
0.000
0.051
0.081
-0.056
-0.004
0.033
0.018
0.076
-0.024
0.061
-0.019
0.024
-0.005
0.063
0.079
0.013
-0.017
0.021
0.061
-0.013
-0.028
-0.009
0.074
0.020
0.046
0.054
-0.019
-0.020
0.007
0.054
0.044
0.043
-0.015
0.005
-0.011
0.114
0.003
0.002
-0.019
-0.038
0.059
0.099
-0.017
0.088
-0.117
0.091
0.019
-0.023
0.003
0.071
-0.001
-0.002
0.004
0.042
0.115
0.015
-0.061
-0.079
0.073
0.004
0.003
0.027
0.102
-0.007
0.002
0.009
0.086
-0.014
-0.049
0.017
0.117
0.023
0.055
0.033
0.003
-0.064
0.104
-0.023
0.034
0.050
0.006
0.098
-0.066
-0.014
0.047
0.122
-0.011
0.018
0.009
0.003
0.012
0.120
0.021
-0.006
0.049
0.118
-0.009
0.069
0.032
0.077
-0.079
-0.006
-0.044
0.076
0.075
0.032
0.031
-0.026
-0.015
0.033
0.034
0.017
0.061
0.133
-0.042
0.013
0.057
0.044
0.072
-0.026
0.003
0.055
0.049
0.043
-0.033
-0.007
0.061
0.160
0.025
-0.008
-0.018
0.028
0.034
0.011
0.068
-0.021
0.067
-0.017
0.017
0.013
0.077
0.048
0.066
0.023
0.061
0.003
0.010
0.085
0.030
0.038
0.038
0.029
-0.007
0.019
-0.006
0.094
0.087
0.087
-0.011
-0.093
0.070
0.062
-0.047
-0.032
0.161
-0.031
0.069
0.033
0.023
0.083
-0.036
0.025
0.059
-0.020
0.015
0.033
-0.018
0.168
-0.018
0.064
0.007
0.012
0.046
0.071
-0.011
0.032
0.131
-0.005
0.032
0.041
0.047
0.015
-0.035
0.035
0.090
0.027
0.047
-0.009
0.023
0.022
-0.047
-0.001
0.085
0.073
0.064
-0.095
0.015
0.061
-0.050
0.078
0.004
0.042
0.084
-0.038
-0.073
0.082
0.087
-0.021
0.136
0.038
-0.028
-0.049
0.070
0.067
0.050
0.059
-0.014
0.080
-0.014
0.107
-0.063
0.025
-0.052
-0.030
0.037
0.059
0.014
0.042
0.041
0.106
-0.112
-0.046
0.010
0.059
-0.087
0.142
-0.001
-0.010
-0.018
0.023
0.098
0.079
0.048
0.045
-0.018
0.075
0.044
0.083
-0.028
0.009
0.009
0.125
-0.082
0.081
-0.033
-0.011
0.028
0.039
0.063
0.007
-0.033
0.012
0.096
-0.006
0.060
0.056
0.064
-0.029
0.016
0.036
0.125
0.065
0.005
0.007
0.039
-0.034
0.011
0.048
0.069
0.018
0.088
0.050
0.038
0.048
-0.027
0.013
-0.012
0.015
0.088
0.040
-0.014
0.066
0.050
0.035
0.079
0.021
-0.019
-0.009
0.025
0.043
0.053
0.079
-0.007
-0.025
0.043
0.066
0.018
0.030
0.063
0.089
0.013
-0.056
0.000
0.069
0.009
0.041
0.100
0.046
0.017
-0.017
0.075
0.049
0.026
0.096
0.068
0.019
-0.001
0.032
0.046
-0.001
0.069
0.076
0.041
0.075
0.037
0.079
-0.075
0.052
0.008
0.047
-0.004
0.035
0.083
0.028
0.013
-0.022
0.030
0.014
-0.025
0.042
0.010
0.040
-0.003
0.012
0.018
-0.022
0.065
-0.030
0.032
0.081
0.037
0.009
0.001
0.033
0.067
-0.026
0.027
0.018
0.073
0.023
-0.012
0.105
0.014
0.014
0.038
0.032
-0.033
-0.027
0.121
0.030
0.027
0.052
0.070
0.016
-0.031
0.108
0.019
-0.006
-0.022
0.127
0.084
0.008
-0.004
0.061
-0.057
-0.007
-0.033
0.136
0.013
0.056
0.002
-0.030
-0.061
0.033
-0.037
0.049
-0.034
0.043
0.029
0.020
0.004
-0.021
0.112
0.003
0.063
-0.021
0.031
-0.010
-0.052
0.052
0.050
0.038
0.009
0.024
0.040
0.070
-0.021
0.012
-0.040
0.127
0.005
0.026
0.034
-0.001
-0.013
0.116
0.091
-0.023
-0.019
0.106
0.026
0.009
-0.013
0.028
0.141
0.052
0.064
0.022
-0.018
0.011
-0.010
0.029
0.013
0.032
0.048
0.089
-0.053
0.029
0.039
-0.061
0.008
0.084
0.094
-0.043
0.026
0.011
0.009
0.045
0.049
-0.078
0.021
0.036
-0.015
0.057
0.012
0.055
0.029
0.011
0.016
-0.028
0.100
-0.039
0.067
0.013
0.022
0.036
0.011
0.053
0.093
0.019
0.037
0.046
-0.091
0.136
-0.057
0.076
0.035
0.008
0.084
0.029
-0.042
0.098
-0.021
0.023
0.027
0.018
0.078
0.032
0.063
-0.029
0.005
0.104
0.018
-0.076
0.031
0.053
-0.037
0.087
0.027
0.028
-0.032
0.070
0.006
-0.043
0.055
0.143
0.023
0.051
-0.011
-0.019
-0.006
0.040
0.009
0.095
0.033
0.012
0.042
-0.006
-0.037
0.024
0.017
0.057
0.109
0.039
0.016
-0.017
0.043
0.060
0.054
-0.025
0.022
0.053
0.031
0.068
0.040
-0.014
0.003
0.046
0.008
0.085
0.064
0.002
-0.022
0.083
-0.011
0.040
-0.015
-0.008
0.015
0.129
0.034
0.007
0.008
0.077
0.106
-0.003
0.024
0.037
0.081
0.099
0.068
0.017
0.026
-0.040
0.057
-0.010
0.006
0.049
0.054
-0.086
0.090
0.119
-0.051
-0.003
0.041
0.014
-0.011
-0.005
0.120
-0.011
0.005
0.029
0.038
0.026
0.018
0.034
0.080
0.002
0.038
0.082
0.096
0.022
-0.017
-0.036
-0.017
0.079
0.092
0.061
-0.067
0.042
0.023
0.017
0.072
0.075
0.044
-0.017
0.012
0.099
0.061
0.029
-0.013
-0.001
0.084
0.066
-0.031
0.054
0.067
-0.041
0.010
0.035
0.014
0.059
0.041
0.045
0.058
-0.018
0.013
-0.010
0.003
-0.048
0.105
0.047
0.021
-0.035
0.034
0.071
0.044
-0.019
0.031
-0.004
0.053
0.046
-0.043
-0.073
0.089
0.034
0.031
0.043
0.001
0.008
0.067
0.063
0.095
0.126
0.037
-0.004
-0.011
0.002
0.017
0.127
-0.005
0.015
0.056
0.067
-0.004
-0.020
0.024
0.011
0.026
0.006
0.093
0.037
-0.075
0.031
0.062
-0.004
-0.086
0.066
0.022
0.057
0.083
-0.030
0.068
0.006
0.030
-0.094
0.033
0.073
0.086
0.022
0.002
-0.012
0.124
-0.023
-0.088
0.048
0.076
0.093
0.081
0.010
0.024
0.023
0.092
0.032
-0.026
0.071
0.060
0.017
0.021
0.105
0.057
0.062
0.018
-0.012
-0.064
-0.022
-0.018
0.022
0.023
-0.004
0.042
0.089
0.013
0.093
-0.022
-0.044
0.029
-0.001
-0.013
0.060
0.011
0.041
0.115
0.020
-0.055
-0.047
0.069
0.126
-0.011
0.021
0.079
0.064
0.023
0.073
-0.030
-0.068
0.136
0.056
0.008
0.037
0.008
0.026
0.005
0.044
0.045
0.093
-0.017
-0.005
0.068
0.074
0.006
-0.033
0.017
0.091
0.002
0.057
-0.002
0.059
0.021
0.006
-0.012
-0.068
0.140
-0.001
0.004
0.073
0.072
0.046
0.032
0.032
0.028
0.044
-0.020
-0.008
0.042
0.049
0.123
0.090
0.021
0.025
0.031
0.014
0.084
0.019
-0.000
0.059
0.016
0.038
0.045
-0.011
-0.006
0.028
-0.000
0.091
0.034
0.045
0.060
0.026
0.032
0.019
0.060
0.077
0.024
0.095
0.028
0.004
0.017
0.060
0.027
0.087
0.051
0.085
-0.014
0.002
0.016
0.053
0.067
0.020
0.002
0.127
0.019
0.094
0.041
-0.039
-0.046
0.033
0.097
0.039
0.040
0.021
0.025
0.020
-0.013
0.084
0.035
0.025
0.007
0.006
0.029
0.158
0.008
0.035
0.014
0.056
0.122
0.075
0.023
0.033
0.026
-0.031
0.044
0.010
-0.013
0.005
0.053
0.044
0.000
0.103
0.113
0.014
0.029
0.070
0.070
0.074
-0.089
0.112
0.130
-0.012
0.074
0.020
-0.033
0.056
0.071
0.051
0.023
-0.010
0.028
0.009
0.061
0.042
0.042
0.049
-0.058
0.088
0.079
0.038
0.042
0.064
-0.014
-0.014
0.108
-0.001
0.017
0.060
-0.039
0.109
0.019
0.106
0.052
0.080
-0.031
0.036
-0.016
0.045
0.046
0.114
0.120
-0.009
0.017
0.005
0.061
-0.026
0.104
0.108
0.088
-0.003
-0.034
0.038
0.043
0.072
-0.018
0.066
-0.033
0.099
0.043
0.048
-0.019
0.091
0.032
0.007
0.023
0.039
0.090
-0.007
0.003
0.013
0.032
0.007
0.039
-0.004
0.041
0.046
0.037
-0.028
0.103
0.068
0.001
0.028
0.043
0.038
0.069
0.071
0.001
0.030
0.045
0.070
0.066
-0.011
-0.005
0.041
0.059
-0.027
0.046
0.037
-0.002
0.035
-0.012
0.071
0.086
0.060
-0.090
0.084
-0.013
0.039
0.027
0.065
0.080
0.017
-0.011
0.018
0.047
-0.015
-0.029
0.030
0.020
0.044
0.005
0.067
0.108
0.063
-0.048
-0.027
0.060
-0.000
0.101
-0.018
0.028
0.018
0.075
-0.007
-0.007
0.054
0.055
-0.088
0.040
0.065
0.009
0.016
0.064
0.010
0.062
0.056
-0.019
0.011
-0.039
0.076
0.094
-0.008
0.009
-0.023
-0.012
0.088
0.078
0.041
0.062
0.055
-0.073
0.006
0.044
0.087
0.084
0.023
-0.021
-0.029
0.081
0.117
0.008
0.042
-0.029
-0.039
-0.049
0.048
0.004
0.034
0.110
0.083
-0.007
-0.022
0.020
0.129
-0.018
0.002
-0.015
0.032
0.112
0.082
0.070
-0.004
0.079
0.062
0.027
-0.023
0.034
-0.010
-0.041
0.147
0.020
-0.031
0.101
0.035
-0.038
0.035
0.053
0.028
0.050
-0.005
-0.019
0.025
0.056
0.041
-0.006
0.058
0.047
0.069
0.013
0.018
-0.069
0.045
0.065
0.036
-0.012
0.136
0.040
-0.001
0.118
0.070
-0.078
-0.011
0.007
0.050
-0.001
0.007
0.012
0.023
0.012
0.074
0.003
0.062
0.018
-0.009
0.034
0.035
0.009
-0.019
0.083
0.025
0.069
-0.006
-0.007
0.034
0.096
-0.005
0.009
0.020
0.089
0.013
0.023
0.007
0.030
0.086
-0.014
0.030
0.038
-0.076
-0.001
0.089
0.050
0.050
-0.059
-0.055
-0.006
0.036
0.039
0.064
0.027
0.017
0.012
0.114
-0.036
0.036
-0.029
0.008
0.062
0.016
0.051
-0.027
0.037
0.016
0.008
0.081
0.069
0.036
0.033
0.046
-0.091
0.113
0.033
0.026
-0.053
0.056
0.065
0.139
0.016
-0.020
-0.042
0.031
0.063
0.134
-0.007
-0.017
-0.012
-0.039
0.001
0.056
0.073
0.061
-0.023
0.059
0.033
-0.075
-0.061
0.011
0.110
0.013
-0.039
0.073
0.039
0.051
0.119
0.050
-0.052
-0.054
0.009
0.060
-0.008
0.052
0.043
0.036
-0.034
0.132
0.050
-0.035
0.003
-0.010
-0.004
0.046
0.035
0.063
-0.016
0.016
0.040
0.050
0.032
0.083
-0.036
0.150
0.040
-0.053
0.064
-0.020
-0.005
0.139
-0.001
-0.065
0.082
0.026
-0.004
0.122
-0.010
0.056
0.035
-0.007
0.044
0.014
-0.004
-0.032
-0.010
0.088
0.034
0.104
0.044
-0.006
-0.034
0.053
0.055
0.049
-0.013
0.052
0.018
0.008
0.058
-0.001
0.172
0.036
-0.030
-0.042
0.099
-0.053
0.096
0.122
0.021
0.046
0.063
-0.076
-0.010
0.117
0.074
0.056
0.019
-0.005
0.098
0.070
-0.008
-0.020
0.058
-0.036
0.111
0.019
0.028
0.128
-0.000
-0.044
0.023
0.006
0.040
-0.014
0.079
-0.044
-0.014
0.142
0.109
-0.056
-0.062
0.025
0.023
-0.001
0.048
0.007
-0.022
0.022
0.059
0.071
0.050
0.020
-0.023
0.097
0.001
0.066
0.039
0.093
-0.001
-0.054
-0.000
0.042
0.076
-0.012
0.015
-0.011
0.042
0.125
0.124
0.022
-0.045
0.038
-0.021
-0.002
0.091
0.103
0.076
0.005
-0.091
-0.006
0.141
0.078
-0.051
0.026
-0.005
0.065
0.024
-0.033
-0.010
0.094
0.012
0.030
0.019
0.022
0.048
-0.003
0.020
-0.006
-0.062
0.029
0.129
0.092
-0.004
-0.031
0.064
0.043
0.059
0.084
0.051
-0.025
0.132
0.005
0.056
0.028
0.095
0.021
0.087
0.003
0.079
0.007
0.057
0.051
-0.013
-0.058
0.024
0.118
0.034
-0.031
0.069
0.129
-0.015
0.029
0.025
0.024
-0.030
0.081
0.082
0.019
0.057
0.002
-0.029
0.079
0.010
-0.040
0.106
0.038
0.084
0.052
-0.034
0.025
0.059
-0.021
0.054
0.045
0.031
0.061
0.024
0.032
-0.009
0.081
0.082
-0.021
-0.017
-0.068
0.108
0.098
0.076
-0.039
0.066
0.016
0.046
0.037
0.120
-0.015
0.051
0.053
0.028
-0.012
0.037
-0.052
0.057
0.104
-0.011
0.004
0.020
0.036
0.035
0.010
0.023
-0.010
0.014
0.087
0.038
0.058
0.002
0.122
-0.068
0.076
0.022
-0.055
-0.012
0.104
0.093
-0.019
0.063
0.033
0.020
0.095
0.008
-0.023
-0.014
0.058
0.041
0.089
0.029
-0.044
0.100
0.025
0.146
-0.024
0.003
0.060
0.092
0.024
0.041
0.014
0.005
0.050
-0.008
0.024
0.006
0.001
0.055
0.024
0.042
0.059
-0.018
0.044
-0.046
0.045
0.055
0.019
0.030
-0.006
-0.028
0.036
0.100
0.044
0.086
0.045
0.002
-0.007
0.044
0.056
0.005
0.110
-0.040
0.040
-0.012
0.063
0.059
0.013
0.032
0.074
0.007
-0.020
0.062
0.017
0.009
-0.013
-0.081
0.080
-0.025
0.067
0.057
0.023
0.027
0.007
-0.038
-0.002
0.052
0.117
0.056
-0.002
0.090
0.109
0.002
-0.008
-0.014
0.034
0.014
0.010
0.097
0.074
0.024
0.007
-0.013
-0.044
0.101
0.015
0.015
-0.025
0.060
0.047
0.019
0.000
0.064
0.050
0.073
0.049
0.014
-0.018
-0.029
0.039
0.070
0.034
0.144
0.031
0.009
0.023
-0.052
-0.007
0.076
0.055
0.072
0.006
-0.032
0.021
0.092
-0.009
0.079
0.027
-0.016
-0.009
0.076
0.080
-0.015
0.008
0.066
0.021
0.120
-0.006
0.063
0.021
0.064
-0.028
0.069
0.046
0.069
0.021
0.001
0.016
0.004
0.072
0.139
0.047
0.007
0.000
-0.052
0.074
0.051
0.095
0.027
-0.009
0.039
0.016
0.007
0.119
0.056
-0.017
0.023
-0.001
0.047
0.023
-0.005
0.024
0.090
0.055
-0.049
0.044
-0.006
-0.006
0.032
0.029
-0.017
-0.070
0.072
0.023
0.047
0.008
0.023
0.039
0.106
0.049
0.033
0.067
0.071
0.052
-0.051
0.021
0.011
0.066
-0.008
0.037
0.078
0.041
0.071
0.097
0.055
-0.073
-0.036
0.073
0.013
0.029
0.027
0.071
-0.015
0.031
-0.032
0.008
-0.045
0.133
-0.065
0.032
0.013
0.081
-0.048
0.083
0.016
0.113
0.006
0.070
-0.005
0.089
0.060
0.038
-0.069
-0.038
0.068
0.049
0.109
0.049
-0.091
0.080
0.001
0.045
0.014
0.017
-0.010
0.080
-0.006
0.025
0.052
0.003
0.077
0.010
0.008
0.037
0.038
0.016
0.016
-0.008
0.036
0.081
0.004
0.021
0.002
0.093
0.032
0.037
-0.006
0.070
-0.006
-0.001
0.027
0.083
0.078
-0.030
0.066
-0.016
-0.070
0.040
-0.010
-0.019
0.024
0.129
0.025
0.055
0.018
0.034
0.087
0.006
0.000
-0.016
-0.002
0.101
0.005
0.105
0.067
-0.036
0.047
0.038
0.067
0.023
0.004
-0.007
0.074
0.057
0.042
0.059
0.048
0.005
0.092
0.043
0.061
-0.068
-0.020
0.039
0.080
0.050
0.031
0.055
-0.069
0.017
0.064
0.036
-0.012
0.081
0.031
-0.015
-0.045
0.018
0.028
0.118
0.004
0.019
0.020
0.013
0.046
0.014
0.004
0.005
0.071
0.063
0.024
0.024
0.072
0.123
0.047
0.042
0.042
0.045
-0.030
0.023
0.022
-0.061
0.058
0.094
0.044
0.008
0.084
-0.016
-0.015
0.093
0.114
0.013
-0.050
0.042
0.024
0.076
0.026
-0.049
0.015
0.011
-0.003
0.041
0.044
0.017
0.034
0.015
0.035
0.020
0.045
-0.034
0.069
0.058
-0.060
0.057
-0.014
-0.031
0.003
0.030
0.004
0.012
0.043
0.071
0.001
0.051
0.024
0.060
-0.031
0.020
-0.004
0.065
0.044
0.024
0.057
0.079
0.003
0.039
0.021
0.003
0.069
0.022
0.031
0.009
-0.037
0.014
0.107
0.096
-0.003
0.005
0.041
0.042
-0.028
-0.001
0.041
-0.006
0.131
0.007
-0.043
0.059
-0.022
-0.024
0.049
-0.007
0.100
0.010
-0.005
0.107
-0.018
0.042
0.021
0.052
0.027
0.036
0.032
-0.047
0.104
-0.020
0.020
0.029
0.035
-0.039
0.028
0.082
0.029
0.009
0.038
0.076
0.069
-0.039
-0.033
0.065
0.066
0.029
0.073
0.019
-0.021
-0.029
0.039
0.019
0.098
0.030
0.053
0.009
0.022
0.122
0.049
0.016
-0.083
0.080
0.025
0.079
0.043
0.062
-0.055
0.064
0.092
0.079
0.010
0.006
-0.053
0.041
-0.013
-0.023
0.133
0.065
0.007
0.143
-0.010
-0.040
0.052
0.051
-0.034
0.055
0.050
-0.002
0.130
0.097
0.054
-0.038
0.020
-0.077
0.111
0.056
0.085
-0.018
-0.074
0.082
-0.035
0.042
0.044
0.055
0.074
0.005
0.061
0.023
0.017
0.036
0.058
0.047
0.003
0.049
0.055
0.087
0.043
-0.075
0.078
0.050
0.024
-0.024
0.010
0.072
0.015
0.006
0.014
0.043
0.008
-0.011
-0.035
0.193
0.053
0.029
-0.095
0.053
0.045
0.067
0.008
-0.070
0.040
0.033
0.100
0.063
-0.027
0.006
0.023
-0.011
-0.009
0.043
-0.045
0.040
0.005
0.000
0.079
0.056
0.038
0.059
-0.048
-0.007
0.108
-0.000
0.004
-0.003
-0.005
0.051
-0.037
0.042
0.045
-0.016
0.062
0.019
0.018
0.018
0.067
0.083
-0.047
0.054
0.041
0.111
0.038
-0.013
-0.018
-0.019
0.116
0.015
-0.010
-0.025
0.096
0.062
-0.015
-0.017
0.101
0.094
0.042
-0.009
0.050
0.029
-0.010
0.066
0.018
-0.057
0.127
0.009
0.047
-0.009
0.034
-0.041
0.107
0.032
-0.001
0.012
0.064
0.106
0.007
0.038
-0.001
0.136
0.039
0.005
-0.017
0.050
0.029
0.017
0.046
0.063
0.069
-0.050
0.004
0.077
0.007
-0.007
0.117
0.075
-0.011
-0.014
0.072
0.046
0.116
0.065
0.058
0.037
0.012
-0.055
0.053
0.072
0.030
0.002
0.095
0.035
0.003
-0.007
-0.032
0.036
0.050
-0.010
-0.018
0.043
0.061
0.097
0.067
0.037
-0.048
-0.015
-0.012
0.067
-0.048
0.121
0.020
0.044
0.060
-0.023
-0.010
0.065
-0.020
0.045
0.019
0.041
-0.015
0.102
0.087
-0.015
0.058
-0.060
0.079
0.042
0.011
0.081
-0.103
0.037
0.090
0.029
0.008
0.015
0.063
0.006
0.039
0.060
0.023
0.026
0.066
0.041
0.032
0.057
-0.056
0.045
0.031
0.137
-0.026
0.103
-0.022
0.113
0.032
-0.013
0.080
-0.007
-0.037
0.013
0.130
0.005
-0.020
0.029
-0.057
0.033
0.013
0.017
-0.002
0.061
0.168
0.026
-0.005
-0.088
0.150
0.031
0.092
0.011
0.104
0.059
0.014
0.077
0.070
-0.025
-0.013
0.029
0.045
0.056
0.077
0.062
0.059
0.010
0.007
0.019
0.076
-0.007
0.055
-0.030
0.078
-0.008
0.044
0.032
0.001
0.062
0.036
0.028
0.009
0.028
0.005
0.065
0.016
-0.002
0.091
0.083
-0.006
0.132
-0.001
0.042
-0.001
0.044
0.012
0.047
-0.045
0.103
0.118
0.023
0.038
0.024
0.003
0.028
-0.011
0.097
0.027
0.049
-0.004
-0.032
-0.016
0.026
0.038
0.056
0.050
-0.055
0.046
-0.014
0.005
0.076
0.019
0.067
0.085
0.010
0.091
-0.039
-0.031
0.116
0.030
0.061
-0.055
0.041
0.015
0.040
0.076
0.005
0.016
0.054
-0.019
0.027
0.069
0.062
0.027
-0.023
-0.022
-0.086
0.054
0.087
0.051
0.030
0.021
0.014
0.027
0.099
0.033
0.018
-0.010
0.038
0.047
0.117
-0.011
0.013
-0.040
0.045
0.072
0.057
-0.062
0.045
-0.023
0.062
-0.004
0.020
0.006
-0.016
0.059
0.034
0.033
0.059
-0.020
-0.011
0.010
0.055
0.033
0.034
0.045
0.066
-0.045
0.111
-0.001
-0.017
0.058
-0.000
-0.043
0.012
0.022
-0.014
0.042
0.052
0.000
0.184
-0.051
-0.019
0.060
0.035
0.014
0.047
0.067
0.069
0.088
-0.055
0.078
0.087
-0.003
-0.004
-0.002
0.056
-0.007
0.077
0.065
-0.014
0.010
0.024
-0.039
0.086
-0.021
0.020
0.037
0.086
-0.029
0.058
0.001
0.054
0.062
-0.007
0.024
-0.107
0.065
0.031
0.148
0.015
0.062
0.030
0.084
0.015
-0.044
0.009
0.039
0.068
0.050
0.075
0.013
0.035
0.000
-0.012
0.077
0.055
0.005
0.071
-0.015
-0.076
0.016
0.078
0.063
0.045
0.061
0.020
0.054
0.049
-0.007
0.056
-0.000
-0.002
0.049
0.038
0.078
0.079
0.040
0.011
-0.012
0.031
0.063
0.110
0.057
0.039
0.034
0.008
0.026
0.005
0.076
0.091
0.017
-0.018
-0.088
0.010
0.126
0.064
0.027
0.044
-0.021
0.056
-0.023
0.072
-0.019
0.041
0.042
0.064
-0.040
-0.002
0.010
0.034
-0.032
0.085
0.063
0.038
0.024
0.071
0.057
-0.097
0.005
0.014
0.063
0.085
0.082
0.058
0.026
-0.083
0.054
0.035
0.025
0.013
0.066
0.080
0.062
-0.012
-0.058
0.060
-0.006
0.064
0.068
0.046
0.015
-0.005
0.034
0.044
-0.003
0.041
-0.035
0.003
0.068
0.015
-0.004
0.001
0.052
-0.036
0.106
0.010
-0.003
-0.012
0.049
0.065
0.005
0.014
0.153
-0.035
0.012
0.033
0.068
-0.014
0.045
0.004
0.024
0.053
0.126
0.052
0.011
-0.029
0.097
-0.048
0.048
0.050
0.059
0.108
-0.040
0.016
0.075
-0.022
0.001
0.040
0.011
0.101
0.051
-0.072
-0.010
0.004
-0.016
0.091
0.071
0.051
-0.029
0.042
-0.016
0.028
0.058
0.069
0.075
0.020
0.035
0.002
0.054
0.040
0.015
-0.009
0.070
0.133
0.058
-0.045
0.024
0.017
0.114
0.010
0.073
0.038
0.037
0.012
-0.026
0.021
-0.034
0.076
0.025
0.003
0.018
0.001
-0.023
0.097
-0.017
0.014
-0.001
0.076
-0.005
0.058
0.029
0.076
0.046
0.015
0.014
0.093
-0.008
0.020
0.021
0.093
-0.088
-0.054
0.031
0.127
-0.112
0.038
0.007
0.024
-0.061
0.099
0.074
0.036
-0.074
0.070
0.021
0.028
-0.013
0.079
0.074
0.085
0.025
0.021
-0.046
0.061
0.074
0.054
-0.000
-0.057
0.101
0.031
0.042
-0.094
0.090
0.043
0.037
0.096
0.072
-0.017
0.107
-0.005
0.030
-0.033
0.059
0.010
0.018
0.013
0.074
0.037
0.072
0.016
0.023
-0.026
0.023
0.048
0.110
-0.064
0.063
0.031
0.028
0.023
0.055
0.041
-0.033
0.077
0.002
-0.024
0.106
0.023
0.062
-0.007
0.025
0.011
0.012
0.030
0.032
-0.008
0.119
0.020
0.089
-0.003
0.072
0.024
-0.040
0.049
0.007
0.100
0.019
0.043
0.026
0.027
0.077
-0.032
0.087
0.036
0.023
-0.001
0.039
0.051
0.061
0.056
0.086
-0.013
-0.052
-0.011
0.064
0.066
0.048
-0.048
0.104
0.097
-0.039
-0.079
0.035
0.006
0.114
0.025
0.008
0.038
0.106
-0.001
-0.036
0.026
-0.011
0.125
0.059
-0.035
0.042
-0.024
0.041
0.019
0.053
0.106
-0.031
0.038
0.063
0.093
-0.005
0.091
0.036
0.041
0.069
-0.055
-0.013
0.057
0.078
0.033
-0.060
-0.004
-0.004
0.085
0.078
0.043
-0.006
0.001
0.037
0.081
0.020
-0.092
0.025
-0.028
0.052
0.049
0.024
0.039
0.036
0.030
0.076
0.011
-0.021
-0.010
0.033
0.135
-0.023
0.016
0.036
0.001
0.008
0.056
0.102
-0.007
0.054
-0.021
0.036
0.096
0.087
-0.038
-0.017
0.018
-0.027
0.070
-0.061
-0.032
0.045
0.044
0.032
0.027
-0.104
0.024
0.038
0.042
0.045
0.037
0.030
0.096
0.006
0.009
-0.060
-0.021
0.041
0.160
0.025
-0.008
0.005
0.042
0.014
0.055
0.028
0.064
0.006
0.055
0.008
-0.022
0.058
-0.029
0.089
0.051
0.039
0.016
0.017
0.090
0.074
0.019
-0.006
-0.059
0.035
0.082
0.039
-0.009
-0.051
0.042
-0.024
0.022
0.028
0.084
0.137
0.054
-0.046
-0.013
0.064
0.039
0.098
0.060
0.065
-0.053
-0.022
0.016
0.086
0.053
-0.004
0.011
0.002
0.077
0.057
0.062
-0.013
-0.006
0.096
0.054
0.056
0.032
0.063
0.043
-0.030
-0.048
0.101
0.056
-0.007
0.036
0.082
0.067
-0.025
-0.008
-0.083
0.040
0.022
0.002
0.062
0.096
-0.054
0.080
0.016
-0.000
0.007
-0.014
0.090
-0.013
0.035
0.107
-0.035
0.054
0.025
0.070
-0.039
0.060
0.006
0.051
-0.042
0.018
-0.019
0.053
0.009
0.056
-0.042
0.077
-0.013
0.003
0.052
0.148
-0.017
0.024
0.055
-0.012
0.063
0.003
0.045
0.030
-0.032
0.057
0.084
0.055
0.018
-0.019
0.014
0.029
-0.037
0.114
-0.013
-0.040
0.012
0.045
0.053
0.039
-0.001
0.017
0.063
0.061
0.061
0.048
-0.014
0.030
0.077
0.072
-0.065
0.064
0.057
0.079
0.030
0.026
-0.066
0.098
0.020
-0.003
0.103
-0.009
0.067
0.052
-0.036
0.066
0.021
0.065
0.067
-0.030
-0.032
0.040
0.078
0.077
0.070
0.011
0.041
0.064
0.045
0.013
0.026
0.098
0.055
0.045
-0.071
0.036
0.087
0.016
0.091
0.004
0.040
0.038
0.045
0.026
0.117
0.051
0.027
-0.027
0.078
0.055
0.065
0.034
0.012
0.030
-0.104
0.087
0.061
0.029
0.065
0.090
0.008
-0.032
0.013
0.049
0.024
0.044
-0.002
0.068
0.115
-0.059
-0.048
0.106
0.077
-0.022
0.086
-0.066
0.087
0.094
0.090
-0.070
0.060
0.069
0.004
0.027
0.053
0.061
-0.002
0.086
0.005
0.108
-0.016
0.037
0.012
0.027
0.077
0.002
-0.031
-0.069
0.018
0.120
0.089
-0.072
-0.023
0.080
0.081
0.070
0.033
0.134
-0.044
0.065
0.067
-0.076
0.050
0.037
-0.009
0.100
0.051
0.026
0.055
0.023
0.014
-0.027
0.035
0.032
0.065
0.035
0.075
0.070
0.002
-0.051
-0.060
0.026
0.170
0.051
-0.025
-0.020
0.063
0.022
0.025
0.014
-0.043
0.009
0.093
-0.034
0.092
0.020
0.020
0.099
0.051
0.009
0.048
0.013
0.064
0.002
0.002
-0.033
0.094
0.030
0.003
0.004
0.096
0.021
-0.005
0.000
0.021
-0.009
0.042
-0.024
-0.024
0.048
0.044
0.035
-0.052
0.053
0.044
0.013
0.073
0.041
0.018
0.016
0.032
0.058
-0.034
-0.065
0.069
0.014
-0.010
0.005
0.053
0.029
0.087
0.007
0.032
0.015
0.062
-0.014
-0.026
0.056
0.029
0.080
-0.010
-0.063
0.096
0.016
-0.008
-0.008
-0.008
0.048
-0.020
0.061
0.098
-0.026
-0.040
0.055
0.037
-0.043
0.094
0.041
0.150
0.014
-0.031
-0.011
0.068
0.111
-0.012
0.061
-0.006
-0.035
0.059
0.039
0.018
0.025
0.000
0.014
0.017
-0.038
0.061
0.129
0.041
0.000
0.020
0.074
0.012
0.041
0.077
0.051
0.018
0.018
-0.016
0.054
0.132
-0.012
-0.018
0.095
0.003
-0.002
0.001
0.004
0.028
0.038
0.089
-0.004
0.006
0.006
0.016
0.037
0.084
0.029
-0.014
-0.092
0.111
0.034
0.001
-0.006
-0.037
0.125
0.115
0.016
0.033
0.002
0.055
-0.082
0.038
0.072
0.066
0.052
0.009
0.032
0.020
0.012
0.024
0.005
0.063
0.024
0.014
0.043
-0.017
-0.008
0.091
-0.054
-0.018
-0.014
0.022
0.043
-0.010
-0.024
0.047
-0.005
0.047
0.034
0.009
0.001
0.054
0.067
-0.025
-0.010
-0.005
0.087
0.070
0.016
0.060
0.010
0.049
-0.069
0.050
-0.068
0.076
0.059
0.040
0.068
0.005
-0.031
0.070
-0.053
0.038
-0.023
0.030
0.037
0.052
0.082
0.031
-0.015
-0.009
-0.020
0.040
0.038
0.070
0.044
0.007
0.038
0.031
0.048
0.003
0.101
-0.009
0.056
0.034
-0.113
0.041
0.029
0.064
0.039
0.004
0.053
0.107
-0.011
-0.036
-0.004
0.094
0.063
0.057
0.027
-0.043
-0.057
0.064
0.010
0.078
0.081
-0.004
-0.048
0.032
0.076
0.046
0.045
0.032
0.020
0.035
0.088
0.032
0.030
-0.026
0.063
0.082
-0.016
0.061
0.026
0.065
0.045
0.004
0.024
0.062
0.030
-0.006
-0.028
0.018
0.074
0.045
0.028
-0.009
0.002
-0.061
0.033
0.053
0.019
0.074
0.064
0.009
-0.003
-0.023
0.078
0.038
-0.018
0.084
0.010
0.099
0.127
-0.022
-0.039
0.041
-0.026
0.071
-0.020
0.088
-0.007
0.138
-0.038
0.019
0.017
0.031
0.017
0.052
0.086
0.095
-0.033
0.026
-0.034
0.043
-0.015
0.016
0.076
0.130
-0.080
-0.031
-0.027
0.111
0.066
0.014
0.031
-0.050
-0.044
0.079
0.103
0.077
0.009
-0.033
0.054
0.029
0.059
0.039
0.103
0.056
0.072
-0.040
0.014
0.024
0.077
0.061
0.036
-0.037
-0.006
0.106
0.034
-0.045
0.066
0.104
0.004
-0.013
-0.017
0.076
-0.027
0.073
-0.020
0.028
0.017
0.042
0.053
0.089
0.026
0.001
-0.015
-0.025
0.018
0.026
0.059
0.056
-0.029
0.060
-0.031
0.082
0.060
0.010
-0.054
0.037
0.015
0.092
0.074
0.034
-0.018
0.043
0.074
0.012
0.000
0.063
0.041
-0.011
0.060
0.000
0.020
0.091
0.011
0.017
0.016
-0.014
-0.040
-0.012
0.035
0.098
-0.047
0.079
-0.007
0.049
-0.020
0.070
0.091
0.009
-0.046
-0.000
0.071
0.093
0.090
-0.026
0.046
0.028
0.042
-0.047
0.003
0.046
0.057
0.051
0.029
-0.003
0.078
-0.004
-0.041
0.043
0.036
0.114
-0.050
0.058
0.024
0.067
-0.011
0.015
0.044
0.078
-0.052
0.018
0.073
0.058
0.161
-0.053
-0.053
0.023
0.093
0.051
0.046
0.033
0.033
0.115
0.017
0.037
0.025
0.045
0.092
0.038
0.038
0.002
-0.012
0.127
0.027
0.058
0.077
0.010
-0.021
0.003
0.110
-0.029
0.057
0.032
0.020
-0.031
0.096
0.103
-0.073
0.059
0.007
0.056
-0.044
0.085
0.017
0.066
0.028
0.011
-0.052
0.118
0.031
0.072
-0.033
0.050
-0.029
0.114
0.049
-0.059
0.007
0.088
-0.030
0.042
0.050
0.043
0.041
0.012
0.084
0.002
0.019
0.055
0.024
0.021
-0.012
-0.007
0.077
-0.011
0.035
0.077
-0.002
0.103
0.020
-0.028
0.006
0.044
0.007
-0.043
0.081
0.098
0.045
0.012
0.029
0.099
0.031
0.022
-0.035
0.001
0.045
0.058
0.009
0.026
0.120
-0.015
0.000
0.007
0.091
0.056
-0.027
-0.029
0.069
0.099
-0.003
0.018
0.011
0.057
0.023
0.077
0.015
-0.068
0.039
0.085
0.025
-0.016
-0.008
0.038
0.118
0.048
0.120
0.012
0.035
0.011
0.028
0.095
0.097
-0.027
0.038
0.085
0.059
-0.024
0.017
0.076
0.146
0.004
-0.012
-0.006
-0.023
0.021
0.073
0.009
0.076
-0.016
0.036
0.031
0.006
0.043
-0.017
-0.015
0.095
-0.010
-0.024
0.069
-0.010
-0.020
0.056
0.093
0.089
0.072
-0.062
-0.042
0.055
0.023
-0.023
0.088
-0.017
0.006
0.067
-0.083
-0.021
0.059
0.043
0.128
-0.001
0.003
-0.064
0.130
0.050
0.048
0.048
0.041
-0.037
-0.071
0.039
0.069
0.043
-0.026
0.012
0.089
-0.002
-0.021
0.075
0.051
-0.011
0.019
0.056
-0.008
-0.005
0.002
0.108
0.012
-0.012
0.003
-0.084
0.034
-0.040
0.107
0.100
-0.016
-0.023
0.046
0.036
0.076
0.002
0.042
0.044
0.077
0.063
-0.013
0.003
0.054
0.061
0.010
0.009
-0.027
0.013
-0.013
0.039
0.068
0.108
-0.023
-0.033
0.095
0.012
-0.015
0.111
-0.006
0.043
0.124
0.080
-0.031
-0.019
0.011
0.052
0.091
-0.013
0.050
0.084
0.045
0.024
-0.025
-0.008
-0.042
0.081
0.069
0.032
0.008
-0.023
-0.010
0.117
0.062
0.047
-0.030
0.034
-0.018
0.011
0.031
0.118
-0.122
-0.022
0.032
0.039
0.037
0.061
0.065
0.022
-0.018
0.074
0.124
-0.021
-0.012
0.018
-0.007
0.043
0.097
0.090
0.006
-0.016
-0.043
0.064
0.067
-0.009
0.052
0.098
0.103
-0.022
0.041
-0.055
0.022
0.067
-0.058
0.030
0.047
-0.029
0.075
0.054
0.049
-0.036
0.020
0.004
0.078
-0.024
0.108
-0.032
0.089
0.029
0.049
0.011
0.066
0.012
0.032
0.101
0.049
0.003
0.005
0.084
0.075
0.030
-0.104
0.036
-0.031
0.061
0.053
0.074
-0.065
0.005
0.063
0.084
-0.014
-0.017
0.044
0.065
0.058
0.080
-0.027
-0.015
0.032
0.066
0.100
0.027
0.006
0.004
-0.012
0.080
0.049
0.009
0.054
0.083
0.034
-0.080
0.018
-0.008
0.142
0.038
-0.053
-0.002
0.022
0.041
0.065
0.042
-0.009
-0.016
0.050
-0.039
-0.001
0.132
0.012
-0.051
0.066
0.097
0.029
-0.009
-0.004
0.023
-0.020
0.043
0.023
0.055
0.028
0.073
-0.011
0.018
0.073
0.055
-0.094
-0.026
0.087
0.053
0.044
-0.009
-0.002
0.001
0.051
0.072
0.032
0.109
-0.007
0.009
-0.020
0.064
-0.046
0.040
0.033
0.041
0.090
0.004
0.020
0.085
0.039
-0.026
0.077
0.019
-0.012
0.007
0.069
0.021
0.003
-0.038
0.062
0.082
0.064
0.077
0.025
0.056
0.072
0.043
-0.063
0.045
0.157
-0.015
0.018
-0.029
0.028
0.112
0.053
-0.037
-0.026
0.030
0.061
0.016
-0.006
0.122
0.169
0.019
-0.044
0.109
-0.008
0.081
-0.071
0.049
0.124
-0.001
0.028
0.015
0.049
0.093
-0.000
0.060
0.057
0.049
-0.011
0.001
0.084
0.022
0.070
-0.004
0.057
0.037
0.006
0.092
-0.100
0.126
0.024
0.003
0.072
-0.054
0.021
0.039
0.060
0.089
0.038
0.100
0.014
-0.009
0.060
0.044
-0.010
0.031
0.024
0.019
0.044
0.058
-0.027
-0.002
0.089
0.040
0.046
-0.015
0.070
-0.032
0.121
0.038
0.078
0.008
0.062
0.056
-0.007
-0.011
0.029
0.158
0.041
0.053
-0.031
-0.056
0.010
0.059
0.086
0.020
0.018
0.014
0.094
0.057
0.000
0.039
0.045
0.008
-0.024
-0.033
0.139
0.087
-0.008
-0.040
0.026
-0.020
-0.024
0.025
0.065
0.033
0.024
-0.020
0.098
0.081
0.031
0.087
0.028
-0.024
-0.024
0.000
0.078
-0.004
0.048
0.074
0.012
0.042
-0.008
0.060
-0.028
0.017
-0.003
0.059
0.054
0.011
0.104
0.083
-0.013
-0.026
0.032
0.026
0.045
0.035
-0.005
0.002
0.104
0.012
0.062
-0.039
-0.052
0.030
0.016
0.036
0.029
-0.011
0.075
-0.012
-0.019
0.073
-0.019
0.065
0.059
-0.021
-0.039
0.053
0.057
0.014
0.026
0.105
0.060
-0.021
0.033
0.044
0.007
0.019
-0.018
-0.034
0.049
0.015
-0.021
0.129
0.128
0.110
-0.063
-0.053
0.048
0.035
-0.022
-0.031
0.034
0.077
0.094
0.052
0.028
-0.078
-0.061
0.070
0.128
-0.039
0.028
0.049
0.027
0.023
0.048
-0.084
0.039
0.137
0.004
-0.023
0.136
-0.041
0.105
-0.033
0.018
0.112
0.066
0.038
-0.012
0.057
0.003
0.034
0.002
0.003
0.051
0.068
0.101
0.024
0.042
-0.005
0.004
-0.012
0.078
0.012
0.044
0.005
0.102
0.043
0.046
-0.081
0.022
0.063
0.033
0.090
-0.017
0.013
-0.004
0.008
0.024
0.020
0.009
0.012
0.067
0.060
0.053
0.100
-0.016
-0.061
0.082
0.012
0.008
0.082
0.070
0.023
0.080
-0.048
0.011
-0.072
0.026
0.103
0.051
-0.035
0.063
-0.003
0.056
0.022
0.023
0.059
0.124
0.002
-0.013
0.002
0.002
0.081
0.107
0.041
-0.006
0.032
0.058
0.012
0.023
-0.021
0.047
0.021
0.027
-0.013
-0.008
0.069
0.036
0.065
-0.034
0.009
0.050
0.019
0.010
0.077
0.026
0.047
-0.055
0.075
0.010
0.006
-0.016
0.037
0.044
-0.074
0.066
0.074
-0.048
0.082
0.079
0.053
-0.014
-0.016
0.008
0.024
0.078
0.032
0.007
-0.046
0.040
0.061
0.052
0.024
0.039
0.040
0.014
0.080
0.076
-0.011
0.025
0.019
0.010
0.035
0.055
0.050
0.035
0.074
0.055
0.028
-0.008
0.114
0.001
-0.016
0.023
0.062
-0.086
-0.049
0.080
0.079
-0.037
-0.018
-0.007
0.072
0.102
0.065
0.028
0.023
-0.046
0.125
-0.014
0.007
0.095
0.006
0.037
0.081
0.049
-0.005
0.017
0.068
0.031
0.041
0.030
-0.028
0.064
0.040
0.020
0.017
-0.032
0.133
0.015
0.089
0.038
0.008
0.011
-0.033
0.033
0.057
0.051
0.092
-0.005
0.008
0.085
0.074
0.018
0.041
0.044
-0.085
0.003
0.042
0.027
0.035
0.040
0.128
0.059
0.043
-0.052
0.009
0.049
0.034
0.012
0.039
0.063
0.001
0.046
-0.019
0.116
-0.056
0.015
-0.025
0.076
0.086
0.053
0.047
-0.023
0.015
0.031
0.044
0.090
0.027
-0.045
0.017
0.072
0.067
-0.020
-0.034
0.028
0.044
0.018
0.048
-0.005
0.062
-0.028
0.016
0.047
-0.008
0.090
0.087
-0.057
-0.017
0.026
0.061
0.094
-0.027
0.016
0.022
0.028
0.030
0.079
0.088
0.058
0.030
0.000
-0.023
0.027
0.101
-0.009
0.006
0.069
0.002
0.086
0.014
0.040
0.075
0.017
0.041
0.031
-0.058
-0.041
0.092
-0.006
0.096
0.052
-0.042
0.079
0.029
0.075
0.003
-0.032
0.141
-0.090
0.011
0.031
0.088
0.021
0.066
-0.052
0.066
0.052
0.050
0.070
0.091
-0.023
0.057
0.057
-0.009
0.050
0.084
0.049
0.110
-0.081
-0.020
0.058
0.088
0.036
0.038
0.100
0.044
0.019
0.029
-0.046
0.074
0.042
0.029
-0.000
0.085
0.099
0.052
0.035
-0.054
-0.031
0.047
0.102
0.061
0.030
0.049
0.001
0.028
0.048
0.074
-0.046
0.048
0.049
-0.005
0.108
-0.059
0.057
-0.014
0.056
0.033
0.003
0.029
0.109
0.009
0.098
0.053
-0.018
0.015
-0.052
0.101
0.023
0.006
0.025
0.011
0.072
0.052
0.021
-0.072
0.006
0.140
0.019
0.036
0.019
-0.107
0.020
0.117
0.055
0.007
0.101
0.032
-0.027
0.050
-0.057
0.035
0.008
-0.017
-0.010
0.005
0.126
0.152
0.046
-0.072
-0.002
0.003
0.010
-0.024
0.028
0.067
0.179
0.095
0.068
0.055
-0.008
0.035
-0.038
0.036
0.084
-0.039
0.051
0.076
0.027
0.014
0.080
0.018
-0.048
0.033
0.069
0.013
-0.020
0.000
0.065
-0.015
0.044
-0.048
0.064
0.089
0.018
0.047
0.071
-0.004
-0.018
0.101
0.057
0.011
0.028
0.053
0.008
0.023
0.039
0.024
0.042
0.022
0.060
0.102
-0.016
0.032
0.050
-0.002
0.113
0.032
0.005
0.111
0.077
-0.034
-0.043
0.079
0.066
0.028
-0.040
0.019
0.094
-0.002
0.028
0.021
0.009
0.074
0.120
-0.071
-0.019
0.004
0.055
-0.037
0.043
-0.012
0.095
-0.032
0.013
0.079
-0.029
0.042
0.058
-0.035
0.112
-0.030
0.064
-0.085
0.029
0.044
0.087
0.055
0.058
0.072
-0.067
0.058
-0.037
0.015
0.035
0.036
0.073
0.051
-0.008
0.050
0.037
0.022
0.004
0.028
0.033
0.001
0.038
0.125
0.045
0.004
0.010
0.063
-0.004
-0.011
0.075
-0.005
0.004
0.051
0.022
-0.001
0.031
0.067
0.005
-0.024
0.034
0.068
0.068
0.056
0.012
0.076
0.053
-0.023
0.053
-0.013
0.068
0.017
0.035
-0.012
0.039
0.017
0.132
0.004
0.103
-0.030
0.003
-0.030
0.040
0.102
0.113
-0.032
-0.018
0.065
0.048
-0.004
0.044
0.003
0.056
0.123
0.026
-0.011
-0.010
0.012
0.040
0.007
0.023
0.001
0.025
0.043
0.002
-0.005
0.035
-0.044
0.056
0.038
0.019
-0.012
-0.093
-0.016
0.047
0.048
0.036
-0.026
0.011
-0.062
0.089
0.088
0.018
0.026
-0.016
0.006
0.013
0.073
-0.030
0.083
-0.029
-0.010
0.057
-0.020
-0.002
0.043
0.037
0.019
-0.064
-0.083
-0.007
0.072
0.089
0.042
-0.034
-0.051
-0.044
0.094
0.088
0.057
-0.017
0.067
-0.000
-0.028
0.037
-0.088
-0.188
-0.602
-0.368
-0.210
-0.105
-0.321
-0.900
-1.084
-0.853
-0.925
-0.812
-1.466
-0.648
-0.429
0.171
0.527
0.199
-0.355
-0.695
-0.838
-0.720
-0.372
-0.313
-0.475
-0.341
0.586
-0.531
-2.486
-3.732
-3.022
-2.715
-2.712
-3.528
-3.515
-3.636
-2.651
2.141
3.746
0.988
-1.727
-3.341
-2.767
2.076
4.120
4.456
4.155
1.536
1.278
1.510
0.165
0.911
2.426
2.922
2.929
2.782
2.590
2.452
2.244
1.547
0.877
0.723
0.865
0.471
-1.124
-2.417
-2.107
-1.371
-1.078
-1.120
-0.816
-0.700
-0.739
-0.635
-0.495
0.007
0.170
0.228
0.261
0.273
0.280
0.517
0.707
1.109
0.950
1.193
1.270
1.372
1.936
2.494
2.098
1.586
1.633
2.232
2.435
2.390
2.644
2.891
2.610
2.139
2.198
2.034
2.130
2.153
1.843
1.882
1.895
1.600
1.566
1.237
1.155
1.099
1.005
0.768
0.427
-0.042
0.037
0.163
0.128
0.098
-0.147
-0.194
-0.288
-0.217
-0.377
-0.740
-0.654
-0.235
-0.255
-0.092
-0.455
-0.942
-1.015
-1.094
-0.438
-0.301
-0.103
-0.081
-0.730
-0.883
-0.895
-0.687
-0.588
-0.604
-0.681
-0.577
-0.659
-0.536
-0.455
-0.472
-0.429
-0.408
-0.399
-0.532
-0.492
-0.488
-0.493
-0.487
-0.279
-0.391
-0.158
-0.086
-0.086
-0.050
0.070
0.038
-0.088
-0.215
0.013
0.271
0.122
0.142
0.210
0.208
0.181
0.046
0.002
0.224
0.348
0.468
0.288
0.151
0.157
0.197
0.109
0.263
0.360
0.277
0.041
0.215
0.194
0.140
0.065
0.041
0.132
0.070
0.093
0.082
0.024
-0.020
0.005
0.007
0.111
0.014
0.031
0.079
-0.060
0.023
-0.000
0.168
0.235
0.196
0.169
0.270
0.218
0.151
0.231
0.332
0.198
0.317
0.328
0.348
0.340
0.265
0.250
0.247
0.195
0.148
0.249
0.275
0.151
0.214
0.145
0.170
0.033
0.058
0.099
0.100
0.129
0.030
-0.031
-0.014
0.006
-0.039
0.015
-0.068
-0.185
-0.124
-0.278
-0.507
-0.268
-0.271
-0.169
-0.237
-0.276
-0.300
-0.177
-0.307
-0.287
-0.308
-0.247
-0.245
-0.296
-0.387
-0.237
-0.188
-0.145
0.103
-0.062
-0.224
-0.211
-0.275
-0.219
-0.181
-0.283
-0.343
-0.376
-0.469
-0.392
-0.161
-0.031
-0.113
-0.152
0.123
-0.069
-0.023
-0.069
-0.071
0.132
0.102
0.251
0.353
0.551
1.067
0.889
0.561
0.472
0.238
0.305
0.338
0.395
0.376
0.359
0.257
0.234
0.053
0.027
-0.003
-0.043
0.000
-0.000
0.033
0.012
0.044
-0.005
0.199
0.116
0.171
0.143
0.252
0.313
0.296
0.265
0.292
0.127
0.112
0.003
0.045
0.086
0.060
0.083
0.037
-0.133
-0.082
-0.061
-0.112
-0.024
-0.129
-0.087
-0.045
-0.046
-0.124
-0.289
-0.162
-0.125
-0.022
0.005
-0.122
-0.210
-0.347
-0.214
-0.112
0.137
0.251
0.196
0.036
-0.079
-0.093
-0.052
0.002
0.138
0.066
0.090
0.080
0.011
0.024
0.003
-0.047
-0.019
0.014
-0.100
-0.161
-0.137
-0.021
-0.027
-0.086
0.036
0.138
0.101
0.134
0.062
0.119
0.104
0.092
0.029
-0.000
0.050
0.210
0.145
0.181
0.166
0.052
0.136
0.168
0.120
0.135
0.154
0.129
0.114
0.028
0.162
0.156
0.172
0.097
0.222
0.099
0.051
0.038
-0.014
0.040
0.031
0.078
0.060
-0.072
-0.018
-0.020
0.036
0.009
-0.002
0.057
-0.021
-0.007
0.009
0.035
-0.027
-0.047
0.014
0.107
-0.039
-0.046
-0.102
-0.028
0.091
0.041
-0.013
-0.016
0.001
-0.085
-0.013
-0.047
-0.069
0.077
-0.018
-0.035
-0.018
0.028
0.009
0.015
0.036
0.073
-0.086
0.028
-0.008
0.081
0.038
0.101
-0.012
0.027
0.078
0.052
-0.027
0.005
0.081
0.029
0.041
-0.020
-0.002
0.071
0.053
-0.008
0.104
0.009
0.037
-0.044
0.089
-0.001
0.037
0.074
0.048
0.005
0.055
-0.036
-0.009
-0.010
0.042
0.128
0.059
-0.028
0.007
0.072
0.016
0.074
0.016
0.112
0.069
0.001
-0.029
0.104
0.081
0.092
0.014
-0.043
0.107
0.064
0.010
0.062
-0.015
-0.024
0.061
0.019
0.063
0.071
0.112
0.021
0.046
0.033
0.112
0.052
-0.050
0.071
-0.031
-0.021
0.023
0.046
-0.036
-0.024
-0.028
0.058
-0.053
-0.058
0.016
-0.050
0.096
-0.037
0.033
-0.041
-0.106
-0.125
-0.074
-0.293
-0.334
-0.126
-0.084
-0.055
0.018
0.025
0.171
0.205
0.186
0.081
0.060
0.027
0.129
0.181
0.273
0.246
0.270
0.208
0.027
-0.026
0.063
-0.034
-0.021
-0.079
-0.200
-0.042
-0.213
-0.075
-0.060
-0.021
-0.077
-0.040
-0.024
0.046
0.048
0.079
-0.007
0.020
0.133
-0.013
0.069
0.025
0.077
0.041
0.006
0.050
0.084
0.062
0.070
0.077
-0.008
-0.033
0.023
0.081
0.157
0.093
0.087
0.082
0.002
0.044
0.038
0.052
0.087
0.059
0.134
0.162
0.140
0.045
-0.002
0.006
0.149
0.158
0.081
0.055
0.046
0.035
0.060
0.081
0.162
0.031
-0.062
0.116
-0.020
0.144
0.061
-0.024
0.009
-0.018
-0.011
0.107
-0.048
-0.031
-0.007
0.063
-0.033
0.037
0.016
-0.075
0.067
0.018
-0.048
0.035
0.003
0.013
-0.082
-0.004
-0.058
0.026
0.033
-0.058
0.034
-0.005
-0.094
0.110
0.039
0.014
0.004
0.027
0.133
-0.029
-0.008
0.066
0.013
0.055
0.072
-0.064
0.073
0.056
0.014
0.011
0.014
0.044
0.071
-0.074
0.124
0.064
-0.028
0.004
0.007
0.021
0.048
0.024
0.085
0.036
0.057
0.031
-0.081
-0.032
0.046
0.054
0.027
0.028
0.025
0.080
0.030
-0.063
0.007
0.058
0.063
-0.023
0.029
0.056
0.029
0.022
0.030
0.029
0.086
0.059
0.039
0.054
0.043
0.096
-0.016
0.019
0.005
0.062
0.061
0.002
0.051
0.035
-0.019
0.022
0.104
0.025
-0.004
-0.021
-0.015
-0.007
0.074
0.059
0.060
0.053
0.035
0.060
0.065
-0.039
0.074
-0.079
0.093
0.098
0.085
-0.024
0.014
0.051
0.077
0.043
-0.046
0.023
0.068
0.090
-0.041
-0.064
0.080
0.074
0.015
0.032
0.053
0.120
-0.039
-0.025
0.023
0.087
0.023
-0.022
0.028
0.049
0.030
-0.058
-0.008
0.025
-0.032
0.005
0.020
0.037
0.024
0.005
0.046
-0.003
0.014
0.046
0.067
0.035
0.010
-0.075
0.070
-0.011
0.057
0.102
-0.030
-0.039
0.090
0.001
0.070
-0.019
0.086
-0.012
-0.027
0.007
0.122
0.120
0.055
-0.044
0.025
0.029
0.015
0.015
0.054
0.049
-0.010
0.075
0.066
0.057
0.043
-0.015
0.013
0.049
0.001
0.035
0.024
0.012
0.064
0.100
-0.020
0.031
-0.049
0.009
0.078
0.032
0.005
0.018
0.024
0.074
0.030
-0.022
0.112
0.043
0.065
-0.036
0.026
0.031
0.045
-0.011
0.034
-0.031
0.062
0.035
-0.062
-0.015
0.044
0.112
0.018
-0.065
0.124
0.003
0.019
0.034
-0.042
-0.023
0.058
-0.008
0.128
0.035
0.034
0.019
0.019
-0.020
-0.013
0.018
0.088
0.033
-0.015
0.036
0.041
0.015
0.044
0.036
-0.005
0.047
0.104
-0.036
0.015
0.076
0.016
0.047
-0.022
0.005
-0.034
0.070
0.083
0.010
0.041
0.049
0.020
0.149
0.024
0.020
0.101
-0.062
0.049
-0.020
-0.007
0.077
-0.041
-0.015
0.011
0.146
0.034
-0.101
-0.049
0.024
0.088
0.034
0.121
-0.018
0.017
0.048
-0.014
0.002
0.066
0.072
0.039
-0.033
0.077
-0.016
0.028
0.071
0.022
0.002
0.012
0.103
0.053
0.045
0.033
-0.055
0.126
0.020
0.004
0.036
0.002
0.024
-0.028
0.022
0.015
0.015
-0.051
-0.003
0.075
0.009
0.017
0.057
-0.038
-0.010
0.079
0.090
0.061
0.020
0.032
0.019
0.055
0.057
-0.124
0.110
0.039
0.049
-0.039
0.030
0.083
0.073
-0.004
-0.062
0.093
0.059
-0.006
-0.024
0.034
-0.004
0.013
0.040
0.155
-0.015
-0.040
0.011
-0.059
-0.022
0.052
0.011
-0.018
-0.017
-0.010
0.131
-0.027
0.006
0.076
0.073
0.030
-0.087
0.097
0.011
-0.015
0.084
0.093
0.058
0.011
-0.001
0.044
0.038
-0.062
0.077
-0.007
-0.007
0.101
0.123
0.034
0.016
-0.016
0.033
0.014
0.096
0.001
0.030
0.105
-0.037
0.034
0.011
-0.046
0.084
-0.069
0.106
0.011
0.007
-0.005
0.096
0.061
0.011
0.042
0.012
-0.012
-0.004
0.077
-0.057
0.124
0.093
-0.057
-0.047
0.084
0.079
0.016
-0.003
0.058
-0.018
-0.007
-0.006
0.007
0.030
0.094
0.061
0.100
-0.060
-0.034
0.003
0.004
0.132
-0.011
0.085
0.001
0.104
0.035
-0.011
0.060
0.012
0.056
0.025
0.068
0.043
0.071
-0.003
0.012
0.084
-0.075
-0.014
0.008
0.019
-0.025
0.116
0.043
-0.109
-0.002
-0.010
-0.004
0.138
-0.051
0.068
-0.079
0.011
0.143
0.065
0.015
0.023
0.072
0.023
0.031
0.123
-0.034
-0.017
0.003
0.069
0.031
0.082
-0.005
0.027
0.059
-0.001
0.020
-0.005
0.069
0.009
0.062
0.023
0.022
-0.049
0.183
0.023
-0.022
0.051
-0.072
0.064
0.049
0.033
0.037
0.000
-0.043
0.017
0.055
-0.012
0.101
-0.041
0.000
0.037
0.042
0.058
0.027
0.041
0.021
0.006
0.088
0.039
0.040
0.090
0.006
-0.038
0.059
-0.065
0.013
0.105
-0.015
0.027
0.105
0.035
-0.017
-0.020
0.037
0.047
0.088
0.027
0.014
-0.092
0.063
0.087
0.031
0.083
0.006
0.047
-0.045
-0.005
0.088
-0.005
0.039
-0.018
0.086
0.004
0.065
0.035
-0.016
0.026
0.021
-0.005
-0.014
0.042
0.133
0.046
-0.063
0.006
0.040
0.013
0.151
0.052
-0.031
-0.017
0.090
0.066
0.001
0.127
0.032
0.073
0.003
0.016
0.019
0.082
-0.003
-0.007
0.036
0.044
0.011
-0.019
0.017
0.037
0.034
0.009
0.024
0.035
0.011
0.017
0.022
0.131
0.055
0.017
-0.053
0.094
-0.003
0.073
0.051
0.026
0.006
-0.030
0.038
0.081
0.111
-0.041
0.024
-0.017
0.143
0.032
0.035
0.002
0.004
0.057
0.087
0.117
0.066
-0.005
0.004
-0.053
0.044
0.052
0.017
0.067
0.052
0.067
-0.040
0.013
-0.036
0.015
0.131
0.070
0.004
-0.025
0.014
0.115
0.039
-0.002
0.017
0.056
0.030
-0.059
0.027
0.007
0.026
0.072
0.088
-0.016
-0.004
-0.067
0.065
0.050
0.060
0.058
-0.047
0.045
0.076
-0.017
-0.023
0.025
0.007
0.068
0.008
0.105
0.023
-0.036
-0.018
0.071
0.134
0.004
0.104
0.015
0.030
0.035
-0.026
-0.067
0.107
0.074
-0.008
-0.088
0.093
0.078
0.046
-0.091
0.063
0.056
0.091
0.023
-0.066
0.118
0.042
0.071
0.008
-0.062
-0.004
0.140
0.021
0.056
0.020
-0.021
0.024
-0.024
-0.027
0.039
0.079
0.110
0.062
0.021
0.025
-0.044
-0.075
0.015
0.035
0.007
0.041
0.089
0.073
0.037
-0.050
0.095
-0.004
-0.011
0.003
-0.009
0.020
0.160
0.009
0.087
-0.015
0.018
-0.029
0.075
0.048
0.065
0.043
0.031
0.055
-0.030
0.041
-0.038
0.056
0.039
0.072
-0.034
0.057
-0.063
0.012
-0.023
-0.021
0.123
0.035
0.014
0.024
0.060
-0.027
0.048
0.019
0.056
0.108
-0.048
0.023
-0.004
0.000
0.063
0.001
-0.009
0.052
0.005
0.016
0.026
0.071
0.021
0.030
0.030
0.080
-0.039
-0.018
0.032
0.066
0.054
0.028
0.063
0.048
-0.033
0.041
-0.024
0.030
0.024
-0.003
-0.018
0.066
0.070
-0.015
0.012
0.021
-0.054
0.126
0.054
0.074
0.015
0.001
0.013
0.096
0.012
0.014
0.104
0.086
-0.037
0.038
0.041
0.013
-0.016
-0.026
0.008
0.051
0.138
-0.004
0.040
0.017
0.041
0.039
0.072
-0.028
-0.031
0.023
0.085
0.110
0.004
-0.039
0.048
0.025
0.075
0.010
-0.022
0.003
-0.030
0.091
0.042
0.045
0.105
-0.017
-0.050
0.086
0.028
0.001
0.030
0.054
0.084
0.087
0.034
-0.034
-0.004
0.035
0.028
0.053
0.076
0.090
-0.037
0.017
-0.041
0.052
0.081
-0.052
0.021
0.055
0.049
0.011
0.032
-0.101
-0.009
0.048
0.092
0.034
0.024
0.035
0.021
0.043
0.052
0.015
0.047
-0.072
0.093
0.090
0.029
0.008
-0.011
0.073
0.000
-0.001
0.040
0.001
0.075
0.013
0.027
-0.034
-0.052
0.071
0.145
0.017
0.055
-0.084
0.123
0.069
0.031
0.019
-0.065
0.127
0.047
0.064
-0.058
0.034
0.004
0.054
0.047
0.013
-0.063
0.074
0.032
0.049
0.052
-0.007
0.089
-0.007
0.026
0.081
0.032
0.109
-0.011
0.021
0.034
0.015
0.018
0.080
-0.019
-0.027
0.030
0.073
0.066
0.033
-0.004
0.064
0.027
-0.020
0.075
0.020
0.097
0.016
-0.004
0.076
0.011
0.056
0.044
0.062
0.028
0.106
0.010
-0.033
0.005
0.032
0.042
0.081
0.028
0.012
-0.047
0.097
-0.020
0.073
0.052
0.034
0.116
-0.060
-0.001
-0.003
0.083
0.023
0.081
-0.023
0.048
-0.045
0.105
0.018
-0.003
0.069
-0.045
0.031
0.014
0.052
0.037
0.044
0.058
0.029
0.041
0.057
0.000
-0.009
0.035
-0.015
0.108
0.043
0.003
0.067
0.062
-0.008
-0.003
0.033
0.026
0.037
0.049
0.048
0.106
0.035
-0.005
0.003
0.034
0.071
0.058
0.053
-0.015
0.052
-0.081
0.054
0.020
-0.020
0.047
0.018
0.076
-0.101
-0.045
0.066
0.024
0.076
0.113
0.007
-0.042
0.062
-0.023
0.041
0.106
0.059
0.010
0.063
0.096
0.013
0.035
0.007
0.129
-0.051
-0.006
-0.001
0.061
0.042
-0.001
0.053
0.021
0.065
0.066
-0.007
0.017
0.013
0.075
-0.039
0.054
0.036
0.016
0.054
0.066
-0.016
-0.020
0.055
0.057
0.052
0.032
0.027
0.028
0.082
-0.006
0.067
0.003
-0.027
0.032
0.076
0.035
0.044
0.081
0.028
-0.031
0.061
0.026
0.052
0.048
0.022
0.032
0.064
0.001
0.006
0.064
0.007
0.100
0.022
-0.025
0.007
0.000
0.061
0.015
0.039
0.084
-0.029
0.093
0.023
-0.014
0.005
0.056
-0.011
0.056
0.076
0.101
0.039
-0.028
-0.071
0.074
0.022
0.017
-0.001
0.026
0.004
0.106
0.058
0.044
0.017
0.008
0.028
0.107
0.052
0.031
0.013
0.070
-0.045
0.048
0.005
0.012
-0.011
-0.046
0.055
0.033
0.042
-0.042
0.013
0.073
0.031
0.014
-0.040
0.013
-0.017
0.018
0.084
0.085
0.079
-0.041
0.007
0.020
-0.034
0.087
0.095
-0.007
-0.002
0.050
-0.012
-0.044
0.073
0.046
0.092
0.002
-0.001
0.104
-0.002
0.012
-0.050
0.042
0.050
0.040
-0.008
0.052
-0.013
0.094
0.043
0.029
-0.029
-0.005
-0.064
0.047
0.098
0.048
0.040
0.006
0.039
0.067
-0.006
0.050
0.008
0.065
0.046
0.006
0.015
0.014
0.101
0.040
0.039
-0.004
0.081
0.119
-0.080
-0.067
0.000
0.012
0.034
0.163
-0.021
0.021
0.035
0.100
0.057
-0.053
0.050
0.028
0.072
0.079
-0.028
0.109
0.043
-0.048
0.024
0.038
-0.004
0.032
0.043
-0.023
-0.003
0.032
0.070
0.077
0.062
-0.032
-0.043
0.007
0.005
0.050
0.010
0.087
0.043
-0.014
0.097
0.003
0.095
-0.032
0.080
0.014
0.106
-0.037
0.041
0.028
0.104
-0.002
-0.048
-0.033
-0.046
0.032
0.039
-0.004
-0.029
0.160
0.058
0.061
-0.077
0.003
0.072
-0.018
-0.018
0.095
0.017
0.049
0.090
-0.017
0.022
-0.046
0.090
0.049
0.076
0.026
0.006
0.018
-0.050
-0.011
0.016
0.149
0.033
-0.125
0.129
0.022
0.039
-0.003
0.115
0.075
-0.047
0.032
-0.031
0.109
0.005
-0.000
0.027
0.086
0.035
0.003
0.066
0.020
-0.064
0.005
0.012
0.056
0.013
0.030
0.057
0.025
0.051
0.212
0.003
0.007
-0.088
0.130
0.062
-0.013
-0.002
0.108
0.020
-0.005
0.087
-0.064
0.013
0.076
0.003
0.011
-0.033
0.030
0.060
-0.002
-0.004
0.043
0.076
0.075
-0.003
-0.003
0.032
0.022
0.027
0.054
0.079
-0.050
-0.010
0.005
0.081
0.039
0.039
0.028
0.065
-0.007
0.034
0.102
-0.039
-0.031
-0.039
0.044
0.063
0.073
0.022
-0.015
0.013
0.067
0.045
-0.047
-0.003
0.059
0.093
0.028
0.053
0.055
-0.026
-0.031
0.016
-0.009
0.050
0.143
0.086
0.034
-0.040
0.026
0.023
0.051
0.011
-0.008
0.013
0.068
-0.001
0.067
-0.029
-0.046
0.024
0.056
0.042
-0.060
0.040
0.061
0.164
-0.025
0.009
0.030
0.026
0.002
0.011
0.058
0.029
0.040
0.064
0.032
0.009
0.014
0.006
0.093
0.118
0.040
-0.052
-0.004
-0.001
0.057
0.015
0.072
0.109
0.042
0.002
-0.037
0.059
0.054
0.044
0.019
0.065
0.042
-0.001
0.035
0.015
0.122
0.008
-0.026
0.025
0.056
0.076
0.137
-0.003
-0.002
-0.006
0.028
0.009
0.092
-0.014
0.022
0.098
0.021
0.008
0.012
0.017
0.041
0.072
0.058
0.075
0.007
0.022
-0.092
0.029
0.103
-0.045
-0.024
0.089
0.077
0.096
0.016
-0.019
0.043
0.077
0.042
0.032
0.008
-0.013
-0.012
0.078
0.055
0.011
0.045
-0.039
0.064
-0.022
0.062
0.025
