-0.035
-0.091
-0.082
0.091
-0.043
-0.110
0.015
0.167
0.014
-0.143
-0.038
0.024
0.021
0.081
-0.023
-0.086
-0.041
0.039
0.047
-0.069
-0.060
-0.010
0.080
-0.049
-0.057
-0.050
0.115
0.063
-0.079
-0.188
-0.104
0.033
0.013
0.017
-0.003
0.177
0.007
-0.240
-0.065
0.073
-0.024
-0.011
0.055
-0.095
-0.056
0.024
-0.067
0.041
0.033
0.068
-0.063
-0.056
-0.133
-0.109
0.024
0.150
0.009
0.076
0.016
-0.095
-0.164
-0.026
0.041
0.079
-0.010
-0.147
-0.020
0.002
-0.046
0.044
-0.014
-0.016
-0.078
0.017
-0.009
-0.077
0.054
-0.079
0.000
-0.006
-0.016
-0.019
-0.001
-0.055
-0.072
-0.023
0.079
0.237
0.106
-0.110
-0.105
-0.074
-0.124
-0.085
0.089
0.077
-0.071
0.011
0.078
0.054
-0.147
-0.078
-0.013
-0.021
0.001
0.001
-0.090
0.082
-0.024
-0.012
0.119
-0.021
0.054
-0.032
0.001
0.067
-0.060
-0.077
-0.044
-0.055
-0.033
-0.090
-0.014
0.043
-0.003
0.027
-0.096
-0.022
-0.035
-0.055
0.015
0.032
0.125
-0.039
-0.030
0.072
-0.147
-0.162
0.073
-0.004
-0.012
-0.088
0.050
0.096
-0.054
-1.316
-0.257
0.674
0.814
0.280
-0.098
-0.203
-0.283
-0.249
-0.145
0.023
0.111
0.167
0.168
-0.004
-0.027
-0.118
-0.082
-0.086
0.054
-0.100
-0.146
-0.021
0.019
-0.141
-0.025
0.094
-0.081
0.074
0.085
0.044
-0.006
-0.065
-0.033
0.124
0.067
0.078
0.018
-0.090
-0.144
-0.141
-0.080
0.020
-0.100
0.044
0.089
-0.049
0.053
-0.095
-0.114
-0.045
-0.110
-0.046
-0.056
-0.083
-0.200
0.117
0.028
0.061
0.061
-0.080
-0.040
0.015
-0.085
0.021
0.030
-0.032
-0.023
-0.101
-0.039
0.047
0.110
-0.021
-0.089
-0.010
-0.016
0.203
0.060
-0.010
-0.053
-0.045
0.018
-0.001
0.109
0.050
-0.053
-0.063
-0.033
-0.086
0.015
-0.016
-0.126
-0.024
-0.132
-0.072
0.023
-0.050
0.001
0.047
0.049
-0.023
-0.164
-0.052
-0.030
-0.026
-0.101
0.004
0.024
-0.018
-0.035
0.009
-0.079
0.010
-0.022
0.082
-0.099
-0.080
-0.047
0.097
-0.120
0.014
0.020
-0.071
0.031
-0.020
0.008
-0.051
0.060
-0.102
-0.157
-0.036
0.001
-0.026
0.025
-0.007
0.031
-0.035
0.018
-0.032
-0.024
-0.067
-0.033
0.023
0.002
-0.093
0.033
-0.044
-0.039
-0.244
-1.148
0.365
0.611
0.651
-0.012
0.056
-0.173
-0.325
-0.358
-0.072
0.194
0.244
0.236
0.281
-0.017
-0.060
-0.136
-0.188
-0.058
0.017
-0.107
-0.153
-0.031
-0.172
-0.097
-0.090
-0.048
0.030
-0.033
-0.008
0.150
0.012
-0.054
-0.048
-0.091
0.005
-0.094
-0.041
0.063
0.092
-0.014
-0.078
-0.058
-0.006
-0.016
-0.116
0.041
0.013
-0.087
0.042
0.278
-0.030
-0.129
-0.136
-0.136
0.025
0.041
0.012
0.045
-0.007
-0.016
-0.062
0.006
-0.066
0.114
-0.057
-0.093
-0.053
0.052
-0.017
-0.074
0.011
0.056
-0.029
0.046
-0.067
-0.008
-0.072
0.008
0.011
-0.120
-0.075
-0.005
0.028
0.076
0.025
-0.134
-0.066
-0.021
0.060
-0.026
0.031
-0.060
-0.071
-0.124
-0.025
-0.002
-0.136
-0.016
-0.020
0.033
-0.048
0.049
0.002
-0.089
-0.048
0.047
-0.082
-0.047
0.014
0.136
0.107
0.011
-0.035
-0.038
-0.014
-0.082
-0.176
-0.032
0.061
-0.062
0.023
-0.034
0.023
-0.092
-0.006
0.043
-0.035
-0.018
-0.019
-0.021
-0.089
-0.113
-0.069
-0.075
0.023
0.140
0.101
0.033
-0.035
-0.067
-0.118
-0.110
-0.058
0.024
0.018
-0.008
-0.049
-0.062
0.029
-0.078
-0.138
0.057
-0.115
-0.047
0.057
0.088
-0.105
-0.007
-0.038
-0.103
-0.022
-0.077
-0.021
0.056
-0.003
0.007
-0.062
-0.100
-0.088
-0.033
-0.026
0.003
0.003
-0.141
-0.098
-0.049
-0.026
0.102
0.056
-0.019
-0.219
-0.023
-0.030
0.100
-0.018
-0.014
0.022
-0.179
-0.061
-0.015
-0.025
-0.017
-0.100
0.019
0.006
-0.075
-0.086
-0.002
-0.015
-0.010
-0.064
-0.051
-0.005
0.023
-0.091
0.035
0.025
-0.041
-0.007
-0.057
0.000
-0.059
0.038
0.015
-0.044
-0.077
-0.096
0.070
-0.049
-0.079
0.110
-0.015
-0.123
-0.073
0.051
-0.084
-0.160
0.005
0.030
-0.003
0.013
0.057
-0.132
-0.090
-0.136
-0.082
0.008
0.057
0.173
-0.174
-0.003
-0.156
-0.041
-0.059
0.179
0.177
-0.146
-0.192
0.055
-0.054
0.018
0.076
-0.009
-0.052
-0.036
-0.102
0.127
0.077
-0.028
-0.138
-0.099
-0.047
0.014
-0.128
-0.008
-0.840
-0.555
0.626
0.797
0.342
0.031
-0.085
-0.292
-0.293
-0.056
0.127
0.122
0.080
0.131
0.127
-0.105
0.080
-0.024
-0.068
-0.098
-0.084
-0.151
-0.094
-0.128
-0.086
-0.017
-0.016
0.019
-0.040
-0.064
-0.062
-0.033
0.027
-0.002
-0.091
-0.072
-0.035
0.024
-0.004
-0.048
0.068
0.034
0.000
-0.102
-0.037
0.008
0.020
-0.056
-0.036
-0.014
-0.005
0.053
0.020
-0.103
0.012
-0.092
-0.066
-0.167
-0.018
0.090
0.097
-0.050
-0.083
0.024
0.014
-0.029
-0.069
0.005
-0.096
-0.031
-0.095
-0.045
0.013
0.114
-0.044
0.054
-0.104
-0.147
-0.051
0.012
0.000
-0.030
-0.015
-0.193
-1.079
0.247
0.644
0.573
0.163
-0.076
-0.203
-0.344
-0.175
-0.048
0.104
0.149
0.174
0.082
0.118
-0.009
-0.076
-0.085
-0.276
-0.009
-0.102
-0.046
-0.110
-0.120
0.002
-0.024
-0.061
-0.155
0.017
-0.082
-0.024
0.171
0.142
0.047
-0.092
-0.070
-0.129
-0.142
-0.019
0.030
0.103
0.163
0.070
0.006
-0.106
-0.011
0.020
-0.043
-0.151
0.071
0.004
0.073
-0.157
0.013
-0.014
-0.021
0.022
0.015
0.003
0.072
-0.033
-0.107
-0.078
-0.131
0.009
0.108
0.093
0.091
-0.034
-0.089
-0.014
-0.085
-0.053
0.036
-0.061
0.023
-0.050
-0.105
-0.070
0.003
0.020
-0.082
-0.013
0.002
-0.030
-0.164
-0.109
0.053
-0.057
0.091
-0.035
-0.052
-0.022
-0.051
0.031
-0.086
-0.015
-0.051
-0.056
-0.083
0.046
0.016
-0.019
0.030
-0.114
-0.011
0.029
-0.001
-0.171
-0.104
0.138
-0.035
-0.107
-0.021
0.080
0.101
-0.086
-0.046
0.028
-0.090
0.001
-0.024
-0.029
0.067
-0.101
0.088
-0.044
-0.014
0.028
-0.057
-0.103
-0.103
-0.004
0.070
0.052
-0.172
-0.045
0.033
-0.051
0.006
-0.040
-0.062
0.081
-0.038
0.018
-0.051
-0.021
-0.036
-0.133
-0.089
-0.043
0.027
-0.007
0.024
-0.145
-0.039
0.074
-0.078
-0.043
0.024
0.085
-0.040
-0.074
-0.037
-0.041
-0.093
-0.945
-0.593
0.534
0.720
0.334
0.401
-0.025
-0.413
-0.432
-0.199
0.128
0.128
0.170
0.201
0.133
0.239
0.072
-0.143
-0.125
-0.127
-0.089
-0.038
-0.204
-0.075
-0.212
-0.020
0.051
-0.064
-0.033
-0.050
-0.064
-0.016
-0.040
-0.024
-0.001
0.064
0.054
-0.010
-0.044
-0.138
-0.126
-0.061
0.016
-0.011
0.072
-0.070
0.008
-0.033
-0.034
0.010
-0.095
-0.018
-0.108
0.013
0.094
0.064
-0.011
0.034
-0.140
0.038
-0.040
-0.042
-0.046
0.115
-0.002
-0.073
0.003
0.030
-0.083
-0.081
-0.135
-0.002
0.033
-0.052
0.093
0.054
-0.042
-0.044
0.017
-0.086
-0.013
-0.044
0.034
0.028
-0.063
0.018
0.022
-0.035
-0.076
-0.138
-0.071
-0.048
0.001
-0.051
-0.027
0.008
-0.006
0.104
-0.066
-0.034
0.009
-0.077
0.017
-0.083
0.056
0.010
-0.014
-0.008
-0.222
-0.009
-0.026
0.061
-0.017
0.039
-0.011
0.017
-0.004
-0.077
0.090
0.037
-0.077
-0.049
-0.027
-0.198
-0.063
-0.087
0.008
0.061
0.086
-0.077
-0.000
-0.004
-0.029
-0.058
-0.151
-0.085
-0.039
-0.009
0.116
0.059
-0.014
-0.063
0.004
-0.045
-0.011
0.024
-0.054
0.049
-0.045
-0.183
-0.065
0.132
0.008
-0.133
-0.062
0.084
0.061
-0.036
-0.007
-0.037
-0.155
-0.066
0.083
0.027
-0.009
0.080
0.029
-0.005
0.028
-0.110
-0.100
-0.011
-0.050
0.048
-0.074
-0.021
-0.007
-0.152
0.044
-0.109
-0.070
0.141
-0.092
-0.012
0.010
0.060
-0.115
-0.008
-0.019
0.018
-0.059
0.082
0.151
-0.006
-0.132
-0.102
-0.027
-0.004
-0.101
-0.068
-0.041
0.088
-0.031
-0.061
-0.153
0.002
-0.084
-0.110
0.088
-0.018
0.133
0.106
0.120
-0.030
-0.003
-0.125
-0.062
-0.072
0.017
-0.011
-0.050
-0.071
0.052
-0.021
-0.053
-0.087
-0.105
-0.075
-0.018
0.064
0.099
0.005
0.046
0.088
-0.160
-0.049
-0.115
0.010
0.030
0.013
-0.000
-0.012
-0.013
-0.010
-0.067
-0.137
0.021
-0.082
-0.237
0.080
0.102
0.099
-0.040
-0.028
-0.073
-0.110
-0.071
0.062
-0.024
0.036
-0.063
-0.044
-0.029
-0.085
0.022
0.009
0.020
-0.141
-0.086
-0.071
0.073
0.078
0.153
0.023
-0.152
-0.154
-0.063
0.142
-0.035
-0.090
0.026
-0.012
0.006
0.020
0.011
-0.107
0.049
-0.077
0.088
-0.056
-0.015
-0.055
-0.022
-0.008
0.034
-0.040
-0.103
-0.069
0.038
-0.141
-0.206
0.043
-0.004
0.077
-1.040
-0.392
0.549
0.702
0.421
-0.004
-0.174
-0.293
-0.185
-0.096
0.057
0.012
0.098
0.180
0.162
0.086
-0.053
-0.065
-0.104
-0.136
-0.158
-0.144
-0.052
0.036
-0.019
-0.143
-0.096
0.004
0.029
0.026
0.006
0.003
-0.076
-0.182
-0.017
0.043
0.019
-0.060
0.014
-0.025
-0.036
-0.092
-0.115
0.129
0.053
-0.047
-0.110
0.038
0.033
-0.045
-0.014
-0.050
0.040
0.049
-0.013
-0.049
-0.082
0.032
-0.047
-0.041
0.064
-0.040
0.050
-0.106
-0.049
-0.074
0.037
0.007
0.007
-0.050
0.073
-0.040
-0.021
0.027
-0.024
0.054
-0.110
-0.143
0.030
0.016
-0.029
0.007
-0.141
-0.091
-0.100
-0.018
0.112
-0.029
0.023
0.086
-0.024
-0.054
-0.081
0.078
-0.065
-0.092
-0.043
0.032
-0.044
-0.011
-0.157
0.006
0.089
0.025
0.057
0.008
-0.042
-0.008
-0.019
-0.032
-0.006
0.035
-0.003
-0.020
0.078
-0.014
-0.044
-0.034
-0.071
-0.127
0.003
0.081
-0.002
-0.048
-0.040
-0.023
0.028
-0.049
0.040
0.002
-0.108
0.052
0.044
-0.008
0.025
0.014
-0.050
-0.077
0.023
0.129
0.066
-0.079
-0.101
-0.019
-0.160
0.078
-0.062
-0.062
0.057
-0.024
-0.039
-0.010
0.049
0.108
-0.132
-0.109
-0.091
-0.076
-0.012
0.134
0.021
-0.050
0.065
0.053
-0.087
0.024
-0.074
-0.028
-0.007
-0.003
0.004
-0.122
-0.016
0.066
0.066
0.030
-0.053
0.051
-0.079
-0.157
0.041
0.046
-0.073
-0.081
-0.006
0.014
0.071
-0.031
0.023
0.007
-0.019
0.055
-0.058
-0.118
-0.130
-0.095
-0.108
0.014
0.171
0.067
-0.001
-0.003
-0.105
0.003
-0.036
0.028
0.063
-0.020
-0.064
-0.110
-0.045
-0.051
0.034
0.040
0.095
-0.040
-0.162
-0.014
-0.104
0.047
0.090
-0.079
-0.048
-0.187
-0.065
0.072
0.100
0.090
-0.027
-0.009
-0.034
-0.117
-0.040
0.069
-0.018
-0.128
0.062
-0.047
-0.082
-0.067
0.018
-0.065
0.043
-0.004
-0.047
0.064
-0.013
-0.015
0.033
-0.065
-0.016
-0.043
0.037
0.009
-0.021
-0.082
0.014
-0.024
-0.018
-0.003
-0.083
-0.051
0.047
0.090
0.079
0.007
-0.051
-0.132
-0.099
0.053
-0.799
-0.620
0.624
0.732
0.426
0.012
-0.214
-0.300
-0.338
-0.164
0.021
0.125
0.243
0.174
0.131
-0.034
-0.037
-0.043
-0.056
-0.186
-0.348
-0.164
-0.071
0.035
0.089
-0.041
0.011
0.007
-0.103
-0.023
0.048
-0.004
-0.007
0.102
0.008
-0.004
0.033
-0.044
-0.090
0.002
0.013
-0.007
-0.030
-0.138
0.016
-0.015
-0.114
-0.009
0.011
-0.018
0.026
0.039
-0.116
-0.120
-0.048
-0.191
0.138
0.195
0.068
-0.060
-0.128
-0.104
-0.112
-0.007
0.071
-0.042
0.082
-0.022
-0.005
0.005
-0.084
-0.120
0.019
-0.041
-0.014
0.036
0.108
-0.066
-0.002
-0.114
-0.053
-0.001
0.105
-0.034
-0.012
-0.115
-0.003
-0.111
-0.049
-0.017
0.059
-0.018
0.011
-0.033
0.040
-0.058
-0.074
-0.007
-0.041
-0.108
0.127
0.070
0.009
-0.133
-0.094
-0.065
-0.052
-0.157
0.138
0.132
-0.074
-0.131
-0.012
-0.084
-0.457
-0.843
0.528
0.599
0.567
0.137
-0.149
-0.173
-0.273
-0.251
-0.012
0.153
0.189
0.239
0.134
-0.001
-0.118
0.043
-0.083
-0.139
-0.171
-0.118
-0.130
-0.129
-0.039
-0.016
0.007
-0.076
0.037
0.005
-0.027
-0.000
0.006
0.021
0.022
0.003
-0.049
-0.106
-0.146
-0.041
-0.014
0.047
0.019
0.012
-0.018
0.026
-0.034
-0.076
-0.070
0.111
0.082
-0.032
-0.104
-0.109
0.088
0.056
-0.032
-0.098
-0.004
-0.042
0.040
-0.014
0.046
-0.158
-0.091
0.144
0.130
0.083
-0.152
-0.119
-0.068
-0.056
-0.139
-0.076
0.047
0.011
-0.139
-0.173
0.178
0.010
-0.021
0.001
-0.001
-0.003
0.037
-0.084
-0.015
-0.114
-0.032
0.127
0.082
0.021
0.048
-0.161
-0.047
-0.061
-0.057
0.013
-0.003
-0.039
-0.094
-0.127
-0.026
-0.113
0.120
-0.044
0.012
-0.157
-0.013
-0.024
0.167
-0.006
-0.010
-0.035
-0.047
0.014
-0.099
-0.053
-0.004
-0.007
0.005
-0.088
0.023
-0.049
-0.077
-0.140
0.079
0.018
0.082
-0.007
-0.050
-0.158
0.023
-0.047
0.068
0.063
-0.092
-0.081
-0.054
-0.050
-0.069
0.023
-0.036
-0.055
0.027
-0.081
-0.042
0.027
0.166
-0.059
-0.031
-0.137
-0.105
-0.116
-1.186
0.116
0.510
0.819
0.253
-0.072
-0.173
-0.293
-0.244
-0.059
-0.010
-0.012
0.311
0.195
0.031
-0.031
-0.008
-0.212
-0.174
-0.003
-0.081
-0.016
-0.175
-0.044
-0.063
-0.062
-0.055
-0.015
-0.043
-0.416
-0.933
0.308
0.762
0.602
0.220
-0.159
-0.327
-0.225
-0.017
0.011
0.083
0.146
0.141
0.035
0.031
0.114
-0.001
-0.306
-0.009
-0.028
-0.027
-0.025
-0.143
-0.163
-0.194
0.014
-0.028
-0.080
-0.171
0.106
0.073
0.158
-0.074
0.091
-0.026
0.039
-0.054
-0.172
-0.060
0.043
-0.015
0.009
-0.020
-0.038
0.043
-0.139
0.050
0.041
0.004
-0.058
0.002
-0.022
-0.031
-0.108
0.062
0.090
-0.075
0.012
-0.078
-0.046
-0.087
0.029
-0.005
-0.015
-0.035
0.027
-0.049
-0.102
-1.230
-0.026
0.591
0.826
0.283
-0.020
-0.316
-0.280
-0.235
0.027
-0.071
0.284
0.237
0.071
0.156
-0.029
-0.070
-0.163
-0.178
-0.062
-0.138
0.008
-0.054
-0.037
-0.082
-0.075
-0.038
-0.097
-0.037
0.001
0.126
0.019
-0.030
-0.053
0.017
0.035
0.008
-0.056
-0.122
0.003
0.034
0.021
-0.039
-0.026
-0.070
-0.040
-0.090
-0.018
0.034
-0.012
0.014
0.050
0.000
0.026
-0.049
0.003
-0.025
0.016
0.019
0.051
-0.017
-0.136
-0.007
0.098
-0.036
-0.022
-0.104
-0.018
-0.030
0.118
0.051
-0.032
-0.130
-0.091
-0.019
-0.060
0.009
0.020
-0.085
0.002
0.018
0.026
0.028
-0.167
-0.050
-0.082
-0.036
-0.081
-0.012
-0.033
0.026
0.043
-0.042
-0.026
-0.063
-0.069
-0.082
0.078
0.060
0.031
-0.089
0.033
0.030
0.005
-0.029
-0.111
0.016
-0.043
-0.024
-0.113
-0.054
0.247
0.041
-0.057
-0.074
0.002
-0.028
-0.211
-0.018
-0.085
-0.019
0.033
0.006
-0.024
0.065
-0.004
-0.063
-0.114
-0.061
-0.075
0.098
0.036
0.114
-0.139
-0.067
-0.173
0.043
-0.020
0.009
-0.011
0.115
0.031
-0.087
-0.016
-0.138
0.038
0.051
0.047
0.017
-0.032
0.012
0.044
-0.025
-0.114
-0.095
-0.003
-0.087
0.080
-0.051
-0.015
-0.020
0.029
0.094
-0.167
-0.044
-0.063
-0.097
0.025
0.021
0.138
0.031
-0.086
-0.035
-0.021
0.032
-0.109
-0.114
-0.023
-0.049
-0.072
0.044
-0.044
0.006
0.082
-0.001
0.072
-0.013
-0.005
-1.230
-0.145
0.455
1.007
0.231
-0.144
-0.182
-0.309
-0.177
-0.170
0.222
0.188
0.160
0.032
0.150
0.075
-0.039
-0.057
0.033
-0.223
-0.115
-0.039
-0.088
-0.139
-0.045
0.040
-0.033
-0.064
-0.055
-0.166
-0.093
-0.030
0.075
0.015
0.037
-0.027
-0.043
-0.024
-0.169
-0.043
0.038
0.050
0.033
0.044
0.048
-0.092
-0.051
-0.113
0.070
0.032
-0.093
-0.091
0.017
0.098
-0.022
0.004
0.106
-0.059
0.034
-0.141
-0.028
0.001
0.129
-0.037
-0.019
-0.047
-0.004
-0.024
-0.143
-0.037
-0.012
0.096
0.004
-0.039
-0.039
0.036
-0.161
0.105
-0.033
-0.107
-0.170
-0.050
-0.062
0.054
-0.062
-0.004
-0.105
0.012
0.171
-0.000
0.009
-0.055
-0.026
0.071
-0.001
0.051
-0.067
0.022
-0.102
-0.106
-0.128
0.095
-0.057
-0.081
-0.041
0.032
0.033
-0.065
-0.042
0.092
0.032
-0.023
0.021
0.030
-0.022
-0.054
0.085
-0.104
-0.043
0.096
-0.080
-0.031
0.016
-0.090
-0.111
-0.051
-0.078
-0.102
0.119
0.016
-0.069
-0.042
0.079
0.056
-0.023
-0.083
-0.016
-0.825
-2.091
1.140
1.473
1.263
0.447
-0.160
-0.544
-0.576
-0.355
-0.041
0.123
0.344
0.244
0.255
0.045
0.019
-0.101
-0.124
-0.272
-0.265
-0.252
-0.237
-0.178
-0.122
-0.002
-0.006
0.019
0.021
0.127
0.049
0.183
0.037
-0.079
0.031
0.043
0.053
-0.138
-0.122
0.005
-0.133
-0.098
-0.019
-0.076
0.062
0.037
-0.028
0.005
-0.189
-0.039
-0.042
0.017
-0.053
0.063
0.090
0.139
0.011
0.004
0.026
-0.113
-0.033
0.006
0.011
-0.045
-0.052
0.050
0.087
-0.046
-0.071
-0.026
-0.046
-0.076
0.061
-0.063
-0.066
-0.074
-0.012
0.076
-0.079
-0.027
-0.080
-0.005
-0.064
-0.073
-0.032
-0.046
-0.099
-0.088
-0.047
-0.067
0.022
-0.031
-0.065
-0.005
0.018
-0.121
-1.299
0.056
0.561
0.941
0.275
0.017
-0.397
-0.345
-0.097
-0.084
0.123
0.078
0.211
0.137
0.099
-0.014
-0.100
-0.203
-0.091
0.024
-0.046
-0.046
-0.095
-0.174
-0.053
-0.137
-0.109
-0.023
0.160
0.130
0.007
-0.010
0.000
-0.081
-0.142
-0.027
0.010
0.028
0.013
0.059
-0.138
-0.055
-0.027
-0.019
0.053
-0.012
0.047
-0.121
-0.035
-0.011
0.011
-0.119
0.062
0.062
-0.007
-0.029
-0.047
-0.072
0.010
0.058
-0.020
-0.042
-0.114
0.062
-0.023
-0.151
-0.088
0.003
-0.004
0.050
0.084
-0.081
-0.153
-0.060
0.003
-0.019
0.033
-0.036
0.066
-0.068
-0.087
-0.168
-0.052
0.132
-0.141
0.003
0.064
-0.012
-0.046
-0.064
-0.056
0.028
-0.056
0.058
0.153
-0.092
-0.052
0.030
0.001
-0.132
0.046
0.004
-0.062
-0.013
-0.044
0.043
-0.074
-0.024
0.103
0.010
-0.008
-0.079
-0.156
-0.089
0.031
0.054
-0.091
-0.059
0.029
-0.009
-0.049
-0.067
-0.061
0.010
-0.044
0.075
-0.019
0.039
0.018
-0.062
-0.147
-0.045
0.080
-0.126
-0.049
0.035
0.100
-0.102
-0.076
0.018
-0.008
0.020
0.076
-0.021
0.062
-0.071
-0.045
-0.038
-0.110
0.158
0.111
0.042
0.326
-0.031
-0.266
-0.176
-0.103
-0.073
-0.003
0.037
0.068
0.097
-0.137
-0.052
-0.112
0.043
0.014
-0.017
-0.043
-0.066
-0.051
0.026
0.005
-0.049
0.009
0.079
0.064
-0.054
-0.075
-0.005
0.027
0.042
-0.019
-0.082
-0.042
-0.014
0.046
-0.096
-0.024
0.008
-0.128
-0.062
-0.018
0.069
0.081
0.004
0.000
0.052
-0.137
-0.055
-0.070
0.019
-0.047
0.013
-0.027
0.056
-0.008
-0.098
-0.093
0.015
-0.023
-0.048
-0.022
-0.076
-0.156
0.040
0.080
0.052
0.078
-0.005
-0.055
-0.039
-0.024
-0.083
-0.044
-0.032
0.019
0.038
-0.036
0.013
-0.052
-0.063
-0.024
0.016
-0.047
0.024
-0.051
-0.013
-0.028
0.030
-0.125
-0.001
0.032
-0.071
-0.043
-0.040
0.020
-0.021
-0.044
0.015
0.027
-0.074
-0.057
-0.130
0.024
-0.051
0.116
0.068
0.018
0.049
-0.126
-0.068
-0.142
0.048
0.012
-0.079
-0.063
0.100
0.134
0.036
0.009
-0.095
-0.046
-0.120
0.033
0.083
-0.080
-0.065
0.075
-0.001
-0.108
-0.061
-0.129
-0.131
0.000
0.008
0.009
0.046
-0.051
0.004
-0.092
-0.085
-0.037
0.031
0.083
0.009
-0.032
-0.021
0.084
-1.273
-0.064
0.381
0.840
0.311
-0.025
-0.224
-0.267
-0.209
-0.145
0.007
0.126
0.162
0.143
0.148
0.022
0.027
-0.015
-0.030
-0.188
-0.115
-0.088
-0.220
-0.052
-0.047
0.072
-0.042
-0.124
-0.222
-2.873
0.909
1.376
1.235
0.648
0.032
-0.502
-0.601
-0.439
-0.095
0.075
0.290
0.302
0.302
0.219
0.111
-0.001
-0.106
-0.138
-0.225
-0.068
-0.167
-0.239
-0.223
-0.104
0.073
0.096
0.082
0.052
0.039
0.061
0.096
-0.075
-0.015
0.040
-0.019
-0.106
0.007
0.115
-0.002
-0.098
-0.165
-0.015
-0.057
-0.148
-0.087
0.028
0.031
0.079
0.002
0.079
0.035
-0.087
-0.074
-0.035
-0.019
0.030
0.063
0.038
0.067
-0.087
-0.043
0.127
0.079
0.112
0.043
-0.028
-0.166
-0.046
-0.028
0.083
-0.045
0.075
0.027
0.048
-0.002
0.008
-0.018
-0.113
-0.196
-0.057
-0.014
-0.125
-0.111
-0.022
0.169
-0.150
-0.087
-0.142
-0.119
0.039
0.030
0.007
0.076
-0.074
-0.107
-0.171
-0.884
-0.524
0.613
0.726
0.370
0.131
-0.167
-0.302
-0.339
-0.079
-0.004
0.045
0.306
0.274
-0.072
0.102
0.192
-0.027
-0.177
-0.279
-0.116
0.058
0.016
-0.109
-0.059
-0.047
-0.045
0.036
-0.081
-0.095
-0.029
0.077
0.003
-0.002
-0.087
0.006
0.042
-0.050
-0.122
0.070
-0.031
-0.030
0.062
0.096
0.036
0.052
-0.074
-1.298
-0.182
0.504
0.948
0.365
0.135
-0.249
-0.365
-0.326
-0.081
0.109
0.141
0.255
0.134
0.030
0.067
-0.044
-0.071
-0.097
-0.104
-0.168
-0.138
-0.031
-0.130
0.034
-0.104
-0.084
-0.098
-0.087
0.071
0.092
-0.027
-0.008
-0.016
-0.069
-0.105
-0.031
0.080
-0.098
0.151
0.067
0.175
0.038
-0.034
-0.186
-0.025
-0.148
-0.034
0.082
0.028
0.049
-0.028
0.079
-0.113
0.018
-0.075
-0.028
-0.104
-0.117
0.014
0.083
-0.071
0.053
-0.118
-0.077
-0.010
-0.049
-0.006
-0.128
0.038
0.073
-0.116
-0.093
-0.139
0.025
-0.142
-0.004
0.058
-0.055
-0.021
0.013
0.034
-0.007
-0.046
0.125
0.021
-0.020
-0.148
-0.051
-0.022
-0.047
0.047
-0.005
-0.018
-0.021
-0.041
-0.029
-0.073
-0.073
-0.009
-0.017
-0.046
-0.160
0.006
-0.054
0.154
0.097
-0.058
-0.040
0.054
-0.007
0.096
-0.003
-0.045
-0.100
-0.006
-0.109
0.025
0.055
-0.023
0.014
-0.110
-0.046
0.035
-0.010
0.053
-0.013
-0.083
0.077
-0.029
0.078
-0.015
-0.064
-0.005
-0.068
-0.109
-0.001
0.022
0.102
-0.032
-0.100
0.020
0.002
-0.028
0.040
0.051
-0.127
-0.100
0.051
-0.063
-0.158
-0.011
-0.051
-0.016
-0.090
-0.044
-0.008
0.165
-0.045
-0.081
0.006
0.136
-0.010
-0.016
0.018
-0.057
-0.082
-0.090
-0.071
0.134
0.041
-0.002
-0.084
0.025
0.005
-0.148
-0.004
-0.012
-0.027
-0.035
-0.026
0.054
-0.060
-0.054
-0.081
0.072
-0.048
-0.002
0.045
0.003
-0.019
-0.073
-0.023
-0.110
-0.133
-0.027
-0.077
0.054
0.142
-0.065
0.033
-0.030
-0.072
-1.271
-0.055
0.468
0.750
0.327
-0.002
-0.199
-0.254
-0.189
-0.158
-0.021
0.190
0.227
0.089
0.073
-0.002
-0.077
-0.022
-0.116
-0.120
-0.105
-0.051
-0.129
-0.027
-0.043
-0.039
-0.043
-0.090
0.013
-0.026
0.091
-0.022
0.009
-0.031
-0.030
-0.116
-0.003
-0.143
-0.015
0.080
-0.029
-0.020
-0.012
0.036
0.039
-0.082
0.090
-0.012
-0.126
0.048
-0.007
-0.078
-0.137
-0.179
-0.014
-0.019
0.029
-0.019
0.027
0.076
-0.024
-0.155
-0.004
0.041
0.133
0.043
0.089
-0.036
0.022
0.044
0.047
-0.163
-0.149
-0.031
0.040
-0.024
-0.016
-0.055
-0.044
-0.109
-0.142
-0.031
-0.125
0.025
0.140
0.061
0.100
-0.098
-0.057
-0.118
-0.025
-0.019
0.010
-0.062
-0.037
0.143
-0.026
0.048
-0.012
-0.012
0.070
-0.040
0.060
-0.207
-0.127
0.001
-0.006
-0.019
0.001
-0.073
-0.015
0.043
-0.038
0.003
0.049
-0.030
0.011
-0.029
0.066
-0.125
0.050
0.144
-0.080
0.010
-0.050
-0.074
-0.044
-0.013
-0.013
-0.050
-0.015
-0.117
0.032
-0.024
-0.117
-0.126
-0.017
-0.063
-0.048
-0.029
-0.059
0.080
0.134
-0.062
-0.017
-0.003
-0.126
-0.030
-0.074
0.101
0.007
-0.095
-0.015
-0.019
0.103
-0.006
-0.028
-0.144
0.006
-0.128
0.020
0.039
-0.095
-0.083
0.087
0.028
-0.075
-0.030
-0.077
0.024
0.039
0.029
-0.129
0.025
-0.056
-0.049
-0.061
0.020
-0.069
-0.042
-0.112
-0.026
0.044
0.004
-0.141
-0.056
0.057
0.034
-0.033
0.059
-0.029
-0.121
-1.256
-0.102
0.499
0.836
0.236
-0.017
-0.071
-0.292
-0.123
-0.026
0.061
0.071
0.064
0.136
0.004
0.020
0.093
-0.092
-0.126
-0.207
-0.058
-0.007
-0.080
-0.054
-0.178
-0.070
0.014
0.033
0.038
0.003
-0.097
-0.077
-0.014
0.095
-0.003
-0.012
-0.061
0.054
-0.006
-0.121
-0.087
-0.015
0.063
-0.038
0.088
-0.003
-0.030
-0.008
-0.097
0.049
-0.034
-0.021
-0.087
0.050
-0.009
-0.121
-0.045
-0.006
-0.047
-0.002
0.042
-0.105
-0.068
-0.055
-0.020
0.026
0.068
0.005
-0.015
0.017
-0.126
-0.059
-0.050
-0.021
-0.040
-0.006
-0.077
-0.003
0.137
0.062
-0.165
-0.152
-0.019
-0.067
-0.031
0.006
0.003
-0.074
0.034
0.006
-0.005
-0.000
0.012
0.042
-0.045
-0.024
-0.095
-0.097
0.040
0.008
0.022
0.060
-0.046
-0.015
-0.125
-0.064
0.027
-0.035
0.092
0.014
-0.022
-0.157
-0.061
-0.072
-0.080
0.005
-0.015
0.066
-0.020
0.058
-0.115
-0.090
-0.031
0.076
-0.032
-0.096
-0.100
0.081
-0.011
-0.059
0.100
0.035
0.025
-0.111
0.008
-0.077
-0.086
-0.007
0.049
0.041
-0.073
-0.054
-0.212
-0.011
0.202
0.050
0.029
-0.110
0.056
-0.033
-0.157
-0.057
-0.072
0.061
0.053
-0.008
-0.077
0.047
0.024
-0.084
-0.109
-0.020
-0.023
-0.031
0.165
0.070
-0.012
-0.140
-0.187
0.061
-0.007
-0.112
0.008
0.048
-0.067
-0.041
-0.108
0.032
-0.012
-0.063
-0.018
-0.033
-0.009
-0.020
-0.079
-0.175
-0.056
-0.009
0.170
0.081
-0.129
0.002
0.016
0.026
-0.078
-0.103
0.053
-0.164
-0.035
-0.458
-1.029
0.365
0.941
0.852
0.059
-0.305
-0.247
-0.459
-0.053
0.114
0.133
0.077
0.165
0.055
0.041
0.017
-0.061
-0.074
-0.083
-0.147
-0.128
-0.114
-0.041
-0.017
-0.106
0.019
0.028
-0.068
-0.037
0.022
0.024
0.021
-0.015
-0.108
-0.037
-0.074
0.077
-0.058
-0.038
0.054
0.025
-0.026
-0.093
-0.053
0.009
0.037
0.146
-0.005
0.026
-0.148
-0.129
-0.078
0.186
-0.059
-0.014
0.055
0.025
-0.059
-0.102
-0.069
-0.086
-0.014
-0.018
-0.032
0.053
0.006
0.063
-0.140
0.044
-0.087
-0.191
-0.135
0.219
0.228
0.149
-0.036
-0.101
-0.069
-0.010
0.017
0.109
0.020
-0.082
-0.127
-0.109
-0.108
0.076
0.019
-0.018
0.047
-0.051
-0.088
-0.159
-0.085
0.007
-0.099
-0.045
0.099
-0.039
-0.076
0.036
0.003
-0.124
-0.034
-0.001
-0.074
0.049
-0.075
0.033
0.059
-0.032
0.058
-0.082
-0.105
0.019
-0.052
0.055
0.075
0.048
0.017
0.023
-0.125
-0.019
-0.074
-0.015
0.051
-0.070
-0.057
-0.048
-0.017
0.026
0.041
-0.048
-0.152
0.014
-0.065
-0.079
0.077
-0.036
-0.041
-0.198
0.049
0.073
-0.008
-0.026
-0.054
0.092
0.086
-0.170
-0.042
-0.047
-0.118
0.049
0.006
0.016
0.038
0.052
-0.025
0.013
-0.058
0.044
-0.011
-0.139
-0.086
0.015
-0.040
0.002
-0.035
-0.004
0.023
-0.150
-0.098
-0.121
0.022
0.008
-0.044
-0.020
-0.002
-0.053
0.012
-0.163
-0.002
0.039
0.059
-0.104
0.030
-0.035
-0.092
0.019
-0.018
0.056
0.050
-0.067
-0.167
-0.026
-0.122
-0.021
0.099
-0.015
-0.055
-0.102
0.010
0.054
-0.036
-0.001
-0.105
-0.034
-0.033
0.022
-0.076
-0.005
-0.043
-1.301
0.091
0.605
0.967
0.184
-0.018
-0.340
-0.438
-0.111
-0.090
0.153
0.167
0.216
0.232
0.049
-0.021
0.027
-0.092
-0.018
-0.267
-0.246
-0.094
-0.118
-0.086
-0.163
-0.118
0.086
0.095
-0.093
-0.069
-0.031
-0.048
0.119
-0.028
0.059
0.010
0.008
-0.119
-0.017
-0.028
0.087
-0.059
-0.025
0.055
0.130
-0.044
0.001
0.069
0.184
-0.072
-0.062
0.051
-0.217
0.144
0.076
0.035
-0.127
-0.300
0.078
-0.044
0.015
0.091
0.056
-0.039
-0.221
-0.143
0.120
0.035
0.115
-0.025
-0.009
-0.025
-0.011
0.032
-0.032
-0.113
0.039
0.052
-0.030
-0.012
-0.104
-0.046
-0.035
0.024
-0.037
-0.039
-0.087
-0.037
0.063
-0.090
-0.068
0.001
-0.095
-1.071
0.307
0.473
0.684
0.193
0.056
-0.166
-0.317
-0.249
-0.135
0.203
0.135
0.202
0.122
0.120
0.101
-0.105
-0.105
-0.096
-0.148
-0.194
-0.057
-0.090
0.053
-0.095
-0.111
-0.167
0.059
0.019
-0.006
0.063
0.051
0.053
-0.040
-0.045
0.009
-0.083
-0.167
-0.023
0.123
0.099
-0.004
-0.016
0.043
0.076
-0.012
-0.053
0.008
-0.055
-0.086
0.114
0.003
0.007
-0.010
-0.037
-0.064
0.041
0.069
-0.006
-0.071
-0.234
-0.069
0.008
-0.080
-0.068
0.001
-0.113
-0.057
0.116
-0.053
-0.044
-0.159
0.023
0.040
-0.151
-0.007
-0.082
0.050
0.002
0.072
-0.125
0.017
0.072
-0.034
-0.103
0.024
0.022
-0.019
-0.040
-0.214
-0.194
-0.032
0.105
0.121
0.012
0.036
-0.089
-0.003
-0.114
-0.061
-0.103
0.026
-0.086
-0.033
-0.079
0.027
-0.075
-0.177
-0.018
-0.035
-0.018
0.054
0.050
-0.149
-0.118
0.017
-0.021
0.006
-0.019
-0.093
0.047
-0.013
-0.107
0.111
0.093
-0.011
-0.266
-0.045
0.049
-0.028
-0.048
0.014
0.060
-0.097
0.065
-0.114
-0.095
-0.067
0.018
-0.005
-0.015
0.038
0.051
-0.031
0.070
-0.152
-0.150
0.092
-0.056
0.029
-0.038
0.118
-0.084
-0.053
0.003
-0.146
-0.023
0.051
0.061
-0.064
0.006
0.009
0.095
-0.135
-0.100
0.082
-0.117
0.047
0.105
-0.067
-0.021
0.078
-0.059
0.005
-0.030
-0.009
-0.221
0.106
-0.029
-0.075
0.021
-0.031
-0.024
-0.030
0.064
0.070
0.025
-0.079
0.027
-0.097
-0.126
-0.069
-0.101
-0.040
0.225
-0.015
-0.112
-0.149
-0.190
-0.086
0.380
0.258
-0.040
-0.190
-0.162
-0.094
-0.059
0.077
0.066
0.100
0.016
0.130
-0.042
-0.074
0.003
-0.086
-0.061
-0.045
-0.075
-0.066
-0.090
0.094
0.008
-0.046
-0.105
0.116
-0.025
0.034
0.072
-0.072
0.010
-0.064
-0.040
-0.065
0.013
0.043
-0.085
-0.091
0.062
-0.055
0.051
0.061
-0.093
-0.207
0.152
-0.065
-0.153
-0.073
0.072
0.047
-0.038
0.036
-0.025
-0.128
-0.029
-0.016
0.084
0.063
0.021
0.022
-0.058
0.029
-0.215
-1.304
0.222
0.531
0.858
0.173
0.009
-0.351
-0.225
-0.250
-0.042
0.105
0.091
0.263
0.127
0.136
0.066
-0.109
-0.160
-0.125
-0.088
-0.105
-0.018
-0.149
0.036
-0.033
-0.091
0.010
0.080
0.015
0.034
-0.022
-0.041
-0.070
-0.176
0.024
-0.031
0.010
-0.108
0.052
0.021
-0.030
0.017
-0.132
-0.067
-0.081
0.051
-0.080
0.013
-0.009
0.089
0.061
-0.106
0.051
-0.079
0.081
-0.023
-0.073
-0.040
0.012
0.074
-0.077
0.062
-0.032
-0.061
-0.083
-0.074
0.018
0.146
0.014
-0.063
-0.117
-0.038
0.026
-0.078
0.072
0.095
0.039
-0.030
-0.069
-0.141
-0.088
-0.061
-0.028
-0.017
0.047
-0.026
-0.116
0.037
-0.009
-0.127
-0.037
0.035
-0.020
-0.006
-0.099
-0.017
0.019
-0.068
-0.046
-0.020
-0.017
-0.003
-0.090
0.032
-0.048
0.059
-0.115
-0.025
-0.065
0.024
-0.030
0.105
-0.026
-0.291
-0.013
-0.043
0.007
0.044
0.110
0.065
-0.085
0.047
0.064
0.004
-0.061
0.016
0.074
-0.030
0.039
0.054
-0.145
-0.047
0.125
-0.140
-0.034
-0.061
-0.061
-0.213
-0.056
-0.105
0.186
-0.046
0.007
0.003
-0.049
-0.049
-0.077
0.007
-0.108
0.032
0.026
0.046
0.091
-0.041
-0.144
0.034
-0.050
0.046
0.014
0.040
0.168
-0.001
-0.056
-0.049
-0.068
0.001
-0.000
0.040
0.033
-0.050
0.045
-0.031
-0.101
-0.054
-0.129
-0.055
-0.126
0.044
0.309
0.058
-0.065
-0.118
-0.071
-0.220
-0.086
0.127
0.155
0.098
0.019
-0.122
-0.134
-0.101
0.102
-0.002
-0.101
-0.020
0.010
-0.021
-0.127
-0.103
-0.000
0.092
-0.296
-1.004
0.360
0.637
0.694
0.195
-0.156
-0.238
-0.298
-0.164
-0.064
0.233
0.057
0.210
0.309
-0.139
-0.252
-0.086
-0.075
-0.082
-0.006
-0.060
-0.120
-0.296
-0.103
-0.035
-0.007
-0.007
0.054
-0.001
-0.035
-0.045
0.009
-0.045
-0.002
-0.020
0.022
-0.077
-0.019
-0.052
-0.014
-0.012
0.232
-0.050
-0.006
-0.064
-0.042
-0.079
-0.127
0.109
0.004
0.042
-0.029
-0.044
0.012
-0.062
0.057
-0.040
-0.253
0.019
-0.030
0.038
0.053
0.003
-0.120
0.037
0.015
-0.042
-0.096
0.161
0.050
-0.047
-0.107
-0.147
-0.056
-0.124
0.192
0.100
-0.098
-0.107
-0.147
0.072
-0.092
0.031
0.031
0.035
0.036
0.048
-0.068
-0.100
-0.009
-0.001
-0.009
-0.069
-0.041
-0.007
0.005
-0.062
-0.071
-0.097
0.054
0.087
0.029
0.007
-0.036
0.044
0.105
-0.111
-0.252
0.005
0.160
0.060
0.064
-0.000
0.039
-0.140
-0.092
0.018
0.055
-0.025
-0.555
-0.972
0.387
0.667
0.629
0.144
-0.025
-0.306
-0.325
-0.137
0.116
0.039
0.072
0.214
0.112
0.104
0.165
-0.090
-0.092
-0.038
-0.099
-0.135
-0.096
-0.077
-0.101
0.021
0.012
0.086
-0.005
-0.031
-0.065
-0.012
-0.034
-0.074
-0.073
-0.100
0.055
0.057
0.056
0.035
0.024
-0.122
0.037
-0.137
-0.003
0.008
0.016
0.110
-0.000
0.049
-0.020
-0.112
-0.052
-0.077
0.107
0.023
-0.065
-0.058
-0.037
0.002
-0.061
-0.069
-0.089
0.013
0.059
0.163
-0.094
0.031
-0.020
-0.135
-0.062
0.083
-0.059
-0.082
-0.082
0.008
-0.066
0.133
-0.139
-0.170
0.031
0.005
-0.006
-0.017
0.020
-0.046
0.028
-0.133
0.015
0.066
-0.051
0.018
-0.052
-0.089
0.003
-0.038
-0.016
0.015
0.029
-0.034
-0.049
0.006
-0.119
-0.082
-0.168
-0.004
0.055
0.062
0.013
0.028
-0.120
-0.068
0.001
-0.017
-0.120
-0.508
-0.699
0.544
0.672
0.436
0.093
-0.056
-0.308
-0.198
-0.134
-0.024
0.227
0.033
0.026
-0.038
0.083
0.130
-0.040
-0.111
-0.246
-0.050
-0.098
-0.117
0.080
0.055
-0.003
-0.081
-0.064
0.017
0.003
0.065
0.075
-0.005
-0.016
-0.030
0.071
-0.069
-0.132
-0.043
-0.002
-0.024
-0.020
-0.081
-0.122
-0.062
0.208
0.128
0.010
0.085
-0.223
-0.190
-0.007
0.022
-0.036
0.002
0.057
0.039
-0.131
0.028
-0.131
-0.018
-0.022
0.012
-0.062
-0.016
-0.046
0.026
-0.039
0.114
0.057
0.044
-0.069
-0.048
-0.065
-0.029
0.079
-0.013
-0.043
-0.150
0.044
0.006
-0.109
0.040
-0.100
0.040
0.117
-0.003
-0.085
-0.148
-0.047
-0.100
0.087
0.098
-0.158
-0.098
-0.075
-0.040
-0.052
0.185
-0.052
-0.071
-0.109
0.029
-0.094
0.006
-0.083
-1.326
-0.066
0.562
0.776
0.226
0.014
-0.088
-0.346
-0.134
-0.046
0.024
0.037
0.287
0.244
0.243
0.043
-0.192
-0.158
-0.099
-0.032
-0.072
-0.064
-0.108
-0.038
-0.054
-0.050
0.103
-0.075
-0.008
-0.126
-0.037
-0.102
0.062
-0.025
0.024
0.075
0.142
-0.153
-0.008
-0.114
-0.179
-0.039
-0.004
-0.005
-0.050
-0.076
-0.008
0.023
-0.056
-0.009
-0.075
-0.068
0.002
-0.056
-0.051
0.157
-0.044
-0.126
0.009
0.080
0.080
-0.020
0.094
-0.110
0.053
-0.013
0.031
-0.100
-0.019
0.024
-0.019
-0.089
-0.063
0.056
-0.048
0.018
-0.118
-0.063
-0.157
0.034
0.010
0.047
0.146
-0.141
-0.062
-0.113
0.020
-0.918
-0.719
0.482
0.675
0.444
0.093
-0.179
-0.233
-0.245
-0.116
0.062
0.041
0.146
0.076
0.111
0.197
0.089
-0.104
-0.099
-0.161
-0.136
-0.238
-0.096
-0.063
-0.082
0.115
0.093
0.048
0.098
-0.184
-0.141
-0.215
-0.148
-2.867
1.056
1.636
1.412
0.479
-0.110
-0.531
-0.652
-0.412
-0.046
0.084
0.149
0.257
0.341
0.343
0.283
-0.042
-0.146
-0.263
-0.307
-0.356
-0.138
-0.224
-0.119
0.165
0.146
-0.031
-0.060
0.027
0.031
0.020
0.132
0.160
0.053
-0.075
-0.041
0.011
-0.114
0.039
-0.067
-0.160
-0.062
0.058
0.063
0.032
0.018
-0.030
-0.043
-0.155
-0.013
-0.070
0.177
0.045
0.060
-0.031
-0.039
0.055
-0.087
0.051
-0.084
-0.014
0.040
0.070
-0.094
-0.004
0.046
0.082
-0.058
-0.009
0.067
-0.006
-0.101
-0.107
0.063
-0.079
-0.015
-0.039
-0.058
0.040
-0.134
0.002
-0.021
0.036
-0.120
-0.097
0.027
0.009
-0.012
-0.063
-0.102
-0.056
-0.084
0.087
-0.032
-0.051
-0.083
-0.225
0.010
-0.006
-0.034
-0.115
0.017
0.083
-0.068
0.084
0.031
-0.788
-0.760
0.409
0.872
0.562
0.217
-0.147
-0.387
-0.282
-0.222
-0.083
0.098
0.196
0.256
0.101
0.064
0.083
0.027
-0.198
-0.216
-0.072
-0.157
-0.094
-0.073
0.065
0.031
-0.017
-0.036
-0.002
-0.027
-0.089
-0.205
0.011
0.101
0.126
-0.059
-0.034
-0.161
-0.136
-0.037
0.052
-0.035
0.045
0.055
-0.065
-0.015
-0.039
0.131
-0.065
0.026
-0.056
-0.004
-0.009
0.020
-0.065
-0.026
0.138
0.003
0.020
-0.041
-0.015
-0.170
0.062
0.015
-0.009
0.014
-0.086
0.110
0.035
-0.018
-0.068
-0.126
-0.167
-0.011
0.012
0.115
0.001
-0.009
-0.003
-0.101
-0.100
-0.227
-0.087
0.053
0.155
0.093
0.158
-0.002
-0.087
0.060
-0.010
-0.068
-0.093
-0.062
-0.082
0.032
0.063
0.164
-0.046
-0.056
-0.102
-0.111
-0.040
-0.045
-0.038
0.025
-0.060
-0.019
0.036
0.092
-0.064
-0.088
0.007
-0.094
-0.082
-0.011
-0.045
0.069
0.016
-0.014
-0.140
-0.016
0.092
0.070
0.072
-0.016
0.045
-0.123
-0.074
-0.048
-0.064
0.016
0.069
-0.220
0.030
0.172
0.042
-0.115
-0.073
-0.099
0.075
0.133
0.030
0.069
-0.229
-0.222
0.165
0.210
-0.010
-0.008
-0.115
-0.080
-0.230
-0.093
-0.042
0.004
-0.004
0.101
0.207
-0.016
-0.102
-0.138
-0.175
-0.031
0.009
-0.023
-0.006
-0.030
-0.052
-0.005
0.012
-0.047
-0.075
-0.034
-0.051
-0.067
0.077
-0.054
-0.148
-0.156
0.100
0.027
0.070
-0.045
-0.030
0.009
0.113
-0.042
-0.083
-0.051
-0.032
-0.052
-0.049
-0.054
-0.044
-0.009
-0.064
0.127
-0.047
0.031
0.048
-0.206
-0.047
0.099
-0.026
0.009
0.032
0.033
-0.004
-0.174
-0.063
-0.135
0.070
-0.001
0.016
-0.134
0.056
-0.001
-0.118
-0.044
-0.070
-0.012
-0.080
-0.061
-0.040
-0.005
-0.016
0.074
-0.055
-0.037
0.029
-0.061
-0.104
-0.058
0.040
0.080
-0.029
-0.107
0.016
-0.061
-0.097
0.006
0.179
0.086
-0.001
-0.248
-0.043
-0.011
-0.088
-0.024
0.118
0.066
-0.088
0.061
-0.018
-0.057
-0.031
-0.225
-0.147
-0.025
0.037
-0.065
-0.032
0.015
0.117
0.024
-0.007
-0.044
0.004
-0.059
-0.035
0.028
0.018
-0.020
-0.060
-0.076
-0.010
0.031
-0.211
-0.112
0.012
0.004
0.041
0.058
-0.045
-0.075
-0.073
-0.121
0.082
0.028
0.094
-0.187
0.006
0.035
-0.096
-0.013
0.057
-0.022
-0.152
-0.049
-0.027
-0.189
-0.070
0.012
0.050
-0.003
0.043
0.090
0.074
-0.109
-0.127
-0.085
-0.085
0.107
0.031
0.017
0.088
-0.032
-0.169
-0.076
0.016
-0.023
-0.008
-0.092
0.175
0.078
-0.002
-0.020
-0.071
0.001
-0.104
-0.081
0.118
-0.055
-0.127
0.006
-0.015
-0.012
-0.034
-0.050
0.062
0.082
-0.187
-0.125
-0.026
-0.208
-0.006
0.057
0.039
0.157
-0.114
-0.040
-0.072
-0.060
-0.143
0.029
-0.043
0.043
0.053
0.025
-0.090
0.012
0.014
-0.082
-0.096
0.010
-0.912
-0.626
0.600
0.761
0.442
0.028
-0.130
-0.434
-0.266
-0.054
0.077
0.128
0.257
0.134
0.089
0.108
-0.021
-0.080
-0.110
-0.080
-0.107
-0.085
-0.021
-0.150
-0.092
-0.126
-0.107
-0.030
0.037
0.037
-0.025
-0.057
-0.138
0.158
-0.056
-0.068
-0.077
0.051
-0.049
0.004
-0.074
0.031
-0.085
-0.088
-0.009
-0.002
0.013
-0.011
-0.018
-0.072
-0.052
0.076
0.008
0.159
-0.019
-0.001
-0.066
-0.083
0.038
-0.066
0.118
-0.002
0.003
-0.139
-0.045
-0.124
0.017
0.132
0.162
-0.116
0.020
-0.062
-0.125
-0.207
-0.016
0.035
-0.077
0.003
-0.048
-0.001
-0.034
-0.129
-0.103
0.193
-0.001
-0.021
-0.051
-0.074
-0.084
-0.120
0.061
-0.078
0.098
-0.025
-0.099
0.033
-0.013
-0.020
-0.096
0.014
-0.096
0.061
-0.159
-0.012
0.031
0.057
0.027
-0.115
-0.004
-0.005
-0.172
0.070
0.003
-0.058
0.031
-0.101
0.110
-0.067
0.003
-0.000
-0.062
-0.133
0.022
0.029
-0.028
0.033
-0.101
0.005
-0.013
0.081
0.054
-0.069
-0.145
-0.043
0.016
-0.143
-0.003
-0.093
-0.003
0.132
0.074
-0.008
-0.017
-0.067
0.013
-0.055
-0.070
-0.040
-0.102
-0.009
0.026
-0.089
0.107
0.091
-0.143
-0.043
-0.125
-0.008
-0.050
-0.124
-0.038
0.032
0.055
0.046
0.073
0.011
-0.090
-0.051
-0.082
0.065
0.090
-0.203
0.053
0.060
-0.020
-0.067
-0.035
0.033
-0.139
-0.038
0.063
0.002
-0.048
-0.016
-0.137
-0.013
0.006
0.170
-0.059
-0.173
-0.095
0.048
0.048
-0.050
-0.105
0.129
0.055
-0.035
-0.022
-0.094
0.003
-0.014
-0.038
0.036
-0.092
-0.104
0.074
-0.018
0.027
0.033
-0.009
-0.052
-0.090
0.131
-0.042
-0.062
-0.046
-0.170
0.011
0.091
-0.038
-0.213
0.072
0.035
0.004
0.061
-0.065
-0.066
-0.089
0.070
0.025
-0.038
0.012
-0.050
-0.047
-0.065
-0.006
0.107
-0.035
-0.059
0.014
-0.037
-0.024
-0.212
-0.146
0.084
0.052
0.020
-0.088
0.087
0.080
0.123
-0.105
-0.081
-0.017
-0.057
0.096
0.006
0.106
0.054
0.031
-0.211
-0.730
-0.881
0.502
0.640
0.458
0.107
-0.077
-0.206
-0.282
-0.236
0.081
0.065
0.068
0.012
0.225
0.092
0.044
0.065
-0.167
-0.156
-0.113
-0.135
-0.258
0.008
0.006
-0.042
-0.166
0.067
-0.040
-0.057
-0.040
-0.118
-0.003
-0.003
0.033
0.128
0.025
-0.010
-0.192
0.007
-0.083
-0.015
0.027
-0.009
0.069
0.042
0.071
-0.043
-0.107
-0.046
0.038
-0.024
-0.012
-0.059
0.053
0.013
0.104
-0.041
-0.094
-0.000
-0.019
-0.076
-0.017
-0.001
0.058
0.087
0.019
-0.149
-0.024
-0.143
-0.089
-0.054
0.066
0.119
-0.018
0.047
-0.038
-0.100
0.039
-0.109
-0.118
-1.095
-0.133
0.471
0.824
-2.317
0.659
1.221
1.025
0.579
0.014
-0.438
-0.486
-0.237
0.050
0.172
0.337
0.455
0.297
0.044
-0.026
-0.094
-0.245
-0.336
-0.272
-0.234
-0.215
-0.177
-0.056
-0.063
0.063
0.039
0.012
0.169
0.096
0.152
0.076
0.058
0.122
-0.099
-0.096
-0.158
-0.065
-0.024
0.022
0.029
-0.065
0.160
0.030
0.032
-0.082
-0.087
-0.013
0.020
0.025
0.122
0.040
0.055
0.002
0.019
-0.021
-0.013
-0.011
0.094
-0.040
-0.081
0.011
-0.188
-0.067
0.195
0.206
0.024
-0.110
-0.088
-0.135
-0.090
-0.017
-0.071
-0.040
-0.026
-0.034
0.006
-0.031
-0.131
-0.006
0.105
-0.027
-0.072
-0.045
-0.144
-0.067
0.084
-0.102
-0.063
-0.025
0.027
-0.071
-0.102
0.032
-0.057
0.036
-0.095
-0.011
-0.182
-0.036
-0.031
-0.052
-0.044
0.097
-0.028
-0.018
0.019
-0.027
-0.038
-0.008
-0.084
0.015
-0.022
-0.067
-1.285
-0.196
0.558
0.880
0.212
0.132
-0.165
-0.315
-0.243
-0.129
0.022
0.124
0.163
0.205
0.169
0.082
-0.061
-0.022
-0.058
-0.074
-0.195
-0.075
-0.083
-0.068
0.004
-0.090
-0.112
0.005
-0.023
0.035
-0.049
-0.005
-0.024
0.031
-0.094
-0.064
-0.002
-0.088
0.051
-0.013
-0.085
0.028
0.054
-0.087
-0.038
-0.036
-0.034
0.140
0.074
-0.068
0.038
-0.083
-0.088
-0.008
0.028
0.012
-0.067
0.041
-0.052
-0.107
-0.041
-0.020
0.049
-0.080
-0.007
0.067
0.028
-0.019
-0.025
-0.003
-0.055
0.019
0.019
0.115
0.023
0.020
-0.053
-0.177
-0.077
-0.043
-0.059
0.191
-0.045
-0.260
-0.127
0.101
0.074
0.001
-0.048
-0.073
-0.045
-0.222
0.009
0.054
0.060
0.028
-0.091
0.065
0.135
-0.057
-0.090
-0.232
-0.097
-0.061
0.117
0.086
0.148
-0.022
0.017
-0.096
-0.146
0.002
0.014
-0.034
0.035
-0.009
-0.090
-0.057
0.022
-0.036
0.023
-0.084
-0.010
-0.045
-0.023
-0.028
-0.067
0.032
0.026
0.004
-0.037
-0.056
-0.019
0.003
0.015
0.037
-0.047
0.098
-0.076
-0.024
-0.011
-0.080
0.068
-0.008
0.019
-0.086
-0.007
0.085
-0.017
-0.006
-0.109
-0.114
0.043
-0.026
0.054
-0.050
-0.096
0.004
-0.125
0.064
0.020
0.000
0.066
-0.092
-0.059
-0.031
-0.146
0.026
0.093
0.072
-0.074
-0.082
-0.042
0.015
0.011
-0.080
-0.043
-0.021
-0.062
-0.118
0.120
0.096
-0.124
-0.046
-0.049
-0.058
0.050
-0.003
-0.112
-0.065
0.128
0.149
-0.144
-0.056
-0.105
-0.002
0.032
0.041
-0.035
-0.040
-0.111
0.034
0.067
-0.121
0.005
-0.088
-0.043
0.011
-0.084
0.008
0.068
0.071
0.012
-0.050
-0.156
-0.160
0.078
0.222
0.074
0.056
-0.133
-0.140
-0.039
-0.051
0.007
-0.012
-0.084
-0.040
0.015
0.048
-0.065
-0.084
0.005
0.106
0.004
-0.083
-0.005
-0.078
-0.164
-0.078
0.125
-0.052
0.047
0.005
-0.055
-0.027
0.020
-0.099
-0.180
-0.006
-0.008
-0.059
-0.001
-0.042
-0.074
0.004
0.084
0.223
0.049
-0.179
-0.118
-0.068
0.023
-0.013
-0.066
0.006
0.040
-0.101
-0.124
-0.040
0.023
-0.030
-0.041
-0.180
-1.228
0.161
0.537
0.720
0.276
0.015
-0.229
-0.254
-0.167
-0.060
0.038
0.183
0.150
0.175
0.025
-0.045
-0.011
-0.104
-0.161
-0.124
-0.012
-0.066
-0.127
-0.027
0.051
-0.103
-0.086
-0.049
-0.028
-0.045
0.045
-0.050
-0.057
0.050
0.026
0.004
0.021
-0.017
0.002
-0.196
0.128
0.036
0.103
-0.035
-0.004
-0.085
0.012
0.057
-0.021
0.048
-0.041
0.094
-0.096
-0.162
-0.054
-0.107
0.013
0.030
0.014
0.149
0.008
-0.025
-0.185
-0.095
-0.011
0.031
0.087
-0.029
-0.015
0.041
-0.052
0.012
-0.154
-0.035
-0.068
-0.092
0.161
0.125
0.098
-0.076
-0.097
-0.069
0.006
-0.038
-0.042
0.006
-0.040
-0.076
0.053
0.002
0.010
0.028
-0.056
-0.105
-0.008
-0.057
0.022
-0.032
0.066
-0.126
-0.090
-0.072
0.083
-0.081
-0.043
0.028
-0.029
-0.006
-0.013
-0.083
-0.017
0.050
-0.026
-0.069
0.008
-0.031
-0.005
0.033
-0.048
-0.029
-0.022
-0.070
-0.015
0.004
-0.027
0.034
0.013
-0.055
-0.266
0.159
0.077
-0.095
-0.009
-0.067
-0.013
-0.096
0.007
0.006
-0.110
0.001
0.048
0.032
0.005
0.022
-0.095
-0.055
-0.090
-0.058
-0.024
0.116
0.075
-0.021
-0.013
0.042
-0.011
0.004
-0.058
0.021
-0.104
0.045
-0.113
-0.212
-1.182
-1.582
1.330
1.350
1.071
0.427
-0.361
-0.675
-0.532
-0.214
-0.010
0.300
0.208
0.385
0.279
0.084
0.003
0.019
-0.039
-0.238
-0.293
-0.325
-0.208
-0.056
-0.182
0.056
0.018
0.070
-0.057
0.068
-0.017
0.035
0.045
-0.006
0.074
0.008
-0.007
0.091
-0.077
-0.003
-0.210
-0.058
0.067
0.047
-0.006
0.183
-0.072
-0.072
0.003
-0.002
-0.030
0.097
-0.047
0.079
-0.044
-0.002
-0.114
-0.091
0.057
-0.005
-0.025
0.005
-0.100
-0.042
-0.046
0.022
0.084
0.037
0.003
0.125
0.014
-0.026
-0.113
0.028
0.006
-0.115
-0.099
0.026
-0.059
0.031
0.033
0.031
-0.056
-0.047
0.008
-0.199
0.050
-0.033
-0.051
-0.011
0.028
-0.086
0.049
-0.021
-0.011
-0.079
-0.025
-0.097
0.086
-0.062
-0.223
0.007
-0.133
0.145
0.035
-0.145
0.047
-0.076
-0.103
0.111
0.080
-0.028
0.017
-0.017
0.055
-0.029
0.053
-0.032
0.046
-0.083
-0.073
-0.058
0.041
0.049
0.041
-0.022
0.049
-0.007
-0.043
-0.032
-0.001
0.048
0.066
0.013
-0.102
-0.064
-0.078
0.017
0.003
0.012
0.004
-0.073
-0.091
-0.006
-0.059
0.014
0.017
-0.067
0.081
0.016
0.011
-0.023
-0.088
-0.119
-0.044
-0.060
0.012
-0.008
-0.031
0.089
-0.016
-0.043
-0.043
-0.017
-0.107
-0.167
-0.017
0.090
-0.016
0.154
0.111
-0.085
-0.148
-0.101
0.033
0.072
0.065
0.001
0.008
-0.120
-0.078
-0.105
0.060
-0.153
-0.066
0.068
0.010
-0.072
-0.040
-0.020
-0.060
0.002
0.029
0.052
-0.803
-0.785
0.447
0.692
0.550
0.204
-0.248
-0.172
-0.308
-0.287
-0.034
0.081
0.174
0.127
0.112
0.261
0.033
-0.085
-0.121
-0.115
-0.124
-0.164
-0.140
-0.089
-0.063
0.017
-0.035
0.022
-0.050
0.019
0.010
-0.043
0.012
0.025
0.002
-0.067
-0.096
-0.067
-0.119
-0.025
-0.080
0.007
0.132
-0.032
-0.049
0.005
0.125
0.102
-0.028
-0.052
-0.024
-0.001
-0.055
0.008
-0.051
0.084
0.052
-0.024
-0.083
-0.107
0.029
0.005
-0.017
-0.119
-0.199
0.087
0.005
0.100
0.082
-0.041
0.003
-0.203
-0.018
-0.101
-0.029
0.043
0.037
-0.071
-0.176
-0.070
0.054
0.020
0.171
-0.056
-0.104
0.026
-0.083
-0.049
-0.037
-0.043
0.025
-0.074
0.058
0.008
-0.010
-0.051
-0.115
0.003
0.036
-0.044
-0.087
-0.089
-0.130
-0.102
0.068
0.167
-0.022
-0.073
-0.103
-0.013
-0.061
-0.035
0.015
0.033
-0.056
0.024
-0.055
0.002
-0.077
-0.159
-0.064
0.169
0.082
0.038
0.048
-0.099
-0.035
-0.037
-0.089
-0.010
0.003
0.036
-0.028
-0.062
0.030
-0.021
-0.066
-0.134
0.026
-0.005
-0.015
-0.051
0.048
0.017
-0.091
0.009
-0.056
0.022
0.013
-0.083
-0.011
-0.135
-0.103
-0.019
-0.020
-0.033
-0.011
0.086
-0.042
-0.045
0.113
-0.010
-0.017
0.074
-0.101
-0.005
-0.092
0.085
-0.014
0.071
-0.040
-0.114
0.035
-0.001
-0.078
-0.096
-0.069
-0.069
0.009
-0.038
-0.035
0.006
-0.097
0.023
-0.029
-0.063
-0.089
-0.038
0.045
-0.025
0.136
-0.049
-0.044
-0.005
-0.015
-0.066
-0.022
0.042
-0.027
0.058
-0.033
-0.005
0.012
-0.097
-0.087
-0.087
-0.023
-0.075
-0.138
-0.119
0.074
-0.028
-0.016
0.041
-0.057
-0.036
-0.061
0.012
0.066
-0.054
0.063
-0.013
-0.048
-0.001
0.035
0.103
-0.104
0.042
0.016
-0.081
0.028
-0.169
-0.050
-0.022
0.097
-0.043
0.009
0.009
-0.030
0.005
-0.129
-0.016
0.048
-0.086
-0.839
-0.761
0.563
0.940
0.431
-0.111
-0.222
-0.161
-0.190
-0.160
-0.052
0.107
0.154
0.283
0.169
0.034
0.038
-0.032
-0.071
-0.029
-0.129
-0.126
-0.084
-0.101
0.008
-0.125
-0.006
0.018
0.011
-0.148
-0.021
-0.064
-0.071
0.071
-0.036
-0.071
-0.107
-0.021
0.102
-0.052
-0.112
0.020
-0.064
0.149
0.053
-0.101
-0.129
-0.083
0.012
-0.012
0.038
0.022
0.040
0.046
-0.051
-0.041
-0.077
0.005
-0.026
0.012
-0.091
-0.011
0.003
-0.031
-0.089
0.132
0.062
-0.077
-0.067
0.024
-0.001
-0.047
-0.067
-0.046
-0.057
-0.018
-0.023
-0.022
-0.019
-0.075
-0.106
0.003
-0.050
-0.015
-0.060
-0.049
0.070
-0.031
-0.042
-0.019
0.039
0.054
-0.088
-0.170
-0.002
-0.125
0.039
0.064
-0.077
-0.019
-0.045
-0.056
-0.059
-0.095
-0.046
0.043
0.054
0.011
-0.076
0.072
0.014
-0.093
-0.054
-0.013
-0.113
-0.086
-0.012
0.081
-0.005
-0.005
-0.003
0.051
0.010
-0.045
-0.114
-0.187
0.070
0.206
0.109
0.008
-0.057
-0.136
-0.102
0.030
-0.165
-0.814
-0.551
0.684
0.783
0.500
0.060
-0.209
-0.435
-0.215
-0.145
0.033
0.079
0.060
0.134
0.081
0.149
0.105
-0.115
-0.188
-0.149
-0.076
-0.143
-0.141
-0.060
0.008
-0.041
0.017
-0.100
0.103
0.086
0.002
0.034
-0.284
-0.156
0.080
0.032
0.056
-0.068
0.046
-0.092
-0.056
0.108
0.033
-0.067
-0.089
-0.105
0.121
-0.112
0.060
0.158
-0.021
-0.122
-0.045
-0.003
0.010
-0.102
-0.019
0.002
-0.021
0.015
-0.038
-0.055
-0.116
0.054
-0.016
0.049
-0.027
-0.138
0.128
-0.030
-0.137
0.009
0.058
-0.015
0.072
-0.046
-0.123
0.060
-0.007
-0.141
-0.046
0.018
-0.138
0.054
0.037
-0.051
-0.023
-0.054
-0.026
-0.024
-0.112
-0.042
0.058
0.040
0.020
-0.024
0.014
-0.072
-0.026
-0.170
-0.025
0.116
-0.115
0.012
-0.111
0.038
0.053
-0.132
0.098
0.023
-0.053
-0.036
-0.021
0.060
-0.124
0.110
-0.016
0.017
-0.177
-0.050
0.060
0.009
0.091
-0.055
-0.115
-0.100
0.049
-0.093
-0.022
0.044
0.103
0.048
-0.129
-0.083
0.243
0.025
-0.132
-0.143
-0.098
0.021
0.031
0.085
-0.054
-0.078
-0.060
-0.056
-0.093
0.015
0.098
-0.120
-0.042
0.038
0.033
-0.052
0.006
0.005
-0.125
-0.083
0.034
-0.010
0.015
0.109
-0.136
-0.019
-0.037
0.014
-0.054
0.020
-0.036
-0.032
-0.024
-0.101
-0.001
-0.005
0.026
0.003
0.007
-0.024
-0.050
-0.080
-0.044
0.091
0.005
-0.016
0.045
0.001
-0.011
0.067
-0.138
-0.100
-0.048
-0.017
-0.083
0.035
-0.039
-0.002
0.034
0.067
-0.212
-1.113
0.205
0.528
0.646
0.320
-0.041
-0.112
-0.292
-0.115
0.002
0.078
0.126
0.174
0.141
0.115
-0.060
-0.011
-0.155
0.003
0.066
-0.121
-0.208
-0.151
-0.071
-0.094
0.120
-0.055
0.154
-0.031
-0.004
-0.002
-0.088
-0.015
-0.039
-0.068
0.025
-0.013
-0.016
-0.042
0.100
0.022
-0.116
-0.094
0.084
-0.216
-0.940
0.438
0.533
0.599
0.232
-0.047
-0.267
-0.180
-0.085
-0.029
0.114
0.138
0.141
0.150
0.150
-0.152
-0.314
-0.095
-0.144
-0.013
0.034
-0.096
-0.147
-0.092
-0.099
-0.019
-0.117
-0.007
0.127
0.087
0.080
0.033
0.009
0.067
-0.068
0.031
0.112
-0.100
-0.072
-0.102
-0.023
-0.101
-0.026
0.007
0.007
0.062
-0.059
-0.078
-0.102
-0.012
-0.131
0.040
-0.012
0.067
0.072
-0.171
-0.054
-0.047
-0.001
0.016
-0.100
-0.012
0.071
-0.013
0.005
-0.118
0.008
0.007
-0.120
0.075
-0.045
0.004
-0.053
0.022
-0.028
0.014
-0.044
0.005
0.034
-0.135
-0.121
0.011
-0.062
0.027
-0.088
0.005
-0.001
0.006
-0.064
0.093
0.005
-0.122
0.078
-0.075
0.012
0.031
-0.174
-0.001
-0.020
0.054
-0.141
-0.044
-0.030
-0.059
-0.051
-0.013
-0.036
-0.112
0.062
-0.079
0.002
0.037
0.135
0.096
-0.056
-0.065
0.033
-0.127
-0.088
0.007
-0.112
0.196
0.113
-0.064
-0.134
-0.027
-0.025
-0.053
-0.064
-0.083
-0.101
0.028
0.080
0.024
-0.018
0.058
-0.053
-0.079
-0.091
-0.132
-0.014
-0.011
0.026
-0.010
0.011
0.030
-0.142
0.008
-0.019
-0.115
-0.075
-0.018
-0.011
-0.105
0.015
0.091
0.102
0.035
-0.169
-0.000
0.123
0.056
-0.106
-0.043
0.032
-0.014
0.059
-0.009
-0.103
-0.030
-0.037
0.009
-0.061
-0.080
-0.089
-0.038
-0.062
-0.040
-0.020
0.009
0.008
-0.138
-0.057
0.072
0.128
0.091
-0.109
-0.098
-0.159
0.009
0.140
-0.008
0.064
-0.060
-0.046
-0.031
-0.064
-0.055
0.022
0.036
-0.035
-0.129
-0.036
0.024
-0.070
-0.097
-0.010
-0.032
-0.028
0.054
0.027
-0.091
0.109
-0.026
-0.035
0.037
-0.084
-0.033
-0.021
-0.059
0.015
0.099
0.019
-0.058
0.019
0.033
-0.037
-0.009
-0.116
0.067
0.109
0.025
-0.118
-0.038
-0.005
-0.054
-0.176
-0.037
-0.126
0.270
0.019
-0.021
0.056
-0.060
-0.112
-0.095
0.087
0.051
-0.088
-0.059
-0.043
0.019
0.021
-0.030
-0.082
-0.037
-0.038
-0.072
-0.084
-0.028
0.022
0.031
-0.074
0.086
0.031
-0.164
0.039
-0.020
0.081
0.061
-0.054
0.031
0.037
-0.037
-0.022
-0.031
-0.023
-0.120
0.057
0.007
-0.003
0.066
-0.118
0.013
-0.099
-0.085
0.085
0.133
-0.054
-0.082
-0.044
-0.032
-0.024
-0.041
-0.096
0.101
-0.033
-0.081
-0.026
0.090
-0.036
-0.067
-0.080
-0.001
0.144
-0.063
-0.160
0.065
-0.015
-0.042
0.088
-0.016
-0.042
-0.045
-0.181
-0.039
-0.105
0.112
0.078
-0.137
-0.062
-0.048
-0.039
-0.079
-0.002
0.005
-0.036
0.014
0.023
0.017
-0.171
0.047
0.026
0.073
0.040
-0.149
0.035
-0.085
0.014
-0.078
0.052
0.066
-0.179
-0.017
0.094
0.018
-0.109
-0.053
0.018
0.085
-0.077
-0.067
-0.055
-0.007
-0.097
-0.040
-0.046
-0.036
-0.030
0.002
-0.073
-0.152
-0.174
-0.013
0.108
0.096
0.144
-0.037
-0.111
-0.089
-0.087
-0.013
-0.037
-0.034
-0.054
0.087
0.069
0.034
-0.053
-0.127
-0.168
-0.012
-0.104
0.035
-0.057
0.006
-0.063
-0.064
-0.036
-0.025
-0.037
-0.164
0.004
0.103
-0.057
0.111
0.061
-0.150
-0.067
0.040
-0.024
-0.035
-0.042
0.035
-0.062
-0.049
0.137
0.031
-0.063
-0.043
-0.135
-0.013
-0.057
-0.078
0.145
0.073
0.103
-0.094
-0.061
0.016
-0.101
-0.044
-0.075
0.104
-0.080
-0.039
0.005
-0.019
-0.104
-0.096
-0.029
-0.148
0.020
-0.072
0.065
-0.016
0.073
0.020
-0.105
-0.070
-0.069
0.003
-0.032
-0.039
-0.021
0.014
-0.072
0.123
-0.017
-0.119
-0.038
-0.018
-0.030
-0.047
-0.005
-0.046
0.006
0.012
-0.016
0.103
0.063
-0.067
0.019
-0.048
-0.028
-0.083
0.014
0.013
-0.093
0.016
-0.012
0.009
-0.114
0.079
-0.080
0.001
-0.028
0.027
-0.031
-0.033
0.076
-0.036
-0.032
-0.010
-0.103
-0.057
0.077
-0.041
-0.067
-0.010
0.055
-0.089
0.055
-0.146
-0.179
0.030
0.078
0.056
0.061
-0.082
0.022
-0.017
-1.153
-0.476
0.547
0.787
0.390
0.178
-0.166
-0.225
-0.284
-0.080
0.082
0.098
0.116
0.052
0.011
0.140
0.051
0.007
-0.051
-0.038
-0.271
-0.123
-0.075
-0.106
-0.080
0.055
-0.048
-0.039
-0.074
-0.020
0.157
-0.008
-0.051
-0.183
-0.002
0.050
-0.016
-0.112
-0.028
0.022
0.016
-0.011
-0.030
0.019
0.039
-0.146
0.043
0.109
0.004
0.015
-0.154
-0.037
-0.067
0.114
-0.092
-0.024
-0.047
0.014
-0.013
-0.172
-0.067
0.021
0.024
0.067
-0.106
0.033
-0.008
-0.041
-0.093
0.039
-0.006
-0.012
-0.031
-0.169
0.166
0.179
0.044
-0.131
-0.095
-0.162
0.001
-0.014
-0.046
-1.193
-0.047
0.529
0.780
0.276
-0.045
-0.230
-0.241
-0.225
-0.174
0.071
0.144
0.215
0.144
0.069
0.012
-0.061
-0.074
-0.059
-0.087
-0.148
-0.021
-0.140
-0.084
-0.007
-0.050
0.048
-0.027
-0.071
-0.074
-1.007
-2.000
1.228
1.422
1.183
0.394
-0.124
-0.467
-0.451
-0.388
0.039
0.077
0.368
0.522
0.244
0.064
-0.125
0.009
-0.005
-0.063
-0.178
-0.289
-0.234
-0.236
-0.163
0.010
0.006
0.088
0.051
0.109
0.068
-0.042
0.035
0.073
-0.026
-0.082
-0.123
-0.093
0.117
-0.058
-0.019
-0.111
-0.011
-0.053
-0.019
-0.006
-0.000
0.039
0.148
0.043
-0.038
-0.046
-0.050
-0.030
-0.008
0.071
0.047
-0.035
-0.022
0.036
0.033
-0.044
0.038
-0.059
-0.076
-0.005
0.019
0.009
0.008
-0.006
-0.018
0.015
0.058
-0.102
-0.072
0.005
-0.068
-0.047
-1.293
0.107
0.432
0.751
0.235
-0.006
-0.100
-0.279
-0.393
-0.106
0.085
0.095
0.184
0.271
0.069
0.025
0.078
-0.120
-0.069
-0.269
-0.213
-0.061
-0.169
-0.078
0.025
0.026
-0.041
-0.033
-0.034
0.057
-0.030
-0.102
0.016
-0.055
-0.058
-0.003
0.022
-0.065
-0.017
-0.084
-0.066
0.040
0.091
-0.003
0.030
0.008
-0.161
0.039
-0.019
0.026
-0.053
-0.021
-0.106
0.011
0.158
0.051
0.066
-0.077
-0.159
-0.016
-0.032
0.026
0.014
0.029
0.029
-0.035
0.004
-0.057
-0.163
-0.056
0.091
0.255
0.081
0.117
-0.080
-0.123
-0.054
0.050
-0.001
0.054
-0.034
-0.008
-0.009
-0.085
-0.106
0.015
0.022
-0.089
-0.089
-0.026
-0.063
-0.069
-0.151
-0.052
-0.040
-0.092
0.205
-0.007
-0.092
-0.111
-0.098
0.015
0.224
-0.065
-0.061
0.085
-0.122
-0.003
0.032
-0.074
0.041
-0.035
0.046
0.019
0.008
0.014
0.117
-0.132
-0.063
0.037
0.011
-0.008
0.097
-0.025
0.025
-0.034
-0.101
0.024
0.171
-0.010
-0.045
-0.009
0.009
-0.031
-0.035
-0.057
-0.051
-0.095
-0.059
-0.166
0.077
-0.065
-0.032
-0.013
-0.018
0.066
-0.143
0.045
-0.107
-0.062
-0.040
0.042
0.028
-0.143
-0.050
0.021
-0.087
-0.031
-0.058
-0.187
0.109
-0.016
-0.004
-0.019
0.142
0.002
-0.183
-0.077
-0.092
0.053
0.032
-0.047
-0.080
-0.051
0.090
0.169
0.042
-0.102
-0.150
-0.085
0.075
-0.035
0.009
-0.087
0.009
0.134
0.029
-0.013
-0.074
-0.103
0.043
-0.029
0.038
0.010
-0.001
-0.076
-0.112
-0.040
-0.050
0.040
-0.062
-0.004
0.048
-0.071
-0.088
-0.084
-0.065
0.158
-0.136
-0.018
0.050
0.109
-0.034
-0.042
-0.057
-0.101
-0.054
-0.047
0.161
-0.039
-0.042
-0.014
0.038
-0.004
0.008
0.088
-0.053
-0.035
-0.079
-0.124
0.009
-0.025
-0.037
0.022
0.035
0.051
-0.098
-0.122
-0.053
-0.052
-0.043
-0.054
0.098
-0.000
0.069
0.076
-0.048
-0.035
0.055
-0.014
0.036
-0.075
0.026
-0.154
0.139
-0.067
-0.063
-0.084
-0.045
0.014
-0.042
-0.060
-0.018
-0.026
-0.001
-0.015
0.095
-0.125
-0.040
-0.028
-0.014
-0.032
0.061
0.061
0.137
-0.023
-0.070
-0.176
-0.071
-0.114
0.083
0.003
-0.075
-0.028
-0.120
0.044
0.091
-0.012
-0.077
-0.095
-0.015
-0.065
-0.120
-0.006
0.050
0.042
-0.020
0.026
-0.042
-0.043
-0.145
-0.046
0.140
-0.104
-0.003
0.007
-0.028
-0.088
-0.154
-0.000
0.171
0.087
-0.075
0.011
-0.017
0.037
-0.123
0.000
0.051
-0.070
-0.020
-0.004
0.101
-0.103
-0.125
0.070
0.012
-0.047
-0.026
-0.013
-0.031
0.028
-0.140
-0.033
0.040
-0.074
0.058
-0.059
0.026
-0.008
-0.116
0.026
0.025
0.081
-0.116
-0.006
-0.023
-0.062
-0.003
-0.104
-0.004
0.011
0.027
-0.039
0.092
-0.130
-0.021
0.042
0.060
-0.029
-0.042
-0.037
-0.045
-0.089
0.105
0.058
0.037
-0.139
-0.082
-0.066
-0.054
-0.085
-0.055
-0.051
0.043
-0.046
0.004
-0.024
0.030
0.087
-0.036
-0.005
-0.077
-0.055
-0.168
0.066
0.063
0.004
0.134
-0.122
-0.005
-0.053
-0.109
-0.047
-0.033
0.071
-0.010
-0.143
0.029
0.055
-0.043
-0.086
-0.020
-0.010
0.057
-0.043
-0.101
-0.007
-0.041
0.012
0.113
0.094
0.038
-0.099
-0.067
-0.118
-0.076
-0.049
-0.044
-0.045
-0.013
0.001
-0.011
0.030
-0.031
0.047
-0.003
-0.146
0.035
0.079
-0.035
-0.060
-0.039
-0.092
0.034
-0.114
0.189
-0.027
-1.188
0.151
0.494
0.735
0.235
-0.055
-0.228
-0.284
-0.190
0.066
0.112
0.191
0.152
0.136
0.049
0.024
0.007
-0.097
-0.162
-0.049
-0.155
-0.076
-0.051
-0.016
-0.039
-0.021
0.047
-0.100
-0.051
0.090
0.059
-0.092
0.007
-0.009
0.057
0.031
0.020
0.033
-0.050
0.050
-0.104
-0.003
-0.009
0.057
0.064
-0.109
-0.028
-0.070
-0.029
0.205
0.003
0.054
0.007
-0.013
-0.128
-0.069
-0.201
0.011
0.156
0.145
0.066
-0.023
-0.085
-0.071
-0.122
0.010
0.021
-0.041
0.047
-0.041
-0.027
-0.048
-0.146
-0.006
0.026
0.070
0.050
-0.129
0.010
-0.093
-0.044
-0.082
-0.092
0.016
0.121
-0.051
-0.088
0.094
-0.142
-0.028
-0.079
0.080
0.031
-0.081
-0.077
-0.067
-0.117
-0.050
0.121
-0.029
-0.159
-0.034
-0.034
-0.115
-0.069
0.004
-0.006
0.091
-0.040
-0.836
-0.734
0.503
0.726
0.505
0.204
-0.155
-0.200
-0.312
-0.193
0.050
0.022
0.070
0.155
0.181
0.080
0.056
-0.099
-0.262
-0.135
-0.095
-0.115
-0.154
-0.151
-0.004
-0.011
0.005
-0.027
-0.058
0.013
-0.007
0.001
-0.045
-0.060
-0.063
0.060
0.024
-0.076
0.026
-0.065
0.025
-0.022
-0.107
-0.027
-0.083
-0.009
0.018
0.104
-0.070
0.029
0.198
-0.020
-0.226
-0.078
0.004
-0.049
-0.028
0.014
-0.011
0.100
0.029
-0.028
-0.150
-0.002
0.038
-0.013
0.020
-0.012
-0.143
0.043
-0.034
0.002
-0.067
-0.039
-0.004
0.045
-0.062
-0.183
-0.131
0.095
0.078
0.134
-0.041
-0.098
-0.024
-0.112
0.011
-0.037
0.010
-0.014
-0.019
-0.083
-0.019
-0.139
0.026
-0.009
0.070
-0.073
-0.081
-0.170
-0.035
-0.117
0.068
0.092
0.031
0.057
-0.062
-0.124
-0.140
0.104
0.030
-0.048
-0.162
0.030
0.014
-0.102
-1.166
0.060
0.463
0.778
0.357
-0.138
-0.211
-0.140
-0.156
-0.127
0.048
0.256
0.124
-0.031
0.118
0.116
-0.086
-0.117
-0.018
-0.090
-0.132
-0.204
0.005
-0.129
-0.108
-0.004
0.029
-0.040
-0.101
-0.009
-0.024
-0.003
0.113
-0.050
0.080
-0.091
0.004
0.007
-0.049
0.010
-0.068
-0.005
-0.099
0.130
-0.017
-0.070
-0.100
-0.027
0.070
0.042
-0.051
0.037
-0.046
-0.018
-0.121
-0.149
0.075
0.024
0.007
-0.072
-0.104
0.074
0.106
-0.099
0.012
0.055
-0.014
-0.116
-0.058
-0.072
0.095
-0.070
-0.083
-0.035
0.010
0.065
-0.016
-0.043
0.036
0.006
-0.130
-0.155
0.089
-0.059
0.053
-0.051
-0.122
-0.127
0.026
0.072
0.004
-0.068
0.027
0.051
0.068
-0.134
-0.058
0.030
-0.075
-0.072
-0.081
-0.064
0.095
-0.029
-0.058
-0.104
-0.107
-0.007
0.017
-0.183
0.034
-0.115
0.061
-0.039
-0.054
0.008
-0.075
-0.065
0.142
-0.132
0.018
-0.056
-0.046
0.043
-0.058
-0.053
-0.020
0.111
0.057
-0.035
-0.017
-0.083
-0.028
-0.134
0.040
-0.004
0.049
0.030
-0.064
-0.042
-0.008
0.085
-0.055
-0.104
-0.016
0.033
-0.123
0.068
0.054
-0.044
-0.106
-0.138
-0.161
-0.003
-0.126
0.002
0.076
-0.095
0.021
0.126
-0.174
-0.053
-0.059
0.031
-0.014
0.007
0.060
0.028
0.012
-0.091
-0.046
-0.015
-0.030
-0.016
-0.171
0.058
0.017
-0.097
-0.086
-0.122
0.075
-0.033
-0.135
0.050
-0.077
0.025
0.078
-0.010
-0.008
-0.055
-0.043
-0.015
-0.056
-0.059
-0.144
-0.065
0.116
0.065
-0.023
0.032
-0.051
-0.089
-0.086
-0.006
-0.278
-0.012
0.109
0.160
0.127
0.007
-0.082
-0.039
-0.126
-0.121
0.025
0.096
0.003
0.091
-0.021
-0.111
0.009
-0.137
-0.132
0.037
-0.011
-0.106
-0.033
0.094
0.063
0.036
0.003
-0.046
-0.009
-0.089
0.027
-0.053
-0.008
0.009
0.039
-0.052
-0.059
-0.070
-0.115
0.044
-0.025
-0.134
0.058
-0.069
-0.222
0.064
0.116
-0.039
-0.124
0.061
0.044
-0.022
0.114
0.001
-0.048
-0.034
0.015
0.055
0.065
-0.070
-0.067
-0.033
-0.105
0.012
0.071
-0.015
-0.052
-0.021
-0.008
0.058
-0.079
-0.082
-0.027
-0.034
-0.038
-0.031
0.087
-0.072
0.036
-0.030
-0.029
-0.037
-0.035
-0.038
-0.012
-0.109
-0.013
-0.011
-0.133
-0.057
0.140
-0.013
0.054
-0.079
-0.177
-0.034
0.050
0.051
-0.028
0.074
0.048
-0.071
-0.078
-0.012
-0.001
-0.111
0.022
-0.041
-0.906
-0.627
0.587
0.780
0.333
0.047
-0.080
-0.317
-0.331
-0.162
0.043
0.227
0.071
0.126
0.171
0.057
0.072
-0.071
-0.207
-0.184
-0.032
-0.007
-0.066
0.027
-0.065
-0.222
-0.243
0.092
0.103
0.049
0.012
-0.127
-0.024
-0.008
-0.085
0.018
-0.049
0.026
0.040
0.044
0.055
-0.165
-0.128
0.010
0.115
0.058
-0.023
-0.082
-1.227
-0.157
0.539
0.893
0.408
0.021
-0.374
-0.369
-0.255
-0.017
0.003
0.039
0.221
0.274
0.020
-0.003
-0.125
0.006
-0.132
-0.090
-0.166
-0.250
-0.044
-0.186
-0.020
0.157
-0.036
0.037
0.000
-0.249
-0.056
0.068
0.076
0.038
0.001
-0.065
0.026
0.011
-0.258
-0.087
0.038
0.104
-0.075
0.143
0.093
-0.069
-0.173
-0.012
0.047
0.038
0.073
0.130
-0.043
0.002
-0.085
-0.059
-0.084
-0.140
0.015
0.006
-0.009
-0.078
-0.027
-0.156
0.083
0.031
-0.044
-0.086
-0.045
0.116
-0.157
-0.046
-0.016
-0.032
0.014
-0.132
-0.011
0.090
0.041
-0.120
0.035
0.101
-0.250
0.060
0.166
0.012
-0.120
-0.048
-0.077
0.002
-0.103
-0.040
-0.048
0.012
0.072
0.143
0.026
-0.122
-0.063
0.042
-0.083
0.020
-0.012
-0.133
-0.064
-0.023
-0.015
-0.017
-0.029
0.009
0.006
-0.073
-0.049
-0.118
0.002
0.049
-0.075
-0.061
-0.010
0.089
-0.030
-0.027
0.018
-0.043
-0.125
-0.027
0.055
-0.006
-0.024
0.069
0.023
-0.033
-0.074
-0.148
-0.056
-0.126
-0.116
0.098
0.094
0.063
0.049
-0.175
-0.107
-0.077
0.033
-0.041
0.028
-0.003
0.122
-0.024
-0.132
-0.014
-0.134
0.036
-0.023
-0.059
-0.142
-0.013
0.167
-0.053
-0.130
-0.096
-0.006
-0.081
-0.112
0.009
0.002
0.018
0.064
0.019
-0.055
-0.117
-0.122
-0.025
0.312
0.008
-0.247
-0.082
0.041
0.115
0.020
-0.015
-0.058
-0.021
-0.044
0.140
-0.007
0.092
0.046
0.030
0.026
-0.027
-0.114
-0.186
0.032
0.000
-0.087
-0.111
0.055
0.016
-0.026
-0.040
-0.090
0.029
-0.048
-0.093
-0.156
-0.017
-0.046
-0.054
0.006
0.010
-0.013
-0.025
-0.007
-0.082
-0.075
-0.065
-0.035
0.013
-0.067
-0.008
0.011
-0.098
0.011
0.029
0.087
0.007
-0.026
0.085
-0.025
-0.069
-0.068
0.053
0.078
-0.071
0.003
0.083
-0.061
-0.022
-0.042
0.041
-0.012
-0.122
-0.034
-0.053
0.055
-0.053
-0.051
-0.037
-0.034
-0.053
-0.043
-0.128
-0.005
-0.120
-0.018
-0.127
0.126
0.115
0.075
-0.010
-0.015
-0.077
-0.080
-0.059
0.020
-0.012
-0.057
-0.015
-0.007
0.004
-0.083
-0.085
0.080
-0.048
-0.093
-0.040
0.017
-0.093
-0.059
0.014
0.003
0.069
0.163
-0.038
-0.018
-0.019
-0.161
-0.024
0.034
0.186
-0.053
0.022
-0.125
-0.095
-0.015
0.073
0.002
-0.039
-0.004
0.063
-0.101
0.022
-0.079
-0.070
-0.004
0.051
0.011
0.036
-0.071
0.056
0.062
-0.023
-0.017
-0.043
-0.002
-0.018
0.034
-0.060
0.020
0.055
-0.043
-0.147
0.127
-0.060
-0.024
-0.093
-0.086
0.068
-0.142
-0.012
-0.016
-0.096
-0.078
0.034
-0.013
-0.000
-0.055
-0.014
-0.025
0.097
-0.074
-0.005
-0.060
0.045
-0.070
-0.023
-0.004
-0.005
-0.016
-0.046
0.069
0.094
0.029
-0.010
-1.069
-0.384
0.526
0.720
0.226
0.101
-0.087
-0.391
-0.328
-0.020
0.245
0.189
0.086
0.153
-0.145
-0.069
-0.067
0.067
-0.107
0.013
0.007
-0.055
-0.259
-0.090
0.078
-0.082
-0.180
-0.171
0.068
-0.037
-0.104
-0.021
-0.044
0.140
-0.001
-0.038
-0.121
-0.242
-0.070
-0.035
-0.061
0.202
0.078
0.126
-0.026
-0.029
0.097
-0.123
0.005
-0.033
0.010
0.043
0.128
0.085
0.026
0.050
-0.081
-0.058
-0.077
-0.041
-0.078
-0.073
-0.083
-0.082
-0.126
0.049
0.013
-0.184
-0.004
0.036
-0.027
0.058
-0.076
-0.064
-0.066
-0.065
0.016
-0.085
0.025
0.010
-0.011
-0.053
-0.027
0.044
-0.042
0.001
-0.034
-0.099
0.049
-0.126
0.019
-0.033
-0.056
-0.033
-0.010
0.008
0.053
-0.075
0.119
0.110
-0.058
-0.190
-0.047
0.067
0.045
-0.061
-0.036
-0.023
0.018
0.016
-0.093
0.095
0.004
-0.042
-0.084
-0.152
-0.078
-0.052
0.037
0.056
0.040
-0.031
-0.037
-0.050
0.024
0.068
-0.018
-0.132
-0.069
-0.109
-0.019
0.007
-0.119
-0.105
0.073
0.212
0.177
-0.098
-0.030
-0.191
-0.154
-0.077
0.056
0.215
0.046
-0.116
0.088
0.026
-0.029
0.036
0.006
-0.053
-0.087
-0.055
0.025
0.046
-0.167
-0.009
-0.201
0.014
0.004
-0.016
0.021
-0.014
-0.021
-0.072
-0.031
-0.075
-0.039
0.024
-0.023
0.087
0.060
0.073
-0.025
0.052
-0.118
-0.036
-0.017
-0.088
-0.066
0.016
0.140
0.081
-0.049
-0.003
-0.074
-0.071
-0.143
-0.137
0.012
0.123
0.080
-0.105
-0.589
-1.086
0.440
0.739
0.672
0.154
-0.057
-0.251
-0.351
-0.168
-0.093
0.058
0.166
0.245
0.044
0.050
-0.002
-0.027
-0.126
-0.134
-0.191
-0.086
-0.073
-0.055
-0.109
-0.015
-0.034
-0.112
0.032
0.050
-0.047
0.067
0.040
0.014
-0.071
0.025
-0.004
-0.172
-0.056
0.077
-0.021
-0.074
-0.001
0.011
0.123
-0.045
0.019
-0.023
-0.011
0.109
-0.118
-0.208
-0.044
0.054
0.112
-0.090
0.038
0.058
-0.121
-0.167
0.020
0.104
0.076
-0.079
-0.266
-0.175
-0.007
-0.063
0.092
0.114
0.207
0.065
-0.091
-0.195
-0.112
0.007
0.042
-0.075
0.081
0.016
0.100
0.010
0.022
-0.043
-0.135
0.074
-0.013
-0.067
-0.065
-0.030
-0.086
-0.122
-0.197
-1.113
0.233
0.619
0.741
0.237
0.038
-0.272
-0.252
-0.111
-0.073
0.064
0.028
0.121
0.143
0.101
0.072
-0.054
-0.086
-0.045
-0.246
-0.118
-0.037
-0.053
-0.172
0.002
0.091
0.054
-0.027
0.020
-0.052
-0.003
-0.024
-0.038
0.099
0.021
-0.018
-0.091
0.067
0.070
-0.029
-0.079
-0.085
-0.108
0.153
-0.003
0.026
0.022
0.071
0.047
-0.039
-0.084
-0.061
-0.017
0.024
0.039
0.010
0.087
0.058
0.082
-0.128
-0.205
0.079
0.012
-0.068
0.024
-0.052
-0.026
0.013
-0.122
0.007
0.033
-0.058
-0.033
-0.052
-0.092
0.018
-0.063
0.083
-0.071
-0.021
0.006
-0.102
0.022
-0.056
-0.001
-0.010
0.081
-0.152
-0.104
0.105
0.051
0.033
0.085
-0.082
-0.147
-0.095
-0.033
-0.035
0.000
-0.041
-0.115
0.133
0.134
0.084
-0.140
-0.108
-0.143
-0.118
-0.080
0.029
-0.037
0.072
0.133
-0.062
-0.024
0.050
0.055
-0.032
-0.072
-0.133
-0.014
-0.076
0.024
-0.081
0.051
0.125
-0.035
-0.009
-0.062
-0.077
-0.096
-0.048
0.012
-0.061
-0.044
-0.941
-0.587
0.592
0.750
0.431
0.026
-0.276
-0.283
-0.166
-0.130
0.096
0.127
0.119
0.091
0.019
0.084
0.069
0.025
-0.058
-0.085
-0.129
-0.205
-0.177
0.117
0.063
-0.100
-0.053
-0.041
-0.118
-0.091
0.050
0.074
-0.116
-0.015
0.038
0.202
-0.130
0.029
-0.074
-0.017
-0.027
-0.005
-0.150
-0.029
0.122
0.069
-0.021
0.039
-0.097
-0.032
-0.056
0.018
0.036
-0.050
0.023
-0.102
-0.025
-0.162
0.121
-0.046
0.092
0.044
-0.083
0.096
-0.172
-0.095
0.040
-0.058
-0.015
0.072
0.054
0.057
-0.062
-0.090
-0.105
-0.061
-0.040
-0.097
-0.143
0.175
0.238
0.158
-0.138
-0.176
-0.092
-0.155
-0.134
0.093
0.049
-0.001
0.059
-0.043
-0.113
-0.022
-0.021
-0.045
-0.087
-0.047
-0.002
0.050
-0.035
-0.109
0.067
0.035
0.103
0.104
-0.036
-0.201
0.003
0.046
0.055
0.019
-0.079
-0.093
-0.110
0.013
-0.042
-0.075
0.022
-0.101
-0.031
0.088
-0.031
-0.035
-0.002
-0.053
0.089
0.053
-0.137
0.025
-0.077
0.052
0.013
0.026
-0.116
-0.104
-0.015
0.045
-0.042
0.027
0.034
-0.033
-0.007
-0.060
-0.100
-0.102
0.017
0.037
0.026
-0.060
-0.116
-0.069
0.064
0.062
0.049
-0.090
-0.023
-0.099
0.025
0.005
-0.096
-0.042
-0.900
-0.684
0.557
0.703
0.604
0.193
-0.064
-0.359
-0.256
-0.200
-0.082
0.037
0.147
0.220
0.191
-0.006
-0.061
-0.095
-0.038
-0.024
-0.087
-0.095
-0.092
-0.080
-0.106
-0.102
-0.048
-0.083
-0.110
0.027
0.138
0.224
0.072
-0.089
-0.154
-0.138
-0.112
-0.009
0.111
-0.031
0.018
-0.151
0.001
-0.044
0.014
-0.076
0.093
0.045
-0.067
-0.056
-0.068
-0.009
0.001
-0.026
-0.128
-0.144
0.005
0.017
0.057
-0.010
-0.012
0.025
-0.066
0.021
-0.142
0.021
0.113
-0.051
-0.031
-0.027
0.022
0.051
-0.055
-0.057
0.086
-0.098
0.015
0.267
-0.016
-0.191
-0.225
-0.109
-0.060
-0.013
-0.057
0.006
0.017
0.065
0.023
-0.036
0.061
-0.095
-0.009
-0.077
-0.097
-0.091
0.030
0.041
0.004
0.034
-0.012
-0.200
0.023
-0.043
-0.025
-0.025
-0.157
0.000
-0.077
-0.062
-0.295
-1.105
0.253
0.538
0.721
0.204
-0.070
-0.124
-0.310
-0.124
0.053
-0.001
0.039
0.059
0.069
0.247
0.151
0.041
-0.035
-0.143
-0.163
-0.174
-0.096
-0.090
0.041
-0.016
0.009
0.008
-0.113
-0.122
0.073
-0.102
0.063
0.021
0.014
-0.077
-0.000
0.014
-0.069
0.005
-0.059
-0.088
-0.105
-0.193
0.129
0.046
0.046
0.059
-0.009
-0.180
-0.039
-0.002
0.080
-0.004
-0.091
-0.078
0.057
0.065
0.012
-0.020
-0.074
-0.043
-0.066
0.059
0.041
-0.057
-0.090
0.045
-0.101
-0.032
-0.004
0.046
-0.099
0.091
0.043
0.057
-0.135
-0.056
-0.123
-0.034
0.167
-0.034
-0.015
-0.038
-0.064
-0.017
-0.069
-0.025
0.037
0.051
-0.008
-0.078
-0.062
-0.018
-0.009
-0.011
-0.010
-0.032
-0.046
-0.080
-0.002
0.006
-0.090
-0.100
0.042
0.021
0.038
-0.018
0.033
0.037
-0.009
-0.104
-0.081
0.030
-0.054
-0.060
-0.111
-0.087
-0.050
-0.034
-0.006
0.085
0.024
-0.012
-0.043
0.004
-0.061
-0.048
-0.045
-0.069
0.015
-0.077
-0.018
-0.081
-0.083
0.095
-0.077
-0.021
0.087
0.040
-0.023
0.086
0.009
-0.076
-0.014
0.098
-0.028
0.052
-0.012
0.067
0.000
-0.053
0.007
-0.118
0.057
-0.123
-0.089
-0.101
-0.060
-0.028
-0.086
-0.019
-0.136
0.294
0.028
-0.149
-0.209
-0.043
0.116
0.048
0.070
0.083
-0.120
-0.174
-0.074
0.044
-0.081
0.020
-0.069
0.019
0.035
-0.063
-0.001
-0.013
-0.003
-0.126
-0.037
-0.056
-0.029
0.004
0.020
0.087
0.147
0.095
-0.074
-0.084
-0.073
-0.045
-0.019
0.002
-0.012
0.035
-0.105
-0.041
0.119
0.021
0.033
-0.002
-0.096
-0.100
-0.102
-0.099
-0.028
0.003
0.058
0.096
0.090
-0.141
-0.017
-0.071
-0.113
-0.029
-0.055
0.052
-0.066
0.000
0.001
-0.045
-0.030
-0.023
-0.012
-0.002
0.033
0.047
-0.039
-0.144
-0.044
-0.031
0.113
0.014
0.000
-0.363
-1.025
0.316
0.719
0.730
0.092
-0.131
-0.263
-0.377
-0.145
-0.029
0.121
0.092
0.125
0.142
0.140
-0.047
-0.032
-0.119
-0.238
-0.159
-0.114
-0.017
-0.034
-0.075
-0.056
-0.069
0.031
0.073
-0.031
-0.034
0.008
-0.003
-0.023
-0.030
-0.119
0.011
0.018
-0.051
0.102
-0.111
-0.231
-0.076
0.149
0.063
0.170
-0.069
-0.011
0.140
-0.072
-0.168
-0.073
-0.110
0.020
0.059
0.046
0.066
0.037
-0.119
-0.103
-0.048
-0.099
-0.069
0.028
0.091
-0.062
-0.083
-0.017
0.042
-0.050
-0.008
-0.015
-0.040
-0.013
0.020
-0.058
0.016
-0.091
-0.036
-0.056
-0.041
0.023
-0.015
-0.127
0.129
-0.009
-0.004
-0.069
0.013
0.063
-0.047
-0.036
-0.093
-0.015
-0.019
-0.013
-0.005
0.044
0.020
0.014
-0.083
-0.068
-0.101
0.046
-0.049
-0.076
0.055
-0.094
0.022
0.069
0.031
0.032
0.021
-0.051
0.028
-0.131
-0.105
-0.016
0.045
-0.061
0.077
0.102
0.085
-0.182
-0.166
-0.068
0.005
0.076
0.006
-0.066
-0.046
0.037
-0.077
-0.090
0.016
-0.074
0.042
0.125
-0.061
0.045
-0.110
-0.219
-0.201
-0.088
-0.068
0.109
0.070
0.078
0.062
-0.027
-0.138
-0.040
0.038
0.084
0.081
0.088
-0.012
0.013
-0.100
0.014
0.072
0.018
0.068
-1.194
-0.339
0.491
0.594
0.317
-0.006
-0.114
-0.302
-0.103
-0.053
-0.035
0.135
0.131
0.151
0.150
0.032
-0.077
-0.230
-0.120
-0.029
-0.171
-0.167
-0.187
-0.141
0.170
-0.011
0.051
-0.037
0.000
-0.071
-0.039
0.117
-0.019
0.023
0.044
-0.008
-0.032
-0.079
0.103
0.065
0.025
-0.048
-0.072
0.084
-0.096
-0.134
-0.078
-0.073
0.039
0.032
-0.052
0.015
0.063
0.004
-0.047
-0.066
-0.031
0.074
-0.048
0.066
0.145
-0.105
-0.125
-0.034
-0.096
0.013
-0.070
0.042
0.049
0.049
-0.165
0.027
-0.006
-0.036
-0.106
-0.049
-0.026
-0.088
0.001
-0.051
-0.026
0.065
-0.086
0.054
0.040
-0.089
-0.080
-0.066
-0.158
-0.211
0.045
0.059
0.090
0.020
-0.012
-0.054
-0.005
-0.086
0.083
0.021
-0.096
-0.152
-0.054
-0.094
0.111
0.123
0.071
-0.062
-0.020
-0.051
-0.057
-0.135
-0.019
-0.076
0.027
-0.094
-0.064
-0.053
-0.069
0.098
0.068
-0.078
-0.023
-0.049
-0.022
-0.001
0.112
-0.063
-0.034
-0.100
-0.056
0.023
-0.050
0.048
0.052
0.015
-0.152
-0.002
-0.093
0.001
-0.042
-0.140
-0.013
-0.058
-0.158
0.071
0.101
-0.077
0.072
0.187
-0.189
-0.031
0.008
0.005
0.068
-0.079
-0.158
0.024
0.051
0.091
-0.042
-0.077
0.079
-0.076
-0.065
-0.010
-0.031
0.067
0.031
-0.026
-0.004
-0.079
-0.034
-0.067
-0.153
-0.076
0.065
-0.109
-0.061
0.013
0.200
0.022
-0.038
-0.150
-0.109
-0.057
0.077
0.010
-0.041
-0.024
0.029
-0.038
-0.014
0.024
-0.170
0.029
-0.046
0.129
-0.055
0.011
0.017
-0.098
-0.065
-0.016
0.121
0.023
-0.160
0.058
-0.062
-0.460
-1.051
0.223
0.478
0.724
0.428
-0.092
-0.306
-0.348
-0.203
-0.114
0.113
0.198
0.070
0.264
0.058
0.032
0.010
-0.086
-0.182
-0.021
-0.033
-0.161
-0.193
-0.191
-0.078
-0.031
-0.001
0.085
0.002
-0.049
-0.059
-0.024
-0.074
0.020
-0.060
-0.138
-0.025
0.053
0.045
-0.066
0.052
-0.102
-0.042
-0.030
0.110
-0.034
-0.025
0.042
0.064
-0.088
0.020
0.024
0.000
0.066
0.120
-0.018
-0.074
-0.151
-0.010
0.003
0.017
-0.036
-0.078
-0.009
-0.012
0.026
-0.059
0.007
-0.130
0.024
-0.017
-0.042
-0.039
0.143
-0.029
-0.025
-0.117
-0.095
0.022
-0.085
-0.044
0.025
-0.053
0.030
0.020
-0.107
-0.132
-0.090
-0.051
0.042
-0.050
-0.026
-0.000
-0.076
0.064
0.011
-0.093
0.134
-0.018
-0.080
-0.083
-0.017
0.031
-0.085
-0.047
0.058
0.210
-0.009
-0.045
-0.169
-0.156
-1.036
-0.400
0.617
0.827
0.334
0.029
-0.087
-0.278
-0.378
-0.132
0.138
0.124
0.084
0.082
0.093
-0.007
0.010
-0.046
-0.121
-0.128
-0.255
-0.283
-1.157
0.293
0.582
0.584
0.143
-0.087
-0.350
-0.029
0.054
-0.136
0.122
0.126
0.194
0.071
-0.019
-0.112
0.020
-0.053
-0.093
-0.065
-0.142
-0.008
-0.159
-0.163
-0.000
-0.007
-0.038
-0.075
0.127
0.026
-0.078
0.002
0.040
-0.032
0.054
-0.042
-0.003
0.077
0.008
-0.083
0.014
-0.090
0.053
0.023
-0.072
-0.017
-0.005
0.028
-0.027
0.006
0.051
-0.040
0.013
-0.093
0.024
-0.066
-0.132
0.005
-0.024
-0.044
0.122
0.035
0.007
-0.184
-0.124
-0.092
0.138
-0.006
0.085
0.073
0.114
-0.101
-0.122
-0.047
-0.010
-0.017
0.047
-0.064
0.135
0.067
-0.101
-0.043
-0.051
-0.112
-0.025
-0.037
-0.066
-0.091
0.124
-0.030
0.012
0.008
-0.189
-0.165
-0.076
0.075
0.094
0.068
0.021
-0.085
-0.065
0.046
0.083
-0.072
0.015
-0.167
0.004
-0.038
-0.064
0.052
0.086
-0.015
0.008
0.093
-0.130
-0.222
-0.056
0.062
0.129
0.147
-0.012
-0.110
-0.101
-0.071
0.030
0.053
-0.005
-0.024
0.065
-0.149
-0.063
-0.003
-0.014
0.050
-0.060
-0.051
-0.015
-0.106
-1.056
-0.298
0.593
0.780
0.380
0.094
-0.067
-0.239
-0.377
-0.119
-0.001
0.133
0.071
0.093
0.199
0.132
-0.035
-0.091
-0.119
-0.150
-0.139
-0.089
-0.143
-0.145
-0.087
-0.017
-0.030
0.010
-0.192
0.018
-0.006
-0.001
0.067
0.031
-0.023
-0.108
0.013
-0.095
0.052
-0.074
0.012
0.073
-0.022
0.014
0.092
-0.091
0.036
0.051
-0.072
-0.162
-0.098
-0.063
-0.060
0.081
-0.020
0.021
-0.038
0.028
-0.072
-0.045
-0.066
-0.063
-0.013
-0.058
0.082
-0.014
-0.035
-0.019
-0.009
0.006
0.066
-0.017
-0.057
-0.078
-0.052
0.071
-0.033
-0.051
-0.004
-0.001
-0.053
-0.019
-0.050
-0.082
0.009
-0.117
-0.240
-0.086
0.183
0.098
0.093
-0.075
-0.057
0.049
0.040
-0.059
-0.157
-0.033
0.085
-0.055
-0.021
-0.026
-0.057
-0.007
0.008
-0.035
-0.061
-0.097
-0.101
-0.141
-0.002
0.069
0.045
-0.132
0.004
-0.023
-0.075
0.036
-0.107
-0.154
0.013
0.050
0.019
-0.111
0.078
-0.064
-0.042
0.083
-0.008
0.064
-0.104
-0.036
-0.006
-0.042
-0.039
0.042
-0.016
0.029
-0.065
-0.049
-0.058
0.027
-0.008
-0.044
-0.069
0.022
-0.096
-1.338
-0.201
0.452
0.962
0.381
0.005
-0.335
-0.238
-0.091
-0.100
0.045
0.063
0.078
0.096
0.167
0.072
-0.053
-0.020
-0.099
-0.137
-0.171
-0.158
-0.118
-0.043
-0.107
-0.066
-0.104
0.089
0.033
0.001
-0.014
0.019
0.033
-0.083
-0.011
-0.061
-0.041
0.004
0.014
-0.108
-0.103
0.184
0.197
-0.143
-0.074
-0.033
-0.105
0.079
-0.023
0.049
-0.107
-0.019
-0.015
0.062
-0.030
0.043
-0.040
0.003
-0.019
-0.056
-0.046
-0.119
-0.021
0.108
0.155
-0.062
-0.094
0.095
-0.159
-0.199
-0.122
-0.083
0.010
0.027
0.022
0.001
0.009
-0.012
-0.052
-0.124
-0.140
-0.157
0.137
0.013
0.063
-0.039
-0.105
-0.030
0.007
-0.072
0.046
-0.090
-0.119
-0.047
0.039
-0.022
-0.075
-0.013
0.018
0.036
-0.182
-0.154
-0.035
0.049
0.061
-0.023
-0.037
0.095
0.038
-0.135
-0.025
0.022
-0.040
-0.131
-0.031
0.101
0.017
0.155
0.077
-0.164
-0.106
-0.083
-0.095
-0.088
-0.108
0.012
0.161
-0.039
-0.032
-0.112
0.001
-0.075
-0.030
0.050
0.048
0.004
-0.058
-0.099
0.038
0.102
0.126
-0.001
-0.096
-0.025
-0.011
-0.036
-0.257
0.046
0.113
-0.022
-0.127
-0.046
0.021
-0.019
0.048
0.083
0.009
0.024
0.112
-0.041
0.022
-0.202
-0.065
-0.030
0.036
0.000
-0.005
-0.083
-0.056
-0.133
-0.025
-0.103
-0.018
0.023
0.033
0.036
0.033
-0.058
-0.118
0.038
0.017
0.077
0.112
0.050
-0.064
-0.122
-0.072
0.028
0.082
0.120
0.063
-0.061
-0.168
-0.160
0.029
0.118
0.040
-0.014
-0.005
-0.047
-0.060
-0.056
0.010
-0.053
0.052
-0.027
0.054
-0.049
-0.013
-0.061
0.016
-0.075
-0.066
-0.043
0.002
0.008
-0.009
-0.082
-0.055
-0.015
0.140
-0.090
-0.065
0.061
-0.004
-0.068
0.026
-0.076
0.051
0.050
-0.030
-0.010
-0.000
-0.007
-0.014
0.042
-0.008
-0.096
0.020
-0.014
0.089
0.137
-0.021
-0.130
0.003
-0.048
-0.012
-0.077
-0.022
0.013
-0.083
-0.112
0.005
0.157
0.069
-0.024
-0.096
-0.013
-0.159
-0.135
0.145
-0.048
-0.024
-0.012
0.051
0.009
0.034
-0.081
-0.026
-0.072
-0.068
0.040
-0.026
-0.041
-0.021
0.004
-0.005
0.041
-0.071
0.077
-0.075
0.000
-0.058
-0.042
0.033
0.010
-0.040
0.141
0.023
-0.076
-0.067
-0.022
-0.099
0.092
0.067
-0.058
-0.083
-0.542
-0.917
0.400
0.662
0.522
0.125
-0.089
-0.366
-0.223
-0.241
-0.176
0.183
0.266
0.145
0.110
0.098
-0.020
-0.152
-0.107
-0.031
-0.125
-0.153
-0.063
-0.095
0.074
-0.143
-0.010
0.047
-0.010
0.022
-0.078
-0.110
0.008
0.018
0.068
0.065
0.043
0.017
-0.162
-0.034
-0.108
0.011
-0.035
-0.146
0.097
0.056
0.048
0.029
-0.190
-0.057
0.119
0.038
-0.027
-0.129
-0.028
-0.029
-0.030
0.011
0.015
-0.006
-0.054
-0.020
-0.126
-0.054
-0.042
0.062
-0.023
0.074
-0.026
0.112
-0.088
-0.090
0.055
-0.116
-0.080
0.061
0.048
-0.106
-0.107
-0.051
-0.098
-0.105
-0.004
0.115
-0.013
-0.075
0.024
-0.074
-0.164
0.044
0.163
0.089
-0.065
-0.074
0.026
-0.031
0.081
-0.041
-0.100
-0.038
-0.060
-0.045
-0.114
0.127
0.041
-0.039
-0.124
-0.169
-0.096
-0.014
-0.058
0.038
-0.008
0.039
-0.059
-0.036
0.072
-0.025
-0.078
0.026
-0.008
-0.009
0.006
-0.039
0.020
0.014
-0.112
0.014
0.015
-0.030
-0.032
0.045
-0.077
0.024
-0.109
-0.055
-0.041
0.097
-0.044
-0.051
0.077
0.101
-0.047
0.048
-0.066
-0.108
-0.051
-0.258
-1.068
0.256
0.598
0.676
0.202
-0.212
-0.243
-0.272
-0.174
0.016
0.004
0.091
0.116
0.095
0.113
-0.040
-0.053
-0.080
-0.064
-0.092
-0.030
-0.173
-0.038
-0.074
-0.067
0.022
-0.044
0.004
-0.127
-0.036
0.081
0.087
0.018
-0.026
-0.053
-0.047
-0.018
-0.079
0.007
0.055
-0.046
-0.109
-0.048
-0.003
0.066
0.041
-0.001
-0.048
-0.141
0.131
0.038
0.006
-0.205
-0.147
0.079
-0.000
0.061
0.029
-0.052
-0.055
-0.040
0.086
0.027
-0.019
-0.126
-0.044
-0.130
-0.049
-0.034
0.087
0.024
0.008
-0.018
-0.029
-0.053
-0.043
-0.020
-0.009
-0.122
-0.009
0.029
-0.086
0.045
-0.075
-0.119
-0.124
-0.090
0.080
-0.028
0.098
-0.011
0.021
-0.038
-0.036
0.006
0.044
-0.086
-0.063
0.005
-0.011
-0.025
-0.043
0.030
-0.065
-0.086
-0.024
-0.041
0.035
-0.068
-0.120
0.108
0.003
0.036
-0.007
-0.009
0.030
-0.088
-0.109
-0.301
-0.929
0.300
0.683
0.725
0.161
-0.131
-0.275
-0.354
-0.332
-0.045
0.142
0.237
0.119
0.114
0.073
-0.009
-0.187
-0.147
-0.060
-0.147
-0.082
-0.073
-0.111
-0.056
-0.131
0.010
0.071
0.070
0.049
-0.037
0.006
-0.023
-0.028
-0.066
-0.108
0.096
-0.048
-0.046
-0.163
-0.126
0.037
0.089
0.064
-0.105
0.046
0.072
0.027
-0.038
-0.100
0.036
0.059
-0.034
0.121
-0.003
-0.031
-0.070
-0.071
0.118
-0.002
0.120
-0.110
-0.148
-0.073
-1.201
0.169
0.451
0.785
0.350
-0.039
-0.143
-0.219
-0.252
-0.089
0.005
0.119
0.084
0.120
0.077
0.104
-0.066
-0.113
-0.224
-0.213
-0.085
0.043
-0.051
0.019
-0.045
-0.057
-0.099
0.022
0.038
0.017
0.082
0.025
-0.082
0.028
0.014
-0.063
-0.056
-0.096
-0.015
0.043
-0.018
-0.003
-0.017
-0.051
-0.072
-0.002
0.037
-0.043
-0.056
-0.043
0.064
0.025
0.017
0.015
-0.027
-0.059
-0.067
-0.058
-0.196
0.099
0.311
0.027
-0.066
-0.193
-0.106
-0.115
-0.117
0.060
0.067
0.064
0.048
-0.013
0.011
-0.162
-0.195
-0.080
0.062
-0.002
-0.086
-0.065
0.107
-0.007
-0.005
-0.117
-0.140
-0.008
0.057
-0.130
0.083
-0.054
0.056
-0.051
-0.132
-0.090
0.005
0.013
0.071
0.018
0.067
-0.046
0.049
-0.143
-0.124
-0.161
-0.069
0.032
0.073
-0.105
-0.107
-0.000
0.031
-0.041
0.024
-0.003
-0.083
-0.038
-0.003
-0.018
0.065
-0.042
0.021
0.033
-0.058
0.006
-0.039
-0.063
-0.023
-0.033
-0.050
-0.049
0.140
-0.018
-0.145
-0.048
0.025
0.006
-0.033
0.004
0.060
0.053
0.014
-0.065
-0.125
0.038
-0.029
-0.003
-0.005
-0.015
0.051
-0.020
-0.121
-0.286
0.108
0.095
-0.058
-0.146
-0.023
0.040
-0.024
0.134
-0.000
-0.104
-0.171
-0.038
-0.035
-0.075
-0.075
0.076
0.068
0.056
-0.038
-0.041
0.015
-0.187
-0.018
0.040
-0.010
-0.040
-0.065
-0.178
0.064
0.158
0.135
-0.091
-0.141
-0.035
-0.023
0.068
0.157
0.049
-0.202
-0.041
-0.088
-0.213
0.019
0.019
0.077
0.019
-0.070
-0.117
-0.027
-0.012
0.064
-0.015
-0.018
0.079
-0.106
0.039
-0.124
-0.084
0.043
0.048
0.047
-0.015
0.058
-0.166
-0.084
-0.200
0.002
0.136
0.117
0.056
-0.127
-0.095
-0.010
-0.029
-0.124
-0.063
-0.151
0.046
0.009
-0.012
-0.124
0.019
-1.210
-0.081
0.424
0.859
0.354
0.054
-0.250
-0.167
-0.200
-0.074
0.081
0.020
0.219
0.100
0.129
0.057
0.065
-0.074
-0.036
-0.039
-0.245
-0.124
-0.020
-0.007
-0.042
-0.074
0.036
-0.074
0.002
-0.007
-0.030
-0.061
-0.015
0.004
-0.154
-0.143
-0.108
-0.007
-0.070
-0.017
0.007
-0.076
0.112
0.046
-0.089
-0.006
-0.042
-0.014
-0.021
0.050
0.066
-0.028
0.021
0.011
0.043
0.035
0.015
-0.094
-0.133
0.033
0.019
0.038
-0.061
-0.004
-1.150
-0.353
0.513
0.860
0.378
0.208
-0.218
-0.308
-0.297
-0.146
0.027
0.071
0.242
0.180
0.079
0.124
-0.069
-0.072
-0.272
-0.327
-0.244
-0.091
0.000
-0.034
-0.096
-0.058
-0.054
-0.079
0.130
-0.048
0.093
-0.116
-0.057
0.038
0.032
-0.154
0.107
0.057
0.050
-0.097
-0.008
-0.057
0.083
-0.054
-0.004
-0.052
0.092
-0.218
0.028
-0.082
-0.110
0.027
0.003
0.027
0.072
0.037
0.017
0.027
-0.021
-0.094
-0.067
-0.086
-0.067
-0.016
-0.007
0.033
-0.007
0.005
-0.018
0.098
0.076
0.031
-0.185
-0.192
-0.077
-0.055
0.067
0.050
-0.025
-0.119
0.096
-0.162
0.120
0.057
-0.029
-0.143
-0.169
-0.000
0.088
0.091
0.014
0.009
-0.020
-0.078
-0.045
-0.035
-0.068
0.022
0.090
0.114
0.051
-0.172
-0.118
-0.149
-0.069
-0.018
-0.096
0.149
0.077
0.106
-0.133
-0.120
-0.102
0.139
-0.014
-0.046
0.068
-0.014
-0.184
0.044
0.024
0.178
-0.044
-0.056
-0.028
-0.123
-0.040
-0.035
-0.012
0.040
0.035
-0.146
-0.019
0.046
-0.067
-0.024
-0.041
-0.095
-0.013
-0.022
0.027
-0.073
-0.091
0.039
-0.025
0.011
0.073
-0.045
-0.013
-0.176
0.008
-0.011
0.006
-0.096
-0.051
0.011
0.011
0.023
-0.045
-0.057
-0.038
-0.076
-0.076
0.000
0.164
0.047
0.009
-0.052
-0.094
-0.115
-0.023
-0.089
-0.044
-0.042
0.158
0.022
-0.042
-0.044
-0.039
0.010
-0.025
-0.086
-0.068
0.032
-0.005
0.011
0.014
-0.151
0.030
-0.004
-0.061
0.039
0.000
-0.058
-0.018
-0.052
0.007
0.038
-0.068
-0.078
0.069
-0.043
0.089
-0.074
-0.178
0.107
-0.056
0.119
0.041
0.006
-0.049
0.039
-0.007
-0.087
-0.087
-0.099
-0.015
-1.139
-0.220
0.497
0.749
0.284
0.114
-0.226
-0.423
-0.237
-0.004
0.138
0.143
0.243
0.052
0.007
0.126
0.184
-0.019
-0.166
-0.150
-0.260
-0.080
-0.026
-0.029
-0.037
-0.075
0.066
-0.093
-0.047
0.065
-0.011
-0.042
-0.088
-0.042
0.036
0.008
-0.060
-0.012
-0.058
-0.022
-0.092
0.076
-0.042
-0.043
-0.001
0.075
-0.100
-0.057
-0.047
0.040
-0.042
0.074
-0.025
-0.097
0.125
0.017
0.052
-0.083
-0.052
-0.126
-0.239
0.028
0.188
0.029
-0.054
-0.038
-0.022
0.021
0.000
-0.082
-0.081
-0.012
0.007
0.068
0.014
-0.069
-0.004
-0.044
-0.049
0.001
-0.014
-0.054
-0.124
-0.012
-0.029
-0.017
-0.012
0.068
-0.016
0.030
-0.270
0.103
0.142
0.005
-0.080
-0.046
-0.064
-0.043
0.014
-0.030
-0.104
-0.159
0.000
-0.036
0.041
-0.030
-0.066
-0.067
0.005
-1.174
-0.019
0.472
0.840
0.288
0.058
-0.129
-0.325
-0.191
-0.076
0.063
0.164
0.164
0.075
0.118
0.078
0.010
-0.082
-0.187
-0.262
-0.102
-0.005
0.050
-0.108
0.021
0.011
-0.149
-0.008
-0.001
-0.019
0.011
-0.024
0.047
-0.065
-0.160
0.033
0.141
0.050
-0.122
-0.085
-0.080
-0.056
0.028
-0.007
-0.093
0.054
-0.026
-0.058
0.056
0.082
-0.029
0.015
-0.071
-0.016
-0.076
0.014
0.010
-0.060
-0.073
-0.047
0.088
0.035
-0.079
0.040
0.056
0.189
-0.138
-0.178
0.083
0.024
-0.025
-0.138
-0.038
-0.071
-0.098
-0.137
0.099
0.017
-0.025
-0.142
-0.154
-0.008
0.041
0.016
-0.026
-0.103
-0.029
0.041
0.023
-0.021
-0.022
0.063
0.029
-0.080
-0.112
-0.045
0.043
-0.022
-0.142
-0.036
-0.025
-0.057
-0.042
0.010
-0.003
-0.127
-0.044
0.031
-0.081
-0.079
-0.007
-0.037
-0.059
0.020
-0.034
-0.006
-0.116
0.060
-0.072
-0.028
0.111
-0.001
-0.020
0.023
-0.075
-0.010
-0.029
-0.176
0.055
-0.017
0.003
-0.009
-0.022
-0.132
-0.106
0.017
0.091
-0.075
0.006
0.080
-0.045
-0.057
0.095
0.094
-0.018
0.071
-0.151
-0.078
0.011
-0.111
-0.011
-0.070
0.010
0.038
-0.033
-0.104
-0.080
-0.131
-0.004
0.029
0.019
-0.209
0.043
-0.059
-1.019
-0.382
0.627
0.733
0.364
0.082
-0.127
-0.274
-0.210
-0.056
-0.023
0.090
0.217
0.107
0.098
0.049
0.030
0.009
-0.061
-0.071
-0.160
-0.159
-0.125
-0.134
-0.016
-0.054
0.033
0.066
-0.127
-0.048
0.047
-1.825
-0.473
1.175
1.427
0.964
0.319
-0.392
-0.653
-0.569
-0.400
0.062
0.399
0.434
0.329
0.119
0.096
-0.024
-0.046
-0.210
-0.185
-0.214
-0.287
-0.075
-0.041
-0.272
-0.068
0.097
0.158
0.140
-0.070
-0.067
0.128
0.168
0.073
0.046
0.140
-0.053
0.084
-0.062
-0.132
-0.087
0.010
-0.017
-0.045
-0.035
0.068
0.060
0.041
0.052
-0.175
-0.115
0.004
0.012
0.033
-0.029
0.070
0.081
0.039
-0.003
-0.004
-0.079
-0.232
0.038
0.273
0.107
0.044
-0.064
-0.116
-0.078
-0.012
-0.063
0.020
-0.044
0.014
0.018
-0.005
-0.075
-0.110
-0.065
-0.060
-0.063
0.004
-0.053
0.028
0.008
-0.072
-0.130
-0.030
-0.097
-0.118
0.041
-0.024
0.006
-0.067
0.054
0.023
-0.012
-0.117
-0.029
-0.002
-0.173
-0.057
0.067
0.002
-0.040
-0.014
-0.100
-0.007
-0.037
0.011
0.012
-0.080
0.011
-0.141
-0.080
-0.032
0.071
0.049
-0.099
0.138
0.019
-0.068
-1.069
-0.441
0.715
0.796
0.345
0.120
-0.221
-0.315
-0.177
-0.114
0.116
0.059
0.146
0.172
0.108
0.120
-0.066
-0.118
-0.070
-0.179
-0.120
-0.064
0.006
-0.106
-0.131
-0.115
0.004
0.001
0.001
-0.100
-0.123
0.060
0.117
0.063
-0.069
0.044
0.011
0.007
-0.034
-0.067
-0.071
-0.089
0.133
0.208
0.027
-0.123
-0.112
-0.044
-0.031
0.006
0.004
0.046
0.088
-0.130
-0.088
-0.211
0.070
0.297
-0.008
-0.065
-0.055
-0.069
-0.028
-0.068
-0.089
0.021
0.105
-0.001
0.038
-0.008
-0.014
-0.052
-0.093
-0.069
0.016
-0.031
-0.074
0.068
-0.035
0.005
-0.064
0.015
0.056
0.049
-0.116
-0.149
0.012
0.061
0.007
-0.063
-0.058
0.025
0.007
-0.046
-0.105
0.060
-0.034
-0.106
0.010
-0.011
0.008
0.003
-0.036
0.010
-0.026
-0.011
0.013
0.015
-0.162
-0.168
0.289
0.198
-0.040
-0.087
-0.026
-0.137
0.016
0.037
-0.005
0.001
-0.027
-0.090
0.143
0.056
0.057
-0.049
0.016
-0.127
-0.111
-0.030
-0.078
-0.013
0.176
0.050
-0.051
-0.112
0.005
-0.034
-0.232
-0.025
0.136
-0.051
-0.018
-0.027
0.040
0.043
0.010
0.171
-0.138
-0.115
-0.151
-0.006
0.029
-0.013
0.033
0.053
0.038
-0.011
-0.101
0.032
0.000
-0.113
-0.143
-0.043
-0.021
-0.026
-0.044
0.046
-0.119
-0.062
0.119
-1.084
-0.205
0.541
0.727
0.284
-0.038
-0.214
-0.319
-0.161
-0.020
-0.022
0.070
0.217
0.052
0.114
0.018
0.020
-0.071
-0.073
-0.153
-0.106
-0.166
-0.046
-0.116
-0.176
0.049
-0.061
0.052
0.031
0.027
0.056
-0.048
-0.025
-0.040
-0.153
-0.081
0.095
-0.107
-0.152
-0.034
0.002
0.129
0.016
0.088
0.071
-0.051
-0.028
-0.140
0.026
-0.105
0.099
-0.048
0.061
0.001
0.012
-0.010
0.096
-0.044
-0.062
-0.063
-0.033
0.055
0.004
-0.043
-0.099
0.034
0.004
-0.164
-0.042
0.092
0.014
-0.142
0.038
-0.059
-0.101
-0.051
-0.109
0.022
0.011
0.182
-0.044
0.031
-0.084
-0.098
-0.075
-0.184
-0.047
0.172
0.179
-0.075
-0.115
-0.034
0.150
-0.001
-0.054
-0.059
0.037
-0.194
0.070
0.183
-0.007
-0.222
-0.149
0.083
0.150
0.101
-0.086
-0.117
-0.156
-0.135
-0.103
0.042
0.076
0.095
0.014
-0.112
-0.115
-0.047
-0.010
0.033
0.009
0.004
0.116
-0.082
0.008
-0.103
0.061
-0.088
0.109
0.089
-0.088
0.009
-0.022
0.021
-0.026
-0.112
0.021
-0.024
0.012
-0.012
-0.068
-0.049
-0.098
-0.020
-0.000
0.158
-0.031
-0.110
-0.021
0.054
-0.010
-0.075
-0.001
-0.034
-0.170
0.202
0.117
-0.121
-0.213
-1.261
0.236
0.623
0.702
0.231
-0.057
-0.404
-0.352
-0.040
-0.021
0.175
0.098
0.323
0.152
0.089
-0.160
-0.070
-0.057
0.013
-0.141
0.014
-0.076
-0.113
-0.083
-0.114
-0.122
-0.136
0.076
0.043
-0.019
0.124
-0.074
-0.016
0.065
-0.010
0.033
-0.003
-0.021
-0.181
-0.043
0.057
-0.061
-0.020
-0.044
-0.026
-0.086
0.053
0.113
0.051
-0.048
-0.086
-0.138
-0.007
0.093
0.220
-0.067
-0.053
-0.126
0.095
-0.076
0.017
0.018
-0.077
-0.078
-0.040
-0.093
0.117
-0.052
-0.079
-0.021
-0.145
-0.027
-0.050
0.015
-0.049
0.056
0.042
-0.038
0.025
-0.018
-0.009
-0.094
-0.099
-0.011
0.036
0.114
0.038
-0.060
0.045
-0.074
-0.034
-1.248
0.009
0.531
0.872
0.284
-0.053
-0.129
-0.296
-0.259
-0.048
0.005
0.159
0.166
0.174
0.070
-0.077
-0.074
-0.146
-0.128
-0.054
-0.071
-0.110
-0.122
-0.078
-0.189
0.002
0.064
0.082
0.129
0.002
-0.121
-0.043
0.102
0.043
-0.081
0.043
-0.002
-0.006
-0.091
-0.008
-0.031
0.058
0.158
0.039
-0.019
0.064
-0.113
-0.137
0.053
0.088
0.021
-0.200
0.025
0.015
0.027
-0.115
-0.018
0.046
-0.053
-0.069
0.032
0.152
0.036
-0.011
-0.072
0.108
-0.029
-0.039
-0.098
-0.067
0.101
-0.047
0.014
-0.039
-0.100
-0.065
0.127
0.128
0.013
-0.079
-0.167
-0.135
-0.077
0.073
0.075
-0.031
-0.018
0.000
-0.038
-0.109
0.007
0.052
-0.075
-0.055
-0.024
-0.073
0.058
-0.039
0.063
0.058
0.080
-0.064
-0.175
0.026
-0.066
0.080
-0.131
-0.016
0.019
-0.061
0.037
0.017
-0.109
-0.152
0.191
0.141
-0.025
-0.123
-0.118
-0.128
0.040
0.158
-0.047
0.044
-0.054
-0.034
-0.078
-0.060
0.017
-0.063
-0.193
-0.056
0.037
0.042
-0.031
-0.017
0.015
-0.071
-0.003
0.002
0.011
-0.035
-0.017
-0.076
0.055
0.082
0.054
-0.043
-0.122
0.055
0.019
-0.000
-0.087
-0.050
-0.128
0.039
0.075
-0.031
-0.021
-0.044
-0.087
-0.010
0.018
-0.073
0.024
0.046
-0.055
-0.029
-0.039
-0.038
-0.015
0.086
-0.088
-0.017
0.016
-0.029
-0.135
0.042
0.041
-0.062
-0.736
-0.847
0.596
0.566
0.361
0.257
0.064
-0.113
-0.280
-0.229
-0.054
0.000
0.053
0.158
0.362
0.159
0.010
0.014
-0.087
-0.192
-0.251
-0.151
-0.074
-0.020
-0.042
0.017
-0.092
0.158
0.020
-0.052
-0.035
-0.023
0.002
0.045
-0.141
-0.036
-0.036
-0.021
0.038
-0.109
0.048
-0.006
-0.072
-0.033
-0.034
-0.079
0.011
0.047
0.040
0.031
-0.069
0.036
0.018
0.002
-0.022
-0.098
0.022
0.036
-0.004
-0.046
0.013
-0.109
0.016
0.009
0.001
-0.070
-0.003
0.003
-0.108
0.037
0.051
-0.024
0.001
0.047
-0.005
0.038
-0.043
-0.112
0.020
0.024
0.003
0.076
0.045
-0.097
-0.018
-0.063
-0.127
-0.051
-0.021
0.032
0.061
0.011
0.081
-0.016
-0.042
-0.029
-0.028
-0.085
-0.071
0.022
0.016
-0.175
-0.093
-0.015
0.089
-0.046
0.011
-0.033
-0.116
0.060
0.069
-0.073
-0.023
0.043
-0.041
-0.072
-0.020
0.026
-0.015
0.002
-0.117
-0.068
-0.112
0.043
-0.048
0.084
0.160
0.014
-0.071
-0.092
-0.127
-0.023
-0.057
-0.003
0.085
0.047
0.111
0.005
-0.138
-0.087
-0.059
-0.053
0.024
-0.044
-0.010
-0.005
0.053
-0.081
0.007
-0.037
-0.023
-0.171
-0.086
-0.003
-0.103
-0.075
0.028
0.176
0.026
-0.094
-0.106
-0.088
-0.048
-0.037
-0.121
0.064
-0.046
-0.016
0.129
0.187
0.028
-0.130
-0.163
-0.010
-0.074
-1.296
0.090
0.495
0.724
0.346
-0.001
-0.178
-0.335
-0.212
-0.186
0.042
0.148
0.118
0.160
0.162
-0.178
0.149
0.011
-0.057
-0.228
-0.159
-0.126
-0.030
-0.048
-0.027
-0.063
0.011
-0.085
-0.147
0.067
0.152
0.081
-0.136
-0.088
-0.033
-0.022
-0.189
-0.019
0.037
0.132
-0.101
-0.128
-0.004
0.052
-0.076
0.044
-0.203
-0.123
0.211
0.024
-0.016
-0.005
-0.076
-0.016
0.095
-0.015
0.042
0.024
-0.099
-0.015
-0.028
0.000
-0.054
-0.063
0.061
-0.016
-0.086
-0.058
-0.046
-0.134
0.007
0.080
0.180
-0.021
0.095
-0.085
-0.086
-0.141
-0.112
0.024
-0.063
-0.043
0.096
-0.019
-1.026
-0.595
0.521
0.678
0.468
0.069
-0.164
-0.326
-0.248
-0.164
0.000
0.220
0.144
0.018
0.212
0.243
0.007
-0.006
-0.165
-0.056
-0.256
-0.199
-0.094
-0.111
0.001
0.059
-0.023
0.050
-0.062
-0.149
0.032
0.012
0.006
-0.007
-0.039
-0.012
0.050
-0.037
0.044
-0.032
-0.011
0.072
0.040
-0.041
-0.048
-0.026
-0.011
-0.102
0.118
0.081
-0.084
-0.026
-0.187
0.030
0.046
0.068
-0.093
-0.038
-0.095
0.003
0.172
-0.070
0.052
-0.010
-0.035
-0.051
-0.013
-0.112
-0.139
-0.050
0.041
-0.061
-0.073
-0.028
0.061
-0.030
0.100
0.063
-0.162
-0.022
-0.106
-0.077
0.080
-0.080
-0.024
0.003
0.033
0.038
0.011
-0.008
-1.145
-0.244
0.451
0.611
0.344
0.131
-0.090
-0.212
-0.191
-0.114
-0.014
0.063
0.081
0.076
-0.025
0.116
0.182
0.042
-0.147
-0.164
-0.129
-0.145
-0.139
-0.119
-0.015
-0.090
0.017
-0.054
-0.075
0.044
-0.008
-0.031
-0.021
-0.086
0.041
-0.069
-0.086
0.066
0.078
0.019
0.029
-0.014
-0.092
0.052
0.018
-0.138
0.097
0.069
0.039
-0.020
-0.079
-0.010
-0.015
-0.087
-0.122
0.027
0.060
-0.053
0.069
0.059
0.010
-0.125
-0.044
0.008
-0.145
-0.126
0.045
0.103
-0.011
-0.001
-0.038
0.022
-0.035
-0.071
0.010
0.022
-0.095
0.032
0.055
0.053
-0.035
-0.076
-0.114
0.271
0.016
-0.202
-0.111
-0.006
-0.081
-0.136
-0.081
0.098
0.086
0.136
0.103
-0.117
-0.209
-0.195
0.044
-0.119
0.039
0.115
0.024
0.078
-0.088
-0.075
-0.140
-0.016
0.010
-0.052
0.074
-0.055
0.112
-0.106
-0.021
0.044
0.023
-0.036
-0.040
0.004
-0.070
-0.004
-0.056
-0.156
-0.005
0.030
0.110
0.076
-0.042
-0.074
-0.180
-0.038
-0.042
0.026
-0.052
0.051
-0.003
0.101
0.057
-0.466
-1.110
0.353
0.646
0.559
0.162
-0.115
-0.179
-0.386
-0.128
0.105
0.040
0.237
0.160
0.131
0.077
-0.044
-0.099
-0.108
-0.163
-0.149
-0.101
-0.032
-0.098
-0.012
-0.025
0.012
-0.086
-0.024
-0.096
0.100
0.079
0.045
-0.009
-0.027
0.049
0.023
-0.112
-0.073
-0.020
-0.038
0.004
-0.011
-0.015
-0.038
0.100
-0.032
-0.036
-0.108
-0.059
0.014
0.071
-0.017
-0.105
-0.043
0.159
-0.068
-0.151
-0.021
-0.019
-0.024
-0.079
0.038
-0.088
0.055
0.027
-0.023
-0.081
-0.085
-0.045
-0.014
0.016
-0.021
-0.003
-0.066
-0.054
-0.094
0.048
-0.034
-0.032
-0.070
0.048
-0.069
-0.064
0.052
-0.038
-0.016
-0.062
-0.107
-0.085
0.020
-0.078
-0.026
-0.097
0.050
-0.024
-0.049
-0.031
0.084
-0.028
-0.113
0.082
0.059
-0.047
-0.147
0.001
-0.036
0.041
-0.037
0.062
0.038
-0.137
-0.112
0.006
-0.044
0.048
-0.029
-0.076
-0.094
-0.068
0.012
0.046
-0.027
0.030
0.215
-0.015
-0.024
-0.078
-0.016
-0.088
-0.112
0.016
0.080
0.055
0.004
-0.164
-0.050
-0.102
-0.087
-0.194
-0.098
-0.129
-0.021
0.109
0.102
0.083
0.049
-0.077
-0.035
-0.021
-0.021
-0.004
0.096
0.036
-0.729
-0.682
0.557
0.677
0.459
0.098
-0.133
-0.301
-0.295
-0.207
0.021
0.166
0.151
0.107
0.151
-0.193
0.109
0.122
-0.158
-0.125
-0.143
-0.100
-0.231
-0.143
-0.064
-0.004
-0.056
0.039
-0.010
-0.004
0.004
0.062
0.003
-0.128
-0.054
-0.127
-0.105
0.163
0.076
0.143
0.011
-0.083
-0.037
0.039
-0.094
-0.127
0.035
0.042
-0.050
-0.032
-0.031
0.058
-0.128
-0.069
-0.001
-0.006
0.052
0.095
0.026
-0.096
0.052
-0.004
-0.084
0.022
-0.014
-0.059
-0.039
-0.046
-0.151
0.026
0.146
0.084
-0.000
-0.041
-0.057
-0.121
-0.049
-0.031
0.034
-0.014
-0.047
-0.037
0.051
-0.019
-0.033
-0.073
-0.097
-0.058
-0.022
0.054
0.105
-0.124
0.056
-0.165
-0.008
-0.089
0.030
0.030
0.012
-0.022
-0.049
0.017
0.025
-0.068
-0.033
0.026
0.025
-0.051
-0.006
-0.128
0.042
0.086
0.019
-0.048
-0.015
-0.197
0.010
0.054
0.032
0.033
-0.092
-0.037
-0.082
-0.092
-0.000
0.037
-0.036
-0.066
0.042
-0.008
-0.086
0.028
-0.108
-0.140
-0.036
0.159
0.124
-0.025
-0.056
-0.109
-0.138
0.030
0.030
0.127
-0.004
-0.146
0.004
0.039
-0.088
-0.139
0.017
0.061
-0.149
-0.002
0.002
0.044
0.007
-0.192
-0.100
-0.012
0.086
0.016
-0.052
0.023
0.006
-0.066
-0.068
-0.018
-0.004
-0.009
-0.878
-0.744
0.551
0.798
0.430
0.157
-0.122
-0.205
-0.412
-0.019
-0.004
0.129
0.158
0.120
0.124
0.021
-0.014
0.024
-0.164
-0.227
-0.053
0.008
-0.078
-0.159
0.011
-0.090
-0.102
0.005
0.051
0.009
-0.135
0.035
0.012
-0.044
0.083
0.064
-0.095
-0.115
-0.059
-0.112
-0.085
-0.026
0.131
0.009
-0.036
0.090
-0.021
-0.140
-0.014
0.118
0.051
0.005
-0.074
-0.033
-0.104
0.019
-0.010
0.022
-0.032
-0.143
0.050
-0.019
-0.026
-0.104
-0.042
-0.026
-0.026
-0.122
0.197
0.002
-0.072
0.097
0.030
-0.196
-0.095
-0.057
-0.072
-0.038
0.015
-0.032
0.123
-0.016
-0.069
0.001
0.014
0.088
0.059
-0.046
-1.222
-0.125
0.529
0.916
0.347
-0.041
-0.067
-0.207
-0.305
-0.151
0.034
0.194
0.099
0.239
0.024
-0.055
-0.134
-0.058
-0.182
-0.191
-0.032
-0.085
-0.145
-0.103
-0.009
-0.007
-0.141
-0.040
-0.005
0.002
-0.038
0.062
0.007
0.071
0.048
-0.032
-0.204
-0.041
0.143
0.081
0.049
0.003
-0.060
-0.027
-0.040
0.010
0.062
-0.095
-0.026
-0.013
-0.017
-0.061
0.051
0.020
-0.002
-0.033
-0.009
0.141
0.094
-0.137
-0.115
-0.001
0.054
0.093
0.091
-0.129
-0.098
0.084
0.020
-0.044
-0.015
-0.067
-0.091
-0.042
0.017
-0.055
-0.036
-0.064
-0.092
-0.054
-0.075
0.024
-0.168
0.027
-0.020
-0.038
-0.130
-0.124
-0.014
0.090
0.033
0.042
-0.086
-0.101
0.034
-0.028
0.046
-0.048
-0.075
-0.033
0.128
0.023
-0.056
-0.011
0.010
-0.070
0.001
-0.025
-0.095
-0.020
0.068
-0.054
-0.019
-0.006
-0.073
-0.071
0.160
0.143
0.055
-0.061
-0.062
-0.041
-0.078
-0.073
0.002
0.072
-0.090
-0.066
0.009
-0.046
-0.083
0.031
-0.026
0.029
-0.152
-0.060
-0.070
0.023
-0.041
0.024
-0.016
-0.069
-0.042
-0.048
-0.001
0.019
-0.140
0.037
-0.066
0.011
0.028
-0.033
0.127
0.022
-0.092
0.024
-0.011
0.013
0.014
0.003
-0.064
-0.096
0.092
-0.050
-0.059
-0.010
0.069
-0.109
-0.081
-0.046
0.084
0.095
-0.004
-0.027
-0.058
-0.129
-0.037
0.034
-0.087
-0.005
0.126
0.112
-0.023
-0.028
0.039
-0.108
-0.340
-0.098
0.235
0.019
-0.066
0.013
0.000
0.040
-0.026
-0.079
0.069
-0.025
-0.018
-0.033
-0.145
-0.008
0.045
0.040
-0.000
-0.103
-0.097
-0.059
0.034
0.119
-0.010
-0.133
0.100
0.078
-1.194
-0.257
0.534
0.855
0.373
-0.081
-0.203
-0.244
-0.201
-0.092
0.134
0.255
0.140
0.169
0.037
0.004
-0.037
-0.062
0.088
-0.066
-0.072
-0.140
-0.239
-0.078
-0.085
0.015
0.005
-0.027
0.030
0.103
0.039
-0.045
-0.033
-0.036
-0.116
0.009
0.005
-0.012
0.101
0.019
-0.084
0.013
-0.034
-0.004
0.001
0.057
0.044
-0.007
-0.060
-0.006
-0.011
0.053
-0.036
0.101
-0.114
0.041
-0.043
-0.107
-0.046
0.025
0.039
0.018
0.068
0.020
-0.553
-0.914
0.522
0.646
0.728
0.261
-0.070
-0.307
-0.462
-0.307
-0.102
0.202
0.232
0.179
0.123
0.194
-0.021
-0.204
-0.142
-0.143
-0.107
-0.184
-0.081
-0.149
0.125
0.050
-0.044
0.026
-0.006
-0.039
0.002
0.021
0.093
-0.111
0.035
-0.013
-0.052
-0.068
-0.145
-0.121
-0.081
-0.063
-0.039
0.048
-0.001
0.075
-0.084
0.080
-0.116
0.045
0.023
0.047
0.114
-0.022
-0.010
0.005
-0.011
0.006
0.091
-0.028
0.063
0.050
-0.080
-0.019
-0.204
-0.044
0.034
0.082
-0.103
-0.080
0.001
0.013
0.003
-0.114
-0.058
-0.009
0.012
0.032
0.003
-0.028
-0.023
-0.071
-0.039
-0.052
0.024
0.044
-0.226
-0.034
-0.011
-0.027
-0.117
0.022
-0.127
-0.005
0.167
0.014
-0.117
-0.054
-0.178
-0.014
-0.064
-0.054
0.103
-0.018
-0.210
0.023
0.252
-0.074
-0.052
-0.135
-0.071
-0.011
0.045
-0.007
-0.003
0.022
-0.159
-0.014
-0.005
0.017
-0.055
-0.042
-0.071
-0.042
-0.091
0.046
-0.133
0.100
0.004
-0.100
-0.025
-0.060
-0.001
-0.082
0.024
-0.085
-0.145
0.048
-0.058
0.067
-0.117
-0.063
-0.050
-0.220
-0.268
0.168
0.267
0.121
0.054
-0.149
-0.254
-0.068
0.010
0.005
0.115
0.082
0.013
-0.117
-0.086
0.041
0.003
-0.184
-0.091
-0.092
-0.090
-0.076
0.042
-0.173
0.045
0.022
0.020
-0.019
-0.032
-0.048
0.098
-0.057
-0.075
-0.079
0.102
0.014
0.122
-0.056
-0.004
-0.044
0.016
-0.074
-0.120
0.025
-0.098
-0.080
-0.138
0.070
0.005
-0.020
0.055
0.020
-0.096
-0.123
0.107
0.037
0.009
0.104
-0.011
0.014
-0.021
-0.003
-0.132
-0.200
0.008
0.067
-0.051
0.016
0.016
0.071
-0.131
-0.104
-0.001
-0.038
-0.111
0.034
0.027
-0.028
-0.027
-0.004
-0.036
-0.072
0.001
-0.015
0.037
0.003
-0.086
-0.093
0.042
0.016
-0.010
0.033
-0.050
-0.061
-0.082
0.015
-0.140
-1.096
0.180
0.389
0.700
0.262
0.036
-0.190
-0.236
-0.103
-0.101
0.006
0.050
0.018
0.216
0.178
0.057
-0.012
-0.241
-0.135
-0.069
-0.068
-0.081
-0.112
-0.060
-0.068
-0.039
-0.067
-0.075
-0.084
-0.037
0.198
0.099
0.044
0.060
-0.081
-0.038
-0.011
-0.013
-0.065
-0.193
0.056
0.055
-0.012
0.004
0.058
-0.126
-0.015
-0.104
0.065
-0.056
-0.005
0.015
0.131
-0.050
-0.093
-0.012
-0.103
-0.058
0.093
-0.044
-0.050
0.055
-0.097
-0.014
-0.022
-0.006
-0.053
0.011
0.036
-0.084
-0.185
-0.144
0.252
0.058
0.060
-0.164
-0.033
-0.042
-0.016
-0.007
-0.016
0.002
0.079
-0.028
-0.166
-0.090
-0.009
0.034
-0.036
-0.003
-0.133
-0.069
-0.004
0.045
-0.004
-0.122
-0.015
0.059
0.013
-0.062
-0.050
0.085
0.019
-0.064
-0.019
-0.013
-0.111
-0.031
0.035
0.008
-0.067
-0.028
-0.100
-0.012
0.010
-0.096
-0.025
-0.007
-0.024
0.031
-0.153
-0.056
-0.007
-0.062
-0.055
0.030
-0.118
0.075
0.171
-0.010
-0.038
-0.083
-0.105
-0.026
-0.086
-0.027
0.049
0.107
-0.049
-0.019
-0.042
0.000
-0.091
-0.061
-0.053
0.027
-0.018
-0.125
0.076
-0.146
0.095
-0.032
-0.022
-0.040
-0.023
0.035
-0.014
-0.044
-0.034
-0.122
-0.091
0.060
0.220
0.103
-0.015
-0.121
-0.089
-0.117
-0.043
0.027
-0.097
-0.069
0.038
0.029
0.076
0.006
-0.084
-0.085
0.016
-0.033
-0.101
-0.089
0.009
-0.074
-0.016
0.029
0.028
-0.005
0.012
-0.118
-0.034
-0.063
0.042
-0.055
-0.178
-0.052
0.149
0.027
0.036
-0.055
-0.082
0.047
0.016
-0.034
0.041
0.029
-0.054
0.005
0.003
-0.067
-0.079
-0.059
0.047
0.031
-0.093
-0.042
-0.065
-0.050
-0.305
-1.106
0.273
0.611
0.674
0.251
-0.146
-0.236
-0.205
-0.125
-0.109
0.147
0.085
0.102
0.152
0.091
0.066
0.041
-0.090
-0.158
-0.168
-0.126
-0.206
-0.163
-0.040
-0.004
-0.043
0.070
0.079
-0.073
-0.024
-0.068
-0.051
0.098
0.019
-0.007
-0.028
0.069
-0.023
-0.180
0.034
-0.055
-0.016
0.069
-0.018
-0.007
0.020
0.006
0.070
-0.121
-0.068
0.033
-0.021
-0.002
-0.018
-0.027
-0.008
-0.084
-0.099
-0.222
0.047
0.270
-0.029
-0.213
-0.189
-0.056
0.016
-0.007
0.025
-0.043
0.011
0.074
-0.005
-0.099
-0.131
-0.088
0.059
0.166
0.092
0.091
0.017
-0.115
-0.232
-0.132
-0.002
-0.027
0.018
-0.094
0.053
-0.004
-0.151
-0.092
0.013
-0.032
-0.060
0.004
-0.068
-0.049
-0.101
0.036
0.001
-0.024
-0.053
0.019
0.011
0.007
-0.087
-0.131
-0.010
-0.064
-0.028
0.015
0.064
0.022
-0.057
0.001
-0.026
-0.041
0.025
-0.065
-0.044
-0.043
-0.050
-0.034
-0.007
0.043
-0.033
-0.053
0.047
-0.038
-0.054
0.006
0.019
-0.084
-0.016
0.002
-0.005
0.061
0.100
0.022
-0.074
-0.163
-0.035
-0.064
0.006
0.085
-0.050
-0.035
-0.039
0.087
-0.085
-0.146
-0.041
0.000
-0.028
-0.081
-0.090
-0.054
0.076
0.094
0.044
-0.087
-0.126
-0.079
0.110
0.011
0.013
-0.069
-0.108
-0.050
-0.031
-0.008
-0.015
-0.079
-0.094
-0.035
0.112
0.045
0.060
-0.134
-0.052
-0.031
-0.122
-0.023
0.039
-0.002
-0.014
-0.029
-0.040
0.031
-0.103
0.043
-0.138
-0.085
-0.079
0.070
0.107
-0.039
-0.020
0.147
-0.083
-0.007
0.150
-0.153
-0.177
-0.239
0.040
0.102
0.034
0.088
-0.063
-0.132
0.019
-0.065
-0.080
-0.065
0.031
-0.034
-0.063
-0.004
-0.008
-0.026
-0.051
-0.023
-0.076
0.021
0.094
0.066
-0.061
-0.041
-0.179
0.022
-0.007
-0.012
-1.088
-0.190
0.587
0.777
0.356
-0.041
-0.177
-0.293
-0.246
-0.121
0.177
0.107
0.168
0.147
0.249
-0.001
-0.051
-0.048
-0.109
-0.165
-0.139
-0.125
-0.225
-0.217
-0.104
0.043
0.044
0.045
0.159
0.094
-0.044
-0.044
-0.075
-0.016
0.002
0.056
0.053
0.039
-0.206
0.002
0.194
0.008
-0.082
-0.127
-0.134
-0.221
-0.226
-0.092
0.127
0.072
-0.038
-0.038
-0.137
0.079
0.099
-0.018
-0.069
0.013
0.030
-0.133
0.015
0.126
-0.034
0.029
-0.013
0.010
0.009
-0.184
-0.045
0.003
0.048
-0.125
-0.008
-0.002
-0.044
-0.016
-0.047
-0.049
0.086
0.052
-0.162
-0.046
-0.048
-0.019
-0.023
-0.012
0.003
-0.038
-0.044
0.010
-0.089
-0.076
-0.050
0.027
-0.051
-0.041
-0.018
-0.038
-0.015
0.046
0.048
-0.049
0.011
-0.155
-0.024
0.058
0.078
-0.007
0.028
0.012
-0.148
-0.140
-0.008
0.048
-0.018
-0.222
-0.958
0.225
0.456
0.685
0.212
-0.127
-0.311
-0.305
-0.165
-0.068
0.046
0.177
0.313
0.153
0.126
0.031
0.027
-0.054
-0.093
-0.216
-0.200
-0.024
-0.073
-0.065
-0.076
-0.031
-0.023
-0.008
-0.078
0.018
0.110
-0.002
-0.081
0.015
-0.131
-0.110
-0.129
-0.019
0.083
0.175
0.076
-0.107
0.044
-0.039
-0.060
0.012
0.004
0.044
-0.081
-0.045
-0.064
0.008
0.051
0.006
-0.028
0.045
-0.187
-0.131
-0.032
0.122
0.092
0.018
-0.133
-0.058
0.043
-0.134
0.003
0.022
0.066
0.094
-0.046
0.019
-0.021
-0.131
0.018
-0.039
-0.097
-0.068
-0.022
-0.005
0.078
-0.088
-0.003
0.035
-0.109
-0.095
-0.077
-0.059
0.099
0.124
-0.053
-0.085
-0.066
-0.085
0.016
-0.038
-0.005
0.075
-0.160
0.046
-0.002
-0.160
-0.085
-0.067
0.046
-0.050
0.009
0.021
-0.059
-0.084
0.053
-0.056
-0.032
0.052
0.062
-0.152
-0.001
-0.045
0.017
0.061
0.062
-0.122
-0.130
-0.069
-0.076
-0.108
-0.080
0.128
0.167
-0.051
-0.157
-0.034
0.008
0.006
-0.186
-0.032
0.030
0.109
0.108
-0.064
-0.076
-0.072
-0.114
0.019
-0.157
-1.135
0.166
0.476
0.798
0.276
-0.020
-0.298
-0.338
-0.371
-0.096
0.200
0.173
0.206
0.270
0.051
0.026
-0.030
-0.077
-0.072
-0.224
-0.174
-0.160
0.098
0.002
-0.143
-0.096
-0.113
-0.004
0.174
0.018
-0.089
0.028
0.095
-0.045
0.042
-0.045
-0.067
0.090
-0.071
-0.009
-0.051
0.074
-0.053
0.031
0.013
-0.045
-0.052
-0.001
0.035
-0.132
0.038
0.007
-0.057
-0.101
0.086
0.003
-0.065
-0.060
0.069
-0.075
0.054
0.110
0.024
-0.138
-0.066
-0.121
-0.040
0.061
0.051
0.111
-0.012
-0.103
-0.092
0.002
-0.031
-0.016
0.014
-0.061
-0.046
-0.061
0.007
-0.026
-0.029
0.020
-0.126
0.049
-1.201
-0.366
0.676
0.894
0.345
-0.072
-0.133
-0.318
-0.305
-0.050
0.024
-0.026
0.141
0.082
0.183
0.054
-0.016
-0.060
-0.200
-0.230
-0.231
-0.121
-0.044
0.117
0.079
-0.104
-0.081
-0.111
-0.027
-0.057
-0.044
0.034
0.172
-0.008
0.026
0.014
-0.056
-0.109
-0.110
0.062
-0.064
-0.064
0.130
-0.021
-0.008
0.066
0.100
-0.029
-0.040
-0.015
0.004
-0.131
-0.045
0.025
-0.006
-0.050
0.013
-0.097
-0.016
0.068
-0.060
0.088
0.032
-0.079
0.187
-0.125
-0.165
-0.023
0.013
-0.138
-0.017
-0.027
-0.012
-0.070
0.029
-0.024
-0.042
-0.042
0.079
-0.023
-0.127
0.019
-0.065
-0.027
-0.035
-0.036
0.017
0.030
-0.007
-0.072
0.032
-0.044
0.041
-0.022
-0.160
-0.053
0.124
-0.066
-0.020
0.010
0.054
0.052
-0.041
-0.158
-0.067
-0.065
-0.037
0.112
0.058
0.019
-0.082
-0.132
0.054
0.007
-0.011
-0.137
-0.059
-0.063
0.006
0.017
0.058
-0.013
-0.056
-0.019
-0.114
-0.164
0.028
-0.002
-0.057
0.023
0.010
-0.024
-0.052
0.071
-0.020
0.024
-0.016
-0.072
-0.076
-0.139
0.078
-0.042
-0.140
0.063
-0.048
0.046
0.012
-0.118
0.099
-0.034
-0.051
-0.122
0.095
-0.001
-0.064
0.001
-0.153
-0.214
-1.048
0.353
0.525
0.730
0.221
-0.087
-0.125
-0.291
-0.364
-0.088
0.052
0.175
0.239
0.224
0.057
0.000
-0.122
-0.081
-0.132
-0.124
-0.137
-0.066
-0.026
-0.103
-0.099
0.018
0.006
0.025
-0.067
-0.052
-0.099
-0.071
0.063
0.029
0.010
-0.025
-0.017
0.018
-0.087
-0.079
-0.146
0.066
0.075
-0.151
0.087
0.093
0.023
-0.067
-0.033
0.025
-0.057
0.007
0.084
-0.053
-0.017
-0.002
-0.040
-0.053
0.074
0.100
-0.137
-0.046
-0.149
-0.089
-0.023
0.047
0.018
0.020
-0.209
0.006
0.063
-0.036
-0.169
0.174
-0.025
-0.111
-0.053
-0.037
0.057
-0.031
0.095
-0.042
-0.025
0.039
-0.082
-0.077
-0.003
0.026
0.039
-0.097
0.037
-0.005
-0.038
-0.065
-0.121
-0.041
0.010
-0.092
0.042
0.064
-0.035
-0.035
-0.075
-0.134
-0.019
0.033
-0.041
0.091
-0.047
-0.039
0.031
0.004
-0.046
0.066
-0.027
-0.109
0.107
-0.018
-0.071
0.131
-0.050
-0.060
-0.024
-0.016
-0.022
0.025
-0.020
0.038
-0.136
-0.080
-0.043
-0.055
0.051
-0.019
-0.004
-0.212
-0.005
0.241
0.167
0.018
-0.020
-0.160
-0.109
-0.242
-0.104
0.060
0.009
0.130
0.034
-0.031
-0.062
-0.091
-0.063
-0.086
-0.052
0.034
-0.068
-0.058
0.060
0.027
-0.072
0.161
0.049
-0.036
-0.232
-0.036
0.063
-0.090
0.082
0.048
-0.092
0.003
0.035
-0.004
-0.166
-0.026
-0.003
0.006
-0.055
-0.055
0.035
0.037
0.043
-0.069
-0.132
0.013
-0.003
-0.140
-0.010
0.061
0.048
0.008
-0.042
0.080
-0.090
-0.056
-0.069
0.053
-0.023
0.001
-0.027
-0.060
-0.097
0.027
0.003
-0.026
-0.065
-0.109
-0.073
0.067
0.007
-0.024
-0.082
-1.166
-0.203
0.559
0.838
0.338
0.057
-0.127
-0.342
-0.226
-0.148
0.034
0.158
0.147
0.058
0.152
-0.045
0.015
-0.065
-1.051
-0.582
0.416
0.597
0.408
-0.113
-0.114
-0.285
-0.213
-0.133
-0.056
0.077
0.122
0.310
0.259
0.146
-0.005
-0.024
-0.210
-0.239
-0.179
-0.088
-0.127
-0.057
-0.187
-0.054
-0.036
0.011
0.015
-0.046
-0.006
0.022
-0.022
0.018
0.094
-0.129
0.002
0.077
-0.021
0.004
0.068
0.029
0.030
-0.041
-0.051
-0.127
-0.111
0.011
-0.011
0.059
-0.031
-0.022
-0.047
-0.029
0.021
-0.052
-0.193
-0.097
-0.052
0.095
-0.022
-0.067
-0.029
0.116
-0.063
0.010
0.022
0.015
0.113
-0.037
-0.035
-0.006
-0.103
0.001
0.047
0.086
0.118
-0.101
-0.218
-0.108
-0.097
0.006
-0.071
-0.075
0.011
-0.083
-0.067
-0.029
0.005
-0.044
-0.028
0.186
0.008
-0.129
-0.048
-0.018
0.001
0.066
0.133
-0.080
-0.026
-0.120
0.015
-0.000
0.055
-0.006
-0.038
-0.121
-0.038
0.031
-0.007
0.030
-0.023
0.070
0.023
-0.119
-0.039
-0.029
-0.046
-0.102
0.013
0.037
-0.047
0.002
-0.019
-0.039
0.056
-0.059
-0.040
0.058
-0.014
-0.082
-0.062
-0.074
0.050
0.053
-0.061
0.016
-0.076
-0.000
0.068
0.028
-0.013
-0.018
-0.037
-0.116
-0.113
-0.024
0.044
-0.134
-0.009
-0.018
0.012
-0.023
-0.015
-0.003
-0.002
-0.019
-0.132
-0.065
-0.024
-0.069
-0.006
-0.001
0.024
0.016
-0.020
-0.056
-0.036
-0.031
0.028
-0.015
-0.063
-0.263
-0.046
0.197
0.173
0.016
0.056
-0.156
-0.187
-0.098
-0.053
0.080
0.124
-0.034
-0.010
-0.037
-0.062
0.028
-0.053
0.060
-0.039
0.004
-0.028
-0.094
0.029
-0.053
-0.132
0.010
-0.365
-0.972
0.289
0.508
0.690
0.117
-0.051
-0.318
-0.226
-0.210
-0.035
0.168
0.127
0.194
0.046
-0.019
-0.004
-0.057
-0.027
-0.144
-0.168
-0.085
-0.056
-0.113
-0.046
-0.035
0.008
-0.041
-0.022
0.009
0.007
-0.113
0.081
0.169
0.007
0.076
-0.044
-0.074
-0.093
-0.031
0.052
0.124
-0.027
-0.077
0.030
-0.015
-0.025
-0.064
-0.076
-0.019
-0.027
-0.015
0.056
-0.005
0.084
-0.103
-0.039
-0.004
-0.060
0.014
0.011
0.007
-0.178
-0.047
0.014
0.073
0.020
0.016
-0.020
-0.109
-0.101
0.035
0.005
-0.043
0.025
-0.068
0.082
0.043
0.012
-0.022
0.011
-0.025
-0.107
-0.088
-0.110
0.073
0.027
-0.110
0.005
-0.047
0.022
-0.093
0.012
-0.054
0.014
-0.022
-0.017
0.075
-0.094
-0.101
-0.125
-0.016
0.018
0.161
0.021
-0.107
0.029
0.002
-0.080
-0.043
-0.027
0.037
-0.035
-0.022
-0.026
-0.081
-0.074
-0.037
-0.112
0.000
-0.052
0.135
0.045
-0.029
-0.061
-0.061
-0.180
0.015
0.105
-0.112
-0.069
0.008
-0.135
-1.025
0.436
0.398
0.560
0.054
-0.139
-0.187
-0.201
-0.241
0.256
0.205
0.027
0.005
0.025
-0.015
0.163
0.012
-0.110
-0.152
-0.169
-0.234
-0.004
-0.081
-0.032
-0.100
-0.079
0.066
-0.022
0.015
-0.015
-0.046
0.060
-0.088
-0.046
-0.030
-0.016
-0.056
0.058
-0.056
0.007
0.015
-0.051
0.031
-0.049
-0.080
0.019
-0.073
0.083
-0.007
-0.043
-0.066
0.094
0.009
0.093
-0.022
-0.021
-0.091
0.032
0.059
0.080
-0.067
-0.087
-0.021
-0.046
-0.047
-0.054
-0.015
0.072
-0.008
-0.241
-0.243
-0.999
0.258
0.401
0.755
0.232
0.019
-0.284
-0.250
-0.246
0.031
0.052
0.087
0.177
0.168
0.086
-0.043
-0.053
0.061
-0.236
-0.092
-0.087
-0.125
-0.009
-0.135
-0.070
-0.011
-0.102
-0.023
-0.001
0.148
-0.003
-0.085
-0.038
-0.013
0.061
0.054
0.211
-0.033
-0.135
-0.151
-0.013
0.119
0.055
0.060
-0.099
-0.168
-0.035
0.019
-0.067
-0.048
-0.040
0.050
-0.042
0.025
0.005
-0.039
-0.093
-0.029
0.020
-0.003
-0.019
-0.029
0.007
0.008
-0.031
-0.030
0.013
0.014
-0.027
0.015
-0.043
-0.082
0.006
0.039
0.021
-0.074
0.034
0.011
-0.077
-0.032
-0.027
-0.114
-0.044
0.030
0.113
0.003
-0.056
-0.153
-0.074
-0.026
0.021
0.015
-0.108
-0.060
-0.100
0.004
0.032
-0.001
0.020
-0.054
0.107
-0.051
-0.000
-0.114
0.050
-0.065
0.012
0.021
0.051
-0.072
-0.148
0.052
-0.135
-0.057
0.036
0.034
-0.016
-0.157
0.022
0.059
-0.036
-0.088
-0.027
-0.088
0.061
-0.055
-0.032
0.075
-0.016
-0.111
-0.031
0.027
-0.045
0.001
-0.039
-0.058
-0.099
0.117
-1.031
-0.201
0.643
0.656
0.273
0.064
-0.146
-0.302
-0.174
-0.107
0.124
0.065
0.140
0.077
0.075
0.069
-0.022
0.056
-0.226
-0.129
-0.193
-0.149
-0.146
0.094
0.085
-0.048
-0.114
-0.115
-0.016
0.067
0.056
0.041
0.006
-0.093
0.027
-0.029
0.003
-0.126
0.003
0.003
-0.015
-0.073
-0.007
-0.025
0.052
-0.008
-0.066
-0.019
-0.082
-0.105
0.056
0.144
0.010
0.038
-0.017
0.112
-0.094
-0.031
0.076
-0.026
-0.052
0.032
0.049
-0.028
-0.103
-0.048
0.029
-0.051
0.008
0.135
-0.210
-0.208
0.088
0.014
-0.023
-0.086
-0.043
0.012
-0.009
0.048
-0.036
0.035
0.011
-0.066
-0.092
-0.140
-0.197
0.140
0.096
-0.135
0.004
-0.024
0.048
-0.040
-0.116
-0.093
-0.006
0.093
0.003
-0.280
-0.071
-0.017
0.085
-0.000
-0.221
-0.073
-0.023
-0.068
0.044
0.050
-0.011
-0.017
-0.074
-0.083
-0.057
0.013
-0.102
-0.147
0.004
0.062
0.056
0.149
-0.071
0.013
-0.011
-0.149
-0.059
-0.019
0.004
0.023
-0.050
-0.109
0.087
-0.012
0.004
-0.124
-0.078
-0.159
-0.027
0.045
0.081
0.041
-0.093
-0.158
-0.170
-0.087
0.017
0.087
0.000
0.005
-0.112
0.105
-0.038
-0.155
-0.091
0.050
0.151
-0.032
-0.061
-0.014
0.059
-0.139
-0.102
0.028
0.084
-0.005
-0.081
0.058
0.002
-0.068
-0.102
-0.023
0.001
-0.035
-0.098
-0.082
0.075
-0.075
0.044
0.106
0.000
-0.058
0.097
-0.079
-0.092
-0.038
-0.052
0.032
0.021
-0.060
0.119
-0.031
0.034
-0.006
-0.023
-0.019
-0.130
-0.070
-0.022
-0.007
0.013
0.003
-0.064
-0.107
-0.047
-0.028
-0.010
0.082
-0.078
-0.050
-0.017
-0.022
0.102
-0.096
-0.079
-0.101
0.001
-0.035
-0.069
-0.012
0.004
0.017
0.083
-0.110
-0.222
-0.033
0.132
0.017
-0.021
-0.180
-0.102
0.118
0.045
0.001
0.053
0.028
-0.113
0.015
-0.061
0.029
-0.004
-0.058
-0.041
0.020
0.023
-0.142
-0.009
-0.078
0.042
-0.182
-0.086
-0.113
-0.038
0.044
0.082
0.032
-0.170
-0.097
-0.056
0.040
-0.047
-0.051
-0.003
0.001
-0.031
-0.012
-0.041
0.013
-0.097
0.013
-0.170
-0.058
0.050
0.034
-0.011
-0.008
0.034
-0.028
0.076
-0.042
-0.068
0.040
-0.090
-0.040
-0.001
0.003
0.008
-0.141
-0.053
0.116
0.018
-0.005
-0.037
-0.141
-0.011
0.013
-0.009
0.025
-0.024
-0.017
0.041
-0.132
0.014
-0.011
-0.158
-0.003
-0.103
0.006
0.006
0.017
0.036
-0.029
-0.148
-0.040
0.012
0.045
0.047
0.013
0.070
-0.197
0.034
-0.074
-0.025
-0.076
-0.021
0.029
-0.047
-0.053
-0.006
0.001
-0.105
0.106
0.010
-0.052
-0.068
-0.060
-0.043
0.101
0.060
0.028
-0.192
-0.110
0.164
0.027
-0.117
-0.074
0.038
-0.003
0.011
-0.105
0.121
0.109
-0.098
-0.114
-0.199
0.000
-0.009
0.021
0.013
-0.131
0.035
-0.015
0.055
0.002
-0.007
-0.044
-0.060
-0.144
-0.014
0.024
0.026
-0.008
-0.077
-0.011
-0.006
-0.077
-0.034
-0.053
-0.068
-0.079
-0.028
-0.087
-0.021
-0.067
-0.024
0.077
-0.152
-0.076
-0.057
0.001
0.059
-0.129
-0.041
0.032
0.026
0.020
-0.032
-0.181
-1.161
-0.114
0.584
0.772
0.324
-0.060
-0.197
-0.339
-0.199
-0.075
0.037
0.167
0.024
0.139
0.124
0.068
-0.015
-0.101
-0.167
-0.188
-0.143
-0.204
-0.163
-0.167
-0.019
0.110
-0.109
-0.042
0.066
0.149
0.003
-0.024
0.008
-0.088
-0.068
-0.060
0.009
0.012
0.049
-0.083
0.063
-0.023
-0.081
-0.077
-0.072
-0.077
-0.120
-0.023
-0.010
-0.083
0.024
-0.075
0.047
0.151
-0.057
-0.044
-0.050
-0.057
-0.056
0.103
0.031
-0.055
-0.011
-0.132
-0.047
-0.084
-0.021
0.022
0.059
-0.034
-0.036
-0.058
-0.081
0.005
-0.035
0.096
-0.060
-0.058
-0.014
-0.018
-0.065
-0.011
0.073
0.041
-0.083
-0.127
-0.044
-0.068
0.055
0.033
0.046
-0.038
-0.159
-0.052
-0.109
-0.021
-0.023
-0.086
-0.003
0.097
-0.077
0.082
-0.131
-0.041
-0.129
0.046
0.001
-0.052
0.046
-0.009
0.056
0.023
-0.127
-0.005
0.124
-0.040
-0.014
-0.173
-0.039
-0.080
-0.070
-0.053
0.071
-0.030
-0.062
0.043
-0.034
-0.012
-0.001
-0.137
-0.078
0.049
0.047
-0.033
-0.073
-0.026
-0.018
0.040
0.014
-0.043
0.087
0.007
-0.007
-0.016
0.066
-0.121
-0.102
0.066
-0.028
-0.051
-0.031
-0.237
0.098
0.129
0.019
-0.012
-0.089
-0.111
0.067
-0.087
-0.074
0.157
0.079
0.051
-0.026
-0.013
-0.139
-0.140
0.182
0.009
-0.121
-0.031
-0.051
-0.032
0.049
-0.012
-0.096
0.003
-0.017
-0.078
-0.078
-0.055
-0.018
0.041
-0.014
-0.097
0.064
-0.143
-0.008
0.030
-0.042
-0.009
-0.055
-0.022
0.038
0.047
-0.070
-0.032
-0.020
-0.109
-0.039
-0.011
-0.032
0.056
0.040
0.028
0.004
0.044
0.074
-0.160
-0.124
-0.159
-0.021
-0.006
-0.000
0.051
0.003
0.027
0.025
-0.081
-0.050
-0.101
-0.063
-0.031
0.005
0.090
0.016
-0.115
-0.037
-0.107
0.073
0.018
-0.066
-0.161
0.020
-0.045
-0.026
-0.061
-0.086
-0.000
-0.126
0.051
-0.022
-0.059
0.067
0.056
-0.142
-0.137
-0.011
-0.008
0.108
0.039
0.018
-0.031
-0.061
0.051
-0.093
-0.062
0.054
-0.015
-0.018
0.000
0.046
-0.044
-0.009
-0.006
-0.174
-0.154
-0.016
-2.748
0.805
1.406
1.392
0.808
-0.074
-0.562
-0.667
-0.449
-0.135
0.213
0.124
0.352
0.251
0.134
0.099
-0.160
-0.212
-0.063
-0.099
-0.154
-0.181
-0.158
-0.265
-0.126
0.041
-0.036
0.067
0.085
0.188
0.091
0.126
-0.054
-0.034
0.009
-0.091
-0.098
-0.044
-0.067
-0.134
-0.024
-0.073
-0.031
-0.081
-0.000
-0.039
0.096
0.051
-0.012
-0.025
-0.095
0.080
-0.052
-0.088
-0.010
0.028
0.021
-0.071
0.145
-0.086
-0.002
0.039
-0.002
-0.020
-0.021
-0.016
-0.045
0.034
-0.015
-0.001
-0.026
-0.012
0.045
-0.060
-0.030
-0.077
-0.083
-0.180
0.029
-0.029
-0.126
-0.058
-0.092
-0.263
-1.086
0.122
0.517
0.699
0.346
0.026
-0.293
-0.407
-0.247
-0.125
0.103
0.246
0.139
0.042
0.027
-0.532
-1.051
0.306
0.584
0.542
0.092
-0.157
-0.319
-0.404
-0.237
-0.103
0.128
0.151
0.230
0.071
0.186
0.074
-0.075
-0.074
-0.094
-0.116
-0.191
-0.011
-0.224
-0.048
0.262
0.038
0.016
0.001
-0.080
-0.061
-0.064
0.118
0.069
-0.047
0.080
0.031
0.019
-0.153
-0.107
-0.046
0.033
-0.087
-0.023
-0.035
-0.052
0.002
0.000
0.102
0.067
-0.098
-0.052
0.043
0.033
-0.013
0.034
-0.001
-0.045
-0.117
-0.006
-0.081
-0.025
0.057
-0.028
-0.011
0.006
-0.119
-0.026
0.024
-0.059
-0.057
0.003
0.089
0.053
-0.101
-0.191
0.014
0.016
0.062
-0.022
-0.042
-0.007
-0.042
0.014
0.010
-0.035
-0.074
0.008
-0.108
0.037
0.022
0.002
-0.052
-0.060
0.070
-0.061
-0.053
0.043
-0.051
0.041
-0.008
-0.009
0.015
-0.054
-0.025
0.035
-0.011
0.043
-0.059
-0.092
-0.055
-0.025
-0.031
0.042
-0.042
-0.125
-0.004
0.009
-0.080
-0.058
0.168
-0.009
-0.017
-0.051
-0.030
-0.109
-0.140
-0.003
0.090
0.027
0.116
0.050
0.032
-0.127
-0.026
-0.014
0.032
-0.001
-0.145
-0.120
-0.058
0.023
0.068
0.047
-0.001
0.030
-0.058
-0.050
-0.034
0.039
-0.134
-0.004
0.153
0.110
-0.065
-0.066
0.104
-0.055
-0.074
0.096
-0.088
-0.011
-0.006
0.039
-0.034
-0.023
-0.081
0.019
-0.030
-0.010
-0.031
-0.065
0.016
-0.005
0.029
-0.006
-0.109
-0.199
-0.077
0.134
0.216
0.064
0.033
-0.124
-0.129
-0.103
-0.001
-0.062
-0.060
0.104
0.092
-0.047
-0.074
-0.026
0.042
-0.061
-0.007
-0.097
0.021
0.038
-0.112
0.048
0.053
0.026
-0.020
-0.017
0.052
-0.005
0.001
-0.043
-0.029
-0.049
-0.012
0.041
-0.063
0.039
-0.143
-0.108
0.004
-0.019
0.107
-0.021
-0.171
-0.174
0.094
0.176
-0.123
-0.049
-0.126
0.004
0.057
0.095
0.078
-0.232
-0.099
-0.127
0.078
0.043
0.010
-0.034
0.068
0.001
-0.055
-0.057
0.047
-0.034
-0.049
-0.008
0.063
-0.009
-0.080
-0.016
0.000
-0.118
-0.035
0.010
0.015
-0.020
0.063
0.113
-0.072
-0.101
-0.095
-0.050
-0.037
-0.071
-0.009
0.009
-0.053
-0.014
-0.037
-0.035
0.020
0.056
-0.078
-0.035
-0.018
0.009
0.061
0.005
-0.090
-0.008
-0.009
-0.032
-0.212
-0.057
-0.065
0.107
0.006
-0.045
0.017
0.086
-0.055
-0.019
0.005
-0.061
-0.044
0.001
-0.024
-0.976
-0.462
0.624
0.774
0.382
0.015
-0.183
-0.306
-0.205
-0.203
-0.061
0.138
0.035
0.068
0.049
0.318
0.188
-0.012
-0.031
-0.267
-0.253
-0.205
-0.144
-0.042
0.114
-0.008
0.026
0.060
-0.095
-0.058
-0.054
0.006
0.063
-0.029
-0.072
-0.078
-0.025
0.019
-0.001
-0.047
0.041
-0.101
-0.010
-0.027
0.089
-0.063
-0.069
-0.075
0.103
-0.006
-0.031
0.031
-0.075
-0.053
0.039
-0.061
-0.136
-0.035
-0.021
0.019
-0.060
-0.037
0.005
-0.001
-0.031
-0.036
0.021
-0.131
-0.063
0.020
0.053
0.008
-0.085
-0.077
-0.002
-0.015
0.047
-0.069
-0.048
0.068
-0.084
0.002
-0.150
0.105
-0.054
0.022
0.056
0.024
-0.107
-0.101
-0.051
0.017
0.011
-0.046
-0.037
-0.046
0.059
0.030
0.000
-0.058
-0.108
-1.225
0.146
0.467
0.779
0.278
0.070
-0.244
-0.332
-0.363
-0.087
0.146
0.121
0.046
0.167
0.300
0.059
-0.056
-0.142
-0.085
-0.113
-0.186
-0.189
-0.011
-0.146
-0.004
0.118
0.023
-0.018
0.097
-0.035
-0.055
-0.134
-0.083
0.189
0.031
-0.004
-0.008
-0.031
-0.044
-0.058
0.108
-0.011
-0.025
-0.074
-0.017
-0.045
-0.115
-0.050
0.080
0.161
0.074
-0.129
0.072
-0.093
-0.082
0.080
-0.039
-0.029
0.034
-0.041
-0.049
-0.067
-0.025
0.075
-0.051
0.029
-0.012
-0.051
-0.040
0.017
-0.024
-0.153
-1.227
0.057
0.471
0.814
0.297
0.013
-0.247
-0.284
-0.225
-0.175
0.105
0.220
0.141
0.149
0.035
-0.061
-0.007
-0.138
-0.012
-0.145
-0.092
-0.092
-0.061
0.057
-0.125
-0.060
-0.072
-0.068
0.114
-0.044
-0.016
0.057
-0.068
-0.027
-0.002
-0.087
0.087
-0.008
0.068
-0.057
-0.069
0.010
0.074
-0.069
-0.035
-0.006
-0.060
0.229
0.140
-0.063
-0.144
-0.117
-0.054
-0.106
-0.031
0.012
0.029
-0.092
0.046
0.025
-0.088
-0.089
-0.016
0.050
0.039
-0.007
-0.057
0.000
0.042
-0.051
-0.025
-0.020
0.071
-0.065
-0.058
0.047
0.016
0.041
-0.058
-0.044
0.138
-0.109
-0.103
-0.087
-0.018
0.073
0.056
0.020
-0.094
-0.186
-0.122
0.019
0.001
0.070
0.020
-0.108
0.022
0.017
-0.006
0.054
-0.081
-0.113
-0.108
0.069
0.211
-0.045
-0.083
-0.036
0.074
-0.099
-0.027
-0.024
-0.016
-0.061
-0.005
0.060
0.060
-0.166
-0.049
-0.115
-0.090
0.000
0.144
0.088
-0.167
0.008
0.084
0.005
-0.065
0.007
0.006
-0.044
-0.027
-0.050
0.009
0.032
0.020
-0.057
0.085
0.074
-0.132
-0.089
0.037
-0.060
0.008
-0.041
0.091
-0.066
-0.092
0.026
-0.075
0.078
-0.037
-0.030
-0.073
0.032
0.032
0.032
-0.080
-0.073
-0.013
-0.039
0.033
-0.012
-0.065
-0.043
0.049
-0.009
-0.031
0.040
-0.071
0.025
0.073
-0.071
-0.036
-0.059
0.014
-0.018
0.044
-0.115
-0.656
-0.850
0.564
0.612
0.471
0.109
-0.136
-0.387
-0.222
-0.084
-0.005
-0.020
0.177
0.106
0.121
0.153
0.099
0.017
-0.109
-0.235
-0.118
-0.055
-0.089
-0.103
0.055
-0.130
-0.030
-0.072
0.022
0.045
-0.038
0.033
0.020
-0.011
0.092
-0.073
-0.089
-0.125
0.076
-0.047
-0.071
-0.046
-0.032
-0.028
-0.048
-0.052
-0.059
-0.089
-0.022
0.084
0.043
-0.114
-0.056
0.026
0.174
0.040
-0.069
-0.056
-0.089
-0.049
-0.021
-0.107
-0.036
0.124
0.158
0.081
-0.015
-0.079
-0.135
-0.119
-0.035
-0.032
0.145
-0.039
-0.024
-0.146
0.078
-0.066
-0.052
0.023
-0.044
-0.077
-0.062
-0.147
0.215
0.110
-0.089
-0.056
-0.008
-0.082
-0.144
0.010
0.087
0.011
-0.057
-0.089
0.013
-0.011
-0.101
-0.084
-0.004
-0.081
-0.243
-0.039
0.083
-0.878
-0.603
0.689
0.853
0.449
-0.046
-0.137
-0.336
-0.307
-0.122
0.023
0.220
0.136
0.130
0.075
-0.080
-0.064
-0.035
-0.217
-0.119
-0.162
-0.189
-0.062
-0.041
-0.116
-0.018
-0.018
-0.016
0.008
0.119
0.045
0.009
0.174
-0.030
-0.011
-0.068
-0.023
-0.072
0.043
0.028
0.065
-0.085
-0.162
-0.012
-0.033
0.011
0.024
-0.071
-0.045
0.021
-0.106
-0.064
-0.117
-0.106
0.041
-0.069
-0.014
-0.039
-0.055
-0.054
0.013
0.029
-0.048
-0.100
0.076
0.038
0.004
0.141
-0.029
-0.035
-0.210
0.003
0.151
0.118
0.069
-0.054
-0.094
-0.076
0.022
-0.068
0.089
0.164
-0.111
-0.100
-0.081
-0.080
0.020
-0.005
-0.022
0.040
-0.093
-0.001
-0.052
-0.099
-0.105
0.047
-0.041
0.102
-0.030
-0.097
0.031
-0.109
0.061
-0.032
0.036
-0.052
-0.034
0.083
-0.096
0.023
0.025
-0.159
-0.008
0.022
0.014
-0.021
-0.080
-0.098
-0.009
-0.049
0.020
0.048
-0.043
-0.014
-0.036
-0.084
0.010
0.014
0.021
0.130
0.103
-0.069
-0.058
-0.072
-0.026
0.086
0.042
-0.057
0.069
-0.128
-0.030
-0.017
-0.120
-0.027
-0.046
0.025
0.019
0.001
0.045
-0.158
0.004
-0.004
-0.036
-0.140
-0.011
0.052
-0.041
0.174
0.090
-0.055
-0.013
-0.022
-0.079
-0.019
0.042
0.057
0.033
-0.052
-0.047
-0.036
-0.062
-0.138
-0.006
0.078
0.046
0.030
-0.079
-0.043
-0.096
-0.082
-0.086
-0.046
0.067
0.085
-0.090
-0.006
0.176
-0.045
-0.117
-0.034
0.008
-0.033
-0.064
-0.086
-0.042
0.117
0.136
-0.029
-0.020
-0.137
-0.030
-0.210
0.004
-0.053
0.121
-0.146
-1.067
0.190
0.532
0.743
0.004
-0.200
-0.098
-0.250
-0.118
-0.091
-0.050
-0.056
0.327
0.260
0.105
0.049
-0.034
-0.103
-0.144
-0.078
-0.175
-0.105
-0.059
-0.078
-0.105
-0.077
0.118
-0.071
0.028
0.054
-0.005
-0.122
0.087
-0.101
0.013
-0.097
-0.066
-0.007
0.025
0.063
0.043
-0.052
-0.122
-0.107
0.057
-0.072
-0.017
-0.012
-0.043
0.015
-0.112
-0.008
-0.007
0.059
-0.057
-0.120
0.037
-0.023
-0.057
0.035
0.005
-0.076
0.105
0.016
0.092
-0.130
-0.041
0.004
-0.004
-0.089
-0.003
-0.036
0.037
0.019
-0.002
0.006
0.001
-0.127
-0.138
-0.005
-0.028
-0.050
0.010
0.036
-0.018
0.091
-0.155
-0.109
-0.090
-0.004
-0.063
0.031
-0.096
0.045
0.039
-0.069
-0.122
-0.097
0.025
0.091
0.031
-0.189
-0.059
-0.012
-0.080
-0.044
0.058
-0.004
-0.032
-0.132
-0.073
-0.076
0.002
0.029
0.114
0.237
0.057
-0.052
-0.086
-0.179
-0.044
-0.104
0.079
0.077
0.045
0.014
-0.118
-0.013
-0.103
-0.114
0.010
-0.055
0.108
-0.060
-0.104
-0.037
-0.016
0.069
0.003
-0.014
-0.001
-0.068
-0.123
-0.034
-0.065
0.098
0.113
0.104
-0.189
-0.096
0.057
-0.068
-0.036
-0.066
-0.039
-0.080
0.005
0.021
0.030
-0.040
-0.112
0.023
0.021
-0.095
-0.035
0.040
-0.093
0.000
0.034
0.070
0.125
-0.089
-0.030
-0.045
-0.123
-0.029
-0.015
-0.008
-0.004
0.019
-0.129
-0.017
-0.050
0.008
-0.021
-0.094
-0.025
0.018
-0.010
0.123
0.031
-0.048
-0.006
-0.076
-0.056
0.051
-0.054
-0.057
0.053
0.043
-0.052
-0.095
-0.027
-0.069
0.015
0.054
0.040
-0.040
-0.125
-0.055
-0.007
0.040
0.058
-0.030
-0.008
-0.085
-0.071
-0.077
0.048
-0.053
-0.019
-0.077
-0.087
0.025
-0.095
-0.001
0.185
-0.035
-0.074
-0.065
-0.121
-0.159
0.154
0.085
-0.077
0.043
-0.240
-0.102
0.078
0.195
0.074
0.084
-0.008
-0.123
-0.139
-0.179
0.030
-0.045
0.204
0.109
-0.100
-0.147
-0.073
0.015
0.008
-0.055
-0.043
-0.074
0.000
-0.177
-0.004
0.016
0.030
0.013
-0.052
-0.034
-0.036
0.000
-0.120
-0.051
-0.031
0.126
-0.036
0.015
0.065
-0.003
-0.076
-0.052
-0.004
-0.110
0.017
-0.017
-0.030
-0.094
0.078
0.042
0.006
0.017
-0.062
-0.199
-0.037
-0.017
-0.002
-0.002
-0.030
-0.045
-0.095
0.128
-0.006
-0.071
-0.094
0.031
-0.005
-0.119
0.086
-0.077
-0.032
-0.019
-0.071
0.000
0.042
-0.076
0.104
0.072
-0.045
-0.032
-0.080
-0.078
-0.019
-0.061
0.006
0.073
0.097
-0.001
-0.007
-0.194
-0.137
-0.038
0.075
-0.037
-0.014
0.026
-0.014
-0.049
0.035
-0.110
-0.032
0.070
-0.055
-0.075
-0.057
0.026
0.010
-0.158
0.024
-0.000
0.003
-0.053
0.110
-0.045
-0.045
-0.017
-0.085
-0.023
-0.034
-0.044
0.028
0.035
-0.075
-0.120
-0.173
-0.029
0.275
0.030
0.007
-0.053
-0.031
-0.083
0.019
-0.050
0.045
-0.378
-1.006
0.468
0.478
0.617
0.020
-0.101
-0.182
-0.346
-0.148
-0.060
0.077
0.162
0.145
0.033
-0.017
0.010
0.013
-0.023
-0.009
-0.089
-0.134
-0.337
-0.038
-0.063
-0.112
-0.076
-0.047
0.102
-0.018
-0.004
-0.040
-0.031
-0.065
-0.016
0.011
-0.047
0.053
0.049
0.015
0.005
-0.137
-0.076
0.005
-0.007
0.033
-0.020
0.021
-0.030
-0.006
-0.004
-0.041
0.000
-0.074
-0.013
-0.245
0.048
0.289
-0.004
-0.125
-0.161
-0.001
-0.024
-0.060
-0.053
-0.094
-0.031
0.173
-0.056
-0.040
0.027
-0.044
-0.110
0.068
-0.187
0.027
-0.016
0.014
0.035
0.031
-0.096
-0.040
0.073
-0.101
-0.109
-0.026
-0.070
-0.004
0.044
-0.035
0.044
-0.091
-0.066
-0.095
0.136
-0.178
-1.152
0.181
0.500
0.851
0.178
-0.080
-0.231
-0.226
-0.190
-0.140
0.113
0.209
0.109
0.094
0.077
0.101
-0.167
-0.084
-0.080
-0.205
-0.109
-0.175
0.032
0.062
-0.054
-0.096
0.060
-0.043
0.021
0.006
0.054
-0.009
0.124
-0.075
-0.021
0.030
0.007
0.022
-0.062
-0.100
-0.057
-0.114
-0.024
0.108
0.029
0.019
-0.080
0.117
0.031
-0.025
0.032
-0.060
-0.045
-0.154
-0.067
-0.016
0.148
-0.030
-0.135
-0.000
0.030
-0.211
0.024
0.036
-0.018
0.076
-0.116
0.012
-0.057
-0.014
-0.035
0.039
-0.078
0.080
0.064
0.049
-0.065
-0.138
-0.038
0.030
-0.057
-0.086
0.037
0.054
0.071
-0.010
-0.039
-0.087
-0.133
-0.098
-0.015
0.030
-0.133
0.009
0.011
-0.023
-0.112
0.106
-0.073
-0.013
0.005
-0.075
-0.031
-0.132
-0.123
-0.005
0.052
0.041
-0.022
0.012
0.082
-0.038
-0.031
-0.212
-0.013
-0.058
-0.002
-0.058
0.197
-0.047
-0.078
0.056
0.085
0.015
0.029
-0.066
-0.081
-0.051
-0.060
-0.080
-0.031
-0.040
0.010
-0.082
0.067
-0.002
-1.211
0.046
0.374
0.754
0.295
0.055
-0.158
-0.233
-0.070
-0.163
-0.082
0.087
0.057
0.052
0.161
0.268
0.109
-0.039
-0.278
-0.255
-0.326
-0.115
-0.051
-0.030
0.033
0.004
-0.015
-0.034
-0.025
-0.030
-0.089
-0.019
0.086
-0.018
0.092
0.033
-0.142
0.021
0.055
-0.035
-0.042
0.300
0.047
-1.201
-0.401
0.539
0.789
0.304
0.069
-0.083
-0.212
-0.319
-0.031
0.021
0.083
