0.059
-0.015
0.034
0.081
-0.030
-0.026
-0.010
-0.014
-0.071
0.070
0.068
0.012
0.017
0.013
0.015
-0.009
0.064
0.024
-0.084
-0.006
0.101
-0.033
0.047
-0.035
-0.011
-0.016
0.036
0.062
-0.032
-0.061
0.075
-0.006
0.078
0.049
-0.112
0.060
0.018
0.083
0.095
-0.004
-0.031
0.022
0.025
0.022
0.069
0.012
0.013
-0.003
0.047
0.023
-0.090
0.059
0.059
0.070
-0.024
-0.053
-0.017
0.021
0.047
0.030
0.014
0.050
0.067
0.057
-0.035
-0.016
-0.046
0.102
-0.003
0.111
0.051
0.003
0.036
-0.061
0.075
-0.007
0.043
-0.033
0.018
0.026
0.014
0.017
0.098
0.012
-0.049
0.072
-0.019
0.011
0.074
-0.126
-0.041
0.060
0.026
0.041
0.095
0.018
-0.036
0.062
0.064
-0.029
0.052
0.058
0.038
0.003
0.030
0.034
0.007
-0.008
-0.006
0.135
-0.019
0.072
-0.065
0.012
0.002
-0.005
-0.022
0.101
0.039
0.019
0.014
0.035
-0.071
0.010
-0.053
0.090
0.009
-0.077
0.051
0.073
-0.058
0.034
-0.025
0.060
0.121
0.034
-0.023
-0.070
0.028
0.104
-0.025
-0.047
0.084
0.005
-0.010
0.046
0.009
0.083
-0.039
-0.019
-0.005
0.035
0.049
0.042
0.011
0.055
-0.070
0.023
0.037
0.138
-0.075
-0.075
0.019
0.083
0.025
0.072
-0.085
0.040
-0.014
0.038
0.102
-0.063
-0.008
0.141
-0.006
0.053
-0.058
0.019
0.048
0.041
-0.028
-0.068
-0.074
0.137
-0.042
0.058
-0.070
0.059
0.006
0.037
-0.032
0.008
0.158
0.054
0.046
-0.064
-0.072
0.053
0.069
0.056
-0.035
-0.002
0.005
-0.026
0.064
0.023
-0.015
-0.017
0.017
0.065
0.034
0.016
0.026
0.001
0.091
0.056
0.050
-0.075
0.034
-0.005
0.005
0.050
0.143
0.012
-0.055
-0.010
0.054
-0.012
-0.019
0.124
0.062
-0.058
0.039
0.137
-0.052
-0.025
0.061
0.025
0.061
0.074
0.036
0.005
0.036
-0.035
0.115
0.005
-0.066
0.014
0.080
0.068
-0.015
0.058
0.052
-0.070
0.034
0.014
0.023
-0.012
-0.006
-0.004
0.033
0.100
-0.058
-0.021
0.015
0.019
0.023
0.026
0.116
-0.126
-0.033
-0.036
0.040
0.044
0.040
0.033
0.015
-0.050
-0.032
0.102
0.095
-0.074
-0.040
0.088
0.015
0.045
0.068
0.042
0.083
0.096
-0.046
-0.034
0.072
0.024
-0.115
-0.034
0.001
0.077
0.051
0.035
-0.015
0.040
0.000
-0.069
-0.002
0.021
0.000
-0.010
-0.043
0.040
-0.007
0.047
0.087
-0.087
-0.034
0.014
0.048
0.013
0.027
0.007
0.038
0.062
-0.062
-0.001
-0.021
-0.008
0.107
-0.021
0.011
-0.016
0.004
-0.029
0.069
0.040
0.075
0.036
-0.093
0.052
-0.007
-0.011
0.090
-0.019
-0.039
0.007
0.066
-0.012
0.128
-0.039
0.030
0.072
-0.059
0.099
0.064
0.068
-0.034
0.051
-0.036
0.013
-0.018
0.032
-0.053
0.030
-0.031
-0.019
-0.027
0.076
0.097
-0.054
0.030
-0.022
-0.005
0.030
-0.005
0.043
-0.077
0.015
0.021
-0.059
0.096
0.039
-0.040
0.013
0.035
0.033
0.032
-0.029
0.039
0.009
0.071
0.030
-0.017
-0.038
0.025
-0.010
0.040
0.026
0.057
0.031
-0.011
0.047
-0.043
0.007
0.164
-0.057
0.072
-0.097
-0.007
0.050
-0.050
-0.020
-0.063
-0.002
0.057
-0.015
0.027
0.064
0.009
-0.008
-0.017
0.000
0.070
0.033
-0.021
0.045
0.050
0.071
0.048
-0.002
-0.068
0.079
0.056
0.017
0.037
-0.018
0.072
0.069
0.028
-0.092
0.048
0.053
0.016
0.031
0.003
0.088
0.029
0.022
0.004
-0.043
0.054
-0.067
0.097
0.055
0.015
0.029
0.029
0.060
-0.028
0.005
0.021
0.027
0.003
0.052
0.056
0.009
0.019
0.031
0.010
0.053
0.008
0.055
-0.020
0.013
-0.044
0.042
0.011
0.071
0.006
0.008
0.011
0.058
0.030
-0.016
0.010
0.004
0.064
0.010
0.000
0.162
0.037
-0.045
0.069
-0.017
0.014
0.126
-0.008
-0.030
-0.004
-0.015
-0.049
0.024
0.007
0.047
0.142
-0.006
0.077
-0.117
-0.087
0.060
0.019
-0.017
0.068
0.004
0.021
0.006
-0.014
0.004
-0.004
0.053
0.091
0.001
-0.039
0.031
0.013
0.059
0.136
0.078
-0.123
0.052
0.014
0.012
-0.072
-0.027
0.037
0.055
0.010
0.027
0.055
0.035
-0.014
-0.046
0.067
-0.033
0.040
-0.053
0.018
0.065
0.089
0.009
0.056
0.007
0.018
0.029
0.034
-0.018
0.032
0.068
-0.063
-0.066
0.081
0.051
0.020
0.039
0.058
0.050
-0.048
0.004
-0.057
0.082
-0.017
0.022
0.044
0.032
0.042
-0.013
0.026
0.035
-0.022
-0.018
0.055
0.079
-0.016
0.002
-0.043
0.107
-0.023
-0.006
0.011
0.037
0.022
-0.044
0.002
0.060
0.067
0.018
0.011
0.075
-0.047
0.125
-0.011
-0.076
0.095
-0.004
0.114
-0.046
-0.006
-0.053
-0.010
0.072
-0.035
0.079
0.017
-0.013
0.016
0.038
-0.039
0.038
-0.028
-0.005
0.071
0.041
0.040
-0.036
0.126
0.001
-0.032
-0.062
0.030
0.041
0.115
-0.015
0.068
-0.016
0.063
0.027
-0.102
0.107
0.040
-0.006
-0.036
-0.006
-0.014
0.092
-0.010
0.011
0.075
-0.024
0.000
0.081
-0.030
-0.014
-0.009
-0.004
-0.023
0.011
-0.055
0.052
0.086
0.071
-0.049
0.011
0.067
0.054
0.009
-0.029
-0.021
0.017
0.026
0.064
0.027
-0.018
0.043
0.057
0.031
-0.062
0.083
0.047
0.036
-0.081
-0.024
0.027
-0.058
0.041
0.097
-0.094
0.060
0.062
-0.040
0.027
0.087
0.002
0.032
-0.017
0.026
-0.007
0.057
0.025
-0.012
-0.009
-0.010
0.075
0.008
-0.004
-0.003
0.038
-0.033
-0.057
0.008
0.101
-0.076
-0.052
0.115
0.074
0.014
-0.138
0.040
0.056
0.087
0.068
-0.006
-0.055
0.097
-0.024
0.014
0.052
0.064
0.020
0.033
-0.112
0.024
-0.044
0.020
0.095
0.090
-0.022
0.126
0.038
0.027
-0.047
-0.087
-0.041
0.113
0.007
-0.001
0.085
0.000
0.004
0.052
0.022
-0.020
0.002
0.072
0.051
0.103
-0.023
-0.090
0.042
-0.011
0.095
0.067
-0.019
0.018
-0.019
0.052
0.006
0.025
0.119
-0.117
0.013
-0.013
-0.026
0.016
0.015
0.066
0.029
-0.047
0.055
0.025
-0.021
-0.010
-0.017
0.031
0.074
0.033
0.033
0.026
-0.065
-0.011
-0.006
0.020
0.136
0.005
-0.006
-0.045
-0.001
0.078
0.032
-0.053
0.018
0.059
0.059
0.041
0.093
-0.071
-0.048
-0.029
0.038
0.011
0.099
0.012
-0.040
-0.005
-0.040
-0.045
0.097
0.043
-0.013
0.024
-0.004
-0.008
0.043
0.094
-0.046
-0.020
0.003
0.040
-0.098
0.041
0.060
-0.006
0.010
-0.012
-0.015
-0.001
0.034
-0.017
0.081
0.020
0.075
0.041
-0.051
0.024
0.053
0.078
0.107
0.019
-0.003
-0.014
0.034
0.072
-0.004
0.015
-0.008
0.065
-0.039
-0.063
-0.023
0.020
0.019
0.138
0.012
-0.041
-0.017
-0.011
-0.001
-0.015
-0.040
0.045
0.066
0.110
-0.019
0.038
0.008
-0.008
0.025
0.083
0.002
0.041
0.046
0.098
0.018
0.032
0.047
0.101
-0.012
-0.001
-0.097
0.051
-0.004
-0.019
0.143
0.056
-0.074
-0.012
0.127
-0.006
-0.097
0.001
0.079
0.050
0.129
-0.038
0.021
-0.031
-0.058
-0.028
0.063
0.013
0.002
0.065
0.038
0.009
0.110
-0.046
0.046
0.021
0.100
0.001
0.007
0.046
0.060
0.016
-0.030
0.001
-0.047
-0.028
0.030
0.009
0.018
0.074
-0.037
0.151
-0.000
0.029
0.031
-0.068
0.029
0.023
0.082
0.084
-0.015
0.063
0.079
0.009
0.067
-0.064
-0.018
-0.026
0.024
0.006
-0.010
0.080
-0.026
-0.041
0.094
-0.024
-0.068
0.023
0.107
0.050
0.012
0.004
0.014
0.057
0.067
0.060
0.008
-0.108
0.133
0.002
-0.019
0.003
-0.068
-0.030
0.035
0.087
-0.026
0.023
-0.047
0.066
-0.021
0.057
0.100
0.036
-0.012
-0.062
0.008
0.009
0.118
-0.003
-0.053
0.064
0.091
0.025
-0.001
-0.076
0.005
-0.035
0.003
-0.053
0.020
0.071
0.125
0.003
-0.006
-0.016
0.056
0.019
0.092
0.065
-0.066
0.028
0.035
0.012
0.029
0.022
0.049
0.012
-0.041
-0.019
0.049
-0.029
0.032
0.012
0.049
0.060
0.068
0.017
0.013
0.032
-0.034
0.047
-0.057
0.046
-0.000
0.008
0.087
0.066
0.027
0.069
-0.040
-0.042
-0.039
0.040
0.053
-0.072
-0.007
0.032
0.144
0.004
0.126
0.010
0.013
0.028
0.104
-0.048
-0.034
-0.010
0.114
0.005
0.017
0.115
-0.016
-0.055
0.084
-0.088
0.058
0.068
0.044
0.015
-0.088
-0.012
0.049
0.153
0.083
0.016
-0.065
-0.033
-0.041
0.095
0.009
0.046
-0.008
-0.027
0.005
-0.060
0.022
0.055
0.068
0.026
-0.039
0.037
0.035
0.001
-0.023
-0.017
0.034
0.091
-0.078
-0.055
0.016
0.095
-0.054
0.104
0.028
0.040
0.050
-0.113
0.029
-0.012
0.048
0.027
0.065
0.092
-0.002
-0.066
0.112
-0.025
-0.038
-0.003
0.137
0.039
-0.003
-0.053
-0.006
0.048
0.090
0.040
0.028
-0.076
-0.013
0.038
-0.009
0.105
0.019
-0.006
0.044
-0.116
0.008
0.041
0.053
0.011
-0.039
0.013
0.073
0.028
-0.026
-0.066
0.080
0.067
-0.019
0.024
0.028
0.131
-0.014
0.056
0.009
0.060
-0.004
0.079
0.043
0.006
0.001
-0.005
0.122
-0.010
0.025
0.033
-0.063
0.042
-0.013
0.009
0.010
-0.022
0.078
0.056
0.020
0.089
0.063
-0.029
-0.108
0.048
0.000
0.009
0.090
-0.026
0.050
0.028
0.064
-0.059
-0.012
0.060
0.055
-0.017
0.036
0.010
-0.008
-0.004
0.021
0.112
-0.020
0.044
0.033
0.083
-0.079
-0.024
0.022
0.002
-0.048
0.066
-0.075
0.132
-0.017
0.009
-0.001
0.083
0.079
0.027
0.051
0.055
-0.017
0.085
-0.026
-0.020
-0.047
-0.020
0.073
0.105
-0.002
0.071
0.032
-0.075
0.024
-0.010
-0.048
0.047
0.016
-0.017
0.063
0.039
0.051
0.042
-0.055
0.005
0.117
-0.087
-0.013
0.030
0.057
0.013
-0.020
0.005
-0.005
-0.024
0.077
-0.001
0.012
0.032
0.009
0.063
-0.012
-0.038
0.039
0.064
0.007
0.001
0.040
-0.010
0.009
0.002
-0.008
0.002
0.065
-0.001
0.067
-0.027
-0.063
0.107
0.030
0.101
-0.113
-0.011
0.054
0.025
-0.057
0.094
0.002
-0.020
0.054
0.020
0.009
0.028
-0.078
-0.038
-0.025
-0.034
0.129
-0.028
0.039
0.072
0.093
-0.004
0.083
-0.069
-0.021
0.072
-0.047
-0.019
0.030
-0.040
-0.023
0.063
-0.053
0.067
0.108
-0.020
0.001
-0.030
-0.007
0.047
0.126
0.031
-0.061
-0.025
0.136
0.089
0.075
0.099
-0.063
0.050
0.016
-0.041
-0.065
0.052
0.035
0.017
-0.066
-0.018
0.086
0.019
0.029
-0.002
0.085
0.011
0.056
0.004
-0.007
0.099
0.021
-0.007
0.096
0.047
-0.031
0.011
-0.003
0.075
-0.026
0.015
0.006
0.136
-0.043
0.062
-0.015
-0.049
0.052
-0.022
-0.015
0.116
0.113
0.023
-0.067
-0.017
0.032
0.098
-0.087
0.085
-0.049
0.100
-0.021
-0.041
-0.012
-0.001
-0.024
0.061
0.018
0.102
-0.023
0.039
-0.040
0.022
0.018
0.008
0.083
0.022
0.018
-0.092
-0.027
0.103
0.118
-0.036
-0.086
0.069
-0.013
0.002
0.079
-0.094
-0.046
-0.020
0.064
-0.061
0.119
0.027
-0.017
0.027
-0.043
0.018
0.001
0.053
0.074
-0.048
0.033
0.011
0.088
-0.026
-0.042
-0.002
0.045
-0.001
-0.028
0.084
-0.024
-0.025
0.007
0.020
0.048
0.008
-0.082
0.030
0.024
0.043
0.036
-0.046
0.073
0.063
0.069
-0.070
-0.111
-0.009
0.034
0.022
0.067
0.105
-0.040
-0.001
0.065
0.019
0.054
0.048
0.040
-0.042
0.113
-0.009
0.032
-0.020
-0.039
0.049
0.023
0.063
0.091
0.064
0.030
-0.077
0.036
0.110
-0.049
0.002
0.061
-0.018
0.045
-0.052
-0.035
0.011
0.073
0.047
-0.016
0.103
0.022
0.012
0.016
0.009
-0.007
0.068
0.073
0.014
0.006
-0.136
-0.080
0.061
0.113
-0.015
0.055
0.030
0.035
0.066
-0.012
-0.034
0.003
0.008
-0.062
0.086
0.126
0.030
0.092
-0.040
-0.014
-0.022
0.013
0.107
0.068
0.033
-0.073
0.113
0.103
0.004
-0.044
0.056
0.008
0.025
-0.040
-0.053
0.086
0.025
0.034
-0.072
0.011
0.044
0.008
-0.038
0.038
-0.016
0.092
-0.031
0.011
0.040
-0.056
0.012
0.017
0.087
0.049
0.010
0.029
0.072
0.030
-0.077
-0.018
0.002
0.073
-0.011
0.033
0.094
-0.006
0.144
0.013
-0.086
0.098
-0.017
0.024
-0.061
0.087
0.052
-0.010
0.106
-0.043
0.051
-0.017
-0.060
0.060
0.073
0.002
-0.107
0.013
0.036
0.071
0.061
0.033
0.055
-0.007
-0.020
-0.070
0.103
0.113
-0.076
-0.017
0.027
0.102
0.038
0.009
0.074
-0.068
-0.008
0.086
-0.027
0.049
0.035
0.004
0.083
-0.034
-0.015
0.109
-0.014
0.050
0.028
-0.066
0.085
0.087
-0.077
-0.035
0.028
0.016
0.031
-0.068
0.119
0.059
0.021
0.005
0.074
0.092
0.000
-0.147
0.084
-0.045
0.046
0.057
0.039
0.065
-0.013
-0.076
-0.023
0.026
0.010
0.010
0.056
-0.048
0.053
0.114
0.064
-0.026
-0.053
0.032
0.055
0.059
-0.089
0.093
-0.034
0.139
0.021
0.080
0.028
-0.045
-0.040
0.036
0.046
0.099
-0.009
-0.005
0.043
-0.080
0.033
0.025
-0.034
-0.066
0.027
0.035
0.145
0.093
0.001
-0.060
0.017
-0.010
-0.014
-0.017
-0.002
0.126
0.062
0.008
0.012
-0.101
0.078
-0.001
-0.009
0.049
0.048
-0.061
-0.003
0.102
-0.002
0.075
-0.116
0.057
-0.000
0.099
-0.042
-0.035
0.051
-0.041
0.059
0.004
0.059
-0.076
-0.063
0.055
-0.006
0.039
-0.046
0.080
0.046
0.030
-0.038
0.022
0.006
-0.021
-0.008
0.020
0.059
0.021
-0.019
0.098
-0.032
0.032
0.057
-0.005
0.013
0.106
-0.029
0.007
-0.037
-0.105
0.084
0.035
0.058
0.050
-0.032
0.021
0.067
0.006
0.120
0.017
-0.011
-0.001
-0.047
-0.024
0.007
-0.031
-0.036
0.024
0.034
-0.043
0.071
-0.038
0.040
-0.070
0.099
0.049
0.034
-0.028
-0.002
-0.018
-0.035
0.013
0.132
0.008
0.040
0.048
0.009
0.011
0.102
-0.001
-0.036
0.083
-0.024
0.009
-0.072
0.107
0.055
0.029
-0.057
-0.038
0.082
0.039
-0.016
0.092
-0.018
-0.049
0.141
-0.028
-0.065
0.077
0.049
-0.003
-0.007
-0.005
-0.007
0.068
0.012
0.062
0.029
0.136
0.072
-0.082
-0.065
-0.062
0.015
0.063
0.094
-0.004
0.012
0.028
0.012
-0.099
0.022
0.071
0.028
0.021
-0.072
0.008
-0.027
0.108
0.046
-0.063
0.079
0.037
0.081
-0.070
-0.025
-0.007
0.069
0.040
0.038
-0.028
0.020
0.043
0.016
0.069
-0.080
0.044
0.018
0.018
0.010
0.094
0.070
-0.034
-0.040
-0.007
0.014
-0.004
0.099
0.065
-0.003
-0.060
0.040
0.000
-0.042
0.025
0.041
-0.018
0.067
0.058
0.005
0.047
0.020
0.085
-0.033
0.003
-0.038
-0.012
-0.006
0.011
-0.034
-0.012
-0.006
0.058
0.068
-0.013
0.070
0.025
-0.004
0.043
-0.017
-0.072
0.045
0.116
0.007
0.024
0.054
-0.031
0.060
0.034
-0.024
0.049
0.042
-0.077
-0.018
0.052
0.046
-0.044
-0.040
0.048
0.038
-0.019
0.036
0.080
0.030
-0.055
0.014
0.062
-0.036
-0.033
0.033
0.015
0.042
0.055
-0.014
-0.015
0.019
0.045
0.023
-0.060
0.066
0.111
-0.094
-0.014
-0.029
0.102
-0.032
0.066
0.031
-0.053
0.176
-0.030
-0.039
0.004
-0.071
0.077
0.088
-0.052
-0.018
0.014
0.070
0.004
-0.052
0.040
0.033
0.029
0.001
-0.012
0.045
-0.031
-0.055
-0.009
0.079
0.062
0.085
-0.136
-0.014
0.074
0.069
-0.082
-0.036
0.019
0.061
-0.015
-0.010
-0.009
0.064
0.010
0.049
0.062
-0.068
0.016
0.010
0.085
-0.052
0.034
0.007
0.020
0.004
-0.036
0.016
0.004
-0.062
-0.004
0.135
0.019
-0.030
-0.035
0.070
-0.017
-0.058
-0.007
0.076
0.101
0.098
0.020
-0.021
0.005
0.061
-0.041
-0.018
-0.032
0.131
-0.015
0.001
0.016
-0.035
0.029
0.006
-0.014
0.006
0.054
0.027
0.018
-0.040
0.077
-0.022
0.073
-0.007
-0.035
0.033
0.087
0.031
-0.007
0.055
0.012
0.004
-0.004
0.081
0.026
0.001
-0.037
0.101
0.059
-0.007
-0.013
-0.002
-0.043
0.111
0.048
0.003
0.052
-0.000
-0.009
0.064
0.003
-0.065
0.050
-0.026
0.035
-0.027
0.005
0.022
0.054
0.025
-0.043
0.010
0.018
0.098
-0.012
-0.038
-0.022
-0.039
0.090
0.031
0.042
0.044
-0.046
0.080
0.051
-0.000
0.114
-0.091
-0.034
0.085
0.083
-0.050
0.028
0.093
-0.019
0.007
-0.011
0.100
-0.042
-0.003
-0.007
0.012
0.054
0.098
-0.072
-0.020
-0.052
0.036
0.038
-0.047
-0.022
0.053
0.069
0.002
-0.003
-0.047
0.007
0.054
0.001
-0.054
-0.042
0.134
0.039
-0.047
0.042
-0.049
0.021
0.082
0.049
-0.060
0.116
-0.065
0.058
0.048
-0.074
0.068
0.189
-0.018
-0.101
0.092
-0.011
0.049
-0.072
-0.019
0.044
-0.039
-0.021
-0.014
-0.009
0.063
0.018
0.011
0.024
0.121
0.009
-0.097
0.018
0.009
0.041
0.037
-0.044
-0.022
0.010
0.048
0.081
-0.020
-0.072
0.051
0.079
0.044
-0.005
0.010
0.004
0.029
0.062
-0.003
-0.006
-0.021
0.065
-0.016
0.016
-0.025
0.021
0.061
0.028
-0.048
0.064
0.012
-0.034
0.063
0.020
-0.043
-0.007
0.078
-0.008
-0.016
-0.007
0.022
0.035
-0.028
0.006
0.023
0.054
0.040
-0.076
-0.086
0.097
0.060
-0.016
0.105
0.009
-0.060
-0.029
-0.002
0.099
0.101
-0.009
0.022
-0.095
-0.058
0.059
0.136
-0.051
-0.001
0.056
-0.054
0.107
0.067
-0.085
0.054
0.016
0.055
0.066
-0.018
0.072
-0.011
0.037
-0.038
0.062
0.002
0.082
-0.009
-0.008
0.033
0.047
-0.127
0.008
0.023
-0.018
-0.000
0.115
-0.108
-0.012
0.031
0.014
0.073
0.032
0.041
-0.030
0.014
-0.014
0.040
0.062
-0.022
-0.011
0.086
0.059
0.011
-0.098
0.075
0.123
0.060
-0.052
-0.004
0.015
0.066
0.034
0.045
-0.155
0.102
0.129
-0.022
-0.073
0.033
0.086
0.036
0.007
0.021
-0.021
0.100
0.012
-0.020
0.017
0.049
0.019
0.046
-0.045
0.045
0.034
-0.014
0.048
0.060
-0.007
-0.072
-0.057
0.083
-0.041
-0.002
0.031
0.002
0.023
0.010
0.123
0.022
0.017
-0.038
0.042
-0.029
-0.005
-0.021
-0.041
0.048
0.046
0.095
0.102
0.066
-0.038
-0.023
0.044
-0.012
0.015
0.126
0.077
-0.073
-0.009
0.092
0.031
-0.065
-0.068
-0.025
0.087
-0.026
0.065
0.014
0.013
0.019
0.026
0.011
0.045
-0.013
-0.053
0.018
-0.023
0.071
0.069
-0.057
-0.039
0.012
0.031
0.123
0.009
-0.035
-0.059
0.039
0.106
-0.016
0.039
-0.004
-0.006
0.035
-0.028
0.021
0.040
-0.031
0.017
-0.041
-0.001
0.008
-0.010
0.019
-0.027
0.076
0.026
0.003
0.030
0.006
-0.052
0.005
0.009
-0.003
0.043
0.063
0.055
0.098
0.017
0.006
-0.033
-0.015
0.057
-0.007
0.042
-0.006
-0.009
-0.034
0.049
0.029
-0.047
-0.065
-0.004
-0.026
0.034
0.056
0.007
-0.057
-0.023
0.006
0.048
0.123
0.007
0.002
-0.082
-0.039
0.166
0.084
-0.027
-0.087
-0.002
0.123
0.009
0.014
0.017
0.068
-0.024
0.007
0.015
0.028
0.069
-0.002
0.028
-0.039
0.051
-0.020
0.006
-0.023
-0.020
0.060
0.004
0.088
0.181
-0.013
0.035
-0.058
-0.081
-0.013
0.067
-0.071
-0.005
0.040
0.088
-0.045
0.024
-0.010
0.093
-0.044
-0.030
0.059
-0.012
0.061
0.062
0.056
0.045
-0.001
0.082
0.097
0.048
0.005
0.005
0.058
-0.030
0.007
0.013
0.035
0.005
0.028
0.048
0.089
-0.095
-0.134
0.087
0.029
-0.016
0.060
-0.005
-0.019
0.094
-0.018
-0.000
0.030
0.029
-0.052
0.052
0.021
0.152
0.027
-0.007
-0.062
-0.039
0.044
0.015
-0.017
0.126
-0.038
0.063
-0.042
-0.010
0.103
0.068
-0.013
-0.015
0.098
0.014
-0.053
0.022
-0.084
0.103
0.020
0.095
0.022
0.019
0.052
-0.072
-0.028
-0.026
0.076
-0.034
-0.013
0.022
0.103
0.096
-0.003
0.025
-0.040
0.022
0.029
0.030
0.163
-0.018
0.008
0.042
0.076
0.051
0.032
-0.070
0.076
0.023
-0.026
0.087
-0.010
0.024
0.054
-0.048
0.029
0.050
0.043
0.122
-0.040
0.071
-0.000
-0.003
-0.063
0.065
0.006
0.095
0.003
-0.004
-0.017
-0.004
0.054
0.125
0.007
-0.007
0.134
-0.057
0.049
0.047
0.003
0.022
-0.029
0.050
0.053
0.048
-0.013
0.043
-0.056
0.004
0.057
0.066
0.091
0.002
0.025
0.030
-0.061
0.026
0.077
-0.023
0.018
0.041
0.049
-0.063
0.064
0.087
-0.017
-0.089
0.047
-0.084
0.052
-0.046
0.048
0.067
0.043
-0.037
0.022
0.117
-0.008
-0.037
0.016
0.132
0.050
-0.106
-0.034
0.048
0.003
0.002
-0.014
-0.010
0.027
0.052
-0.024
-0.055
-0.009
0.069
0.107
0.048
-0.004
0.017
-0.055
0.019
-0.042
0.001
-0.018
0.149
0.009
-0.068
0.011
-0.016
0.051
0.076
-0.071
0.097
0.021
0.020
0.020
-0.130
-0.011
-0.029
0.017
0.075
-0.059
0.032
0.080
0.048
0.053
-0.075
0.017
-0.033
0.038
0.100
0.105
-0.043
0.006
-0.043
0.015
0.084
0.112
-0.071
0.005
0.007
0.041
0.057
0.048
-0.015
0.051
-0.024
0.020
-0.029
0.047
-0.088
-0.010
0.146
0.028
-0.000
0.024
-0.022
0.026
-0.029
0.145
0.104
-0.034
-0.062
-0.040
0.017
0.071
-0.001
0.055
0.021
0.029
-0.004
0.001
0.026
0.083
-0.017
-0.041
0.021
0.020
0.113
-0.016
0.025
0.039
0.059
0.116
-0.021
0.049
-0.073
-0.013
-0.054
0.053
0.039
0.021
0.078
0.109
-0.046
0.007
-0.033
0.085
0.062
0.037
0.057
0.010
0.002
-0.032
0.016
0.056
0.062
-0.006
0.032
-0.064
0.040
0.029
0.095
0.090
0.032
0.050
0.013
0.052
0.060
0.005
0.040
-0.017
0.016
-0.058
0.095
-0.025
-0.011
0.014
0.045
-0.005
-0.014
-0.016
0.049
-0.023
0.019
0.077
-0.035
-0.029
-0.029
0.144
0.020
-0.001
0.092
-0.030
0.088
-0.014
0.005
0.045
0.151
-0.041
-0.018
0.050
0.053
-0.001
0.062
-0.086
0.067
0.084
-0.091
0.004
-0.055
0.076
0.138
-0.036
0.012
0.023
-0.006
0.048
-0.032
0.025
-0.019
0.009
0.048
-0.040
0.094
-0.060
0.111
0.032
-0.007
0.131
-0.019
0.053
0.027
0.021
-0.029
-0.058
0.002
0.084
-0.024
-0.064
0.050
0.069
0.042
-0.001
-0.029
-0.027
0.045
0.124
-0.026
0.078
-0.046
-0.075
0.062
-0.008
-0.047
0.037
0.078
0.014
0.016
-0.038
0.069
0.151
-0.078
0.045
0.058
0.053
-0.009
-0.060
0.139
0.006
-0.039
0.012
0.048
0.029
-0.037
0.067
0.002
-0.043
0.034
0.001
0.040
0.043
-0.014
-0.007
-0.040
0.109
-0.053
0.015
-0.040
0.073
-0.032
-0.037
0.084
-0.023
0.073
0.042
-0.026
-0.003
0.119
-0.006
-0.031
0.011
-0.014
0.156
-0.045
-0.022
0.045
0.033
-0.063
-0.071
0.054
0.049
0.053
-0.014
0.015
0.045
0.048
-0.017
0.069
-0.004
-0.022
0.037
0.037
0.085
-0.032
0.014
-0.062
0.048
0.056
0.068
0.054
-0.054
0.026
0.067
0.039
-0.010
-0.053
0.037
0.037
0.021
0.008
0.006
0.004
-0.076
0.008
-0.032
0.098
0.130
-0.028
0.031
0.052
0.004
0.022
-0.096
0.003
0.030
0.116
-0.014
0.064
0.038
-0.015
-0.045
0.026
-0.122
0.036
0.168
0.032
-0.047
0.013
0.010
0.087
0.106
0.026
-0.094
0.022
-0.113
0.016
0.130
-0.018
0.045
0.009
-0.006
0.035
0.076
-0.008
-0.025
-0.053
0.003
0.055
0.096
0.063
0.022
0.003
-0.075
-0.045
0.009
0.056
0.043
0.004
0.045
0.012
-0.040
-0.026
-0.026
0.001
0.034
0.022
-0.033
0.008
0.007
0.074
0.097
-0.031
0.015
-0.009
-0.000
-0.045
-0.050
0.099
0.087
-0.009
-0.093
-0.099
0.050
0.097
0.020
-0.011
-0.086
0.092
0.053
0.027
0.068
0.030
-0.079
-0.004
0.079
0.049
0.039
0.054
0.052
-0.003
-0.094
0.006
-0.088
0.116
-0.060
-0.008
0.050
-0.024
0.021
0.014
0.088
-0.001
0.141
-0.005
0.021
-0.067
-0.022
-0.021
0.031
0.125
0.099
0.063
-0.066
0.003
0.048
-0.009
0.027
0.077
-0.015
0.019
-0.077
0.010
-0.030
0.163
-0.029
-0.059
-0.045
-0.046
0.021
0.050
0.038
0.098
0.058
0.035
-0.103
0.037
-0.006
0.030
0.087
-0.056
0.115
0.090
0.055
-0.053
-0.022
0.037
0.011
0.033
0.048
0.107
-0.100
-0.017
-0.044
0.111
0.079
-0.039
-0.008
0.023
-0.019
0.014
0.033
-0.021
0.053
0.045
-0.010
0.007
0.169
0.020
0.005
0.047
0.073
-0.055
0.040
0.049
-0.070
-0.062
0.066
0.048
-0.095
0.066
0.035
-0.003
0.057
0.041
0.028
-0.017
-0.011
-0.006
-0.021
0.144
0.153
0.023
-0.006
0.037
-0.030
0.032
0.066
-0.030
-0.077
0.082
-0.048
0.043
0.058
0.026
-0.061
-0.003
-0.074
0.067
-0.006
0.088
-0.059
-0.041
-0.051
0.022
0.139
0.017
-0.016
-0.010
0.077
0.027
-0.016
-0.024
-0.059
-0.078
0.088
0.074
0.106
0.026
0.000
-0.098
-0.021
0.067
0.161
0.006
-0.018
0.018
-0.035
-0.007
0.008
0.003
-0.029
0.050
0.051
0.015
-0.030
0.012
-0.035
0.012
0.064
-0.056
0.020
-0.014
0.069
0.036
-0.014
0.008
0.062
-0.019
-0.068
-0.025
0.038
0.020
-0.100
0.024
0.032
0.034
0.048
-0.061
-0.023
0.071
-0.073
0.077
0.044
0.075
-0.013
-0.051
0.029
-0.010
0.090
-0.110
0.057
0.029
0.022
0.091
-0.065
0.015
0.022
0.031
-0.011
0.030
0.052
0.066
0.044
-0.031
-0.019
0.049
0.131
-0.052
-0.031
-0.026
-0.034
0.150
0.030
0.039
-0.090
-0.102
0.139
0.026
-0.069
0.029
0.087
0.002
0.053
0.023
0.071
-0.035
-0.025
-0.076
-0.010
0.173
0.025
0.044
-0.114
-0.019
0.103
0.040
0.016
-0.011
0.025
0.032
-0.039
-0.038
0.083
-0.014
0.058
0.034
0.009
0.011
0.038
0.047
-0.104
0.043
0.085
0.025
-0.019
-0.076
0.088
0.034
0.018
0.010
0.078
-0.028
-0.067
0.049
0.075
0.024
0.050
0.048
-0.078
0.071
-0.008
-0.095
0.035
0.079
0.006
-0.019
0.073
0.039
0.014
-0.019
-0.035
0.067
0.061
-0.043
0.020
-0.032
0.030
0.038
0.015
-0.031
-0.034
-0.055
0.037
0.158
0.039
-0.054
0.028
0.021
0.075
-0.013
-0.031
0.036
0.050
-0.031
0.043
0.060
0.061
-0.044
-0.055
-0.008
-0.008
0.091
-0.011
-0.007
-0.014
0.073
0.051
0.043
-0.059
0.028
-0.047
0.041
0.061
0.043
0.026
0.004
-0.016
0.009
0.001
0.049
0.055
0.003
-0.085
0.058
-0.027
0.000
-0.021
0.073
0.004
0.039
-0.020
0.030
-0.024
0.007
0.042
0.009
0.008
0.005
0.052
-0.083
0.038
0.032
-0.016
0.080
0.093
-0.005
0.070
0.012
0.046
-0.049
0.070
0.037
0.073
0.037
-0.043
-0.081
-0.047
0.144
0.029
-0.081
0.086
-0.063
-0.015
0.063
0.021
-0.041
0.070
0.035
0.055
0.077
0.090
-0.073
-0.078
0.070
0.025
0.072
-0.089
-0.011
0.040
0.029
0.008
0.142
-0.038
-0.059
0.020
0.104
-0.082
0.013
-0.036
0.083
0.068
0.018
0.006
-0.070
0.021
0.100
-0.023
-0.052
0.028
0.014
-0.001
0.150
-0.016
-0.071
0.019
-0.061
0.126
0.097
-0.008
0.042
0.085
-0.021
-0.036
0.024
0.007
0.036
0.057
-0.022
-0.002
-0.017
0.001
0.009
0.011
0.011
0.078
0.071
0.004
-0.048
-0.007
0.005
0.084
-0.037
-0.035
0.076
-0.072
-0.043
0.145
0.028
-0.002
0.086
0.042
-0.070
0.004
0.080
-0.002
-0.012
-0.030
0.067
-0.042
0.001
-0.023
0.049
0.006
0.069
0.052
0.012
-0.047
0.043
0.062
-0.000
-0.026
0.040
-0.009
0.112
0.028
0.036
0.032
0.032
-0.044
0.025
0.023
0.021
0.011
0.086
0.020
0.017
0.038
-0.009
0.102
-0.084
0.018
-0.005
0.020
0.022
-0.025
0.134
-0.020
0.060
0.035
0.037
-0.109
0.009
0.070
0.061
-0.010
0.060
-0.104
-0.041
0.087
0.013
0.007
-0.036
-0.054
0.111
-0.007
0.052
-0.097
0.081
0.009
0.047
-0.016
-0.004
0.077
0.027
0.120
-0.021
0.022
-0.117
0.047
0.028
0.125
0.015
0.052
-0.026
-0.041
0.045
0.007
0.038
0.019
-0.005
-0.052
0.001
0.041
0.033
-0.009
0.037
0.046
-0.146
-0.019
0.037
0.040
0.012
-0.057
0.083
-0.026
0.027
-0.006
-0.035
0.017
-0.015
0.065
0.036
-0.001
0.032
0.004
-0.080
0.002
0.168
0.011
0.017
-0.099
0.025
0.084
-0.052
0.016
-0.057
0.039
0.041
0.022
0.054
0.089
0.022
0.120
-0.034
-0.039
0.053
0.038
0.037
0.006
0.016
0.073
0.050
0.023
-0.012
0.069
0.010
-0.005
-0.005
-0.005
0.024
0.047
-0.037
-0.040
0.060
0.050
0.026
0.010
-0.037
0.003
0.019
0.107
0.074
0.048
-0.104
-0.031
0.032
0.011
0.156
0.042
-0.112
0.010
0.079
-0.017
0.027
0.078
0.060
0.013
-0.086
0.047
0.020
0.027
0.073
0.102
-0.019
0.014
0.035
0.075
-0.070
0.060
0.113
0.011
-0.067
-0.014
0.107
0.072
0.023
0.004
0.002
-0.009
0.021
-0.006
0.040
-0.070
0.038
0.012
0.046
0.159
-0.040
0.053
-0.099
-0.018
-0.065
0.067
0.031
-0.035
-0.029
-0.013
0.033
0.013
0.033
0.023
-0.022
-0.088
0.018
0.078
0.061
-0.004
-0.014
0.004
0.035
0.069
-0.001
0.045
0.025
0.041
-0.078
0.090
0.045
-0.013
0.084
-0.028
0.019
-0.040
-0.053
0.047
0.091
0.131
-0.004
0.092
-0.089
-0.042
-0.036
0.029
0.093
0.052
-0.088
0.061
-0.030
0.009
0.017
0.016
-0.079
0.007
-0.023
0.088
0.073
-0.018
-0.025
0.090
-0.000
0.016
0.046
0.023
-0.017
0.019
-0.019
0.104
0.032
-0.042
-0.002
0.046
0.008
0.045
0.003
-0.025
-0.005
-0.009
0.036
0.090
-0.025
0.004
-0.031
0.033
0.021
-0.003
-0.064
0.092
-0.097
0.082
0.055
0.014
-0.074
0.004
0.048
0.028
0.006
0.126
0.017
-0.027
0.022
0.005
0.050
0.038
0.090
-0.018
-0.053
-0.086
0.028
0.042
0.017
0.057
0.053
0.023
-0.018
0.008
-0.026
0.048
0.039
-0.063
-0.026
0.063
0.028
0.064
-0.021
0.075
-0.084
0.041
0.086
0.016
-0.086
-0.018
0.151
-0.018
-0.014
-0.026
-0.017
0.013
0.074
0.057
0.025
0.032
-0.038
-0.031
-0.011
-0.039
0.050
-0.091
0.063
0.013
-0.026
-0.018
0.045
0.118
0.074
0.097
-0.044
0.082
0.033
0.031
0.049
-0.081
0.030
0.064
0.030
-0.017
-0.003
0.047
0.007
0.060
0.079
-0.126
0.031
-0.036
0.044
0.040
-0.009
-0.009
0.007
0.030
-0.094
-0.034
0.054
0.107
-0.025
-0.008
-0.030
-0.025
0.057
-0.075
0.026
0.036
0.069
-0.041
-0.083
0.026
0.083
0.027
0.024
-0.002
-0.063
0.087
0.127
0.020
-0.031
-0.007
0.053
0.026
-0.100
0.048
0.031
-0.102
0.054
-0.001
-0.026
0.095
-0.036
-0.036
0.036
0.105
0.056
-0.050
0.019
0.099
-0.007
0.056
-0.026
-0.070
0.031
0.046
0.108
-0.002
-0.015
-0.011
-0.023
-0.058
0.043
0.046
0.098
0.070
-0.025
0.054
0.078
-0.025
-0.045
-0.036
0.120
0.083
0.029
-0.001
-0.033
-0.003
0.031
0.067
-0.003
-0.022
-0.039
0.020
-0.043
0.077
0.062
0.083
0.030
0.009
0.051
0.004
0.051
0.038
0.037
0.059
-0.075
-0.001
-0.037
0.090
0.095
-0.009
0.071
0.070
-0.065
0.040
-0.001
0.082
0.012
-0.054
0.024
0.034
0.076
-0.029
0.052
-0.009
-0.064
-0.051
0.081
0.089
0.029
-0.027
-0.040
0.070
0.122
-0.029
0.030
0.061
0.062
-0.001
-0.112
0.123
-0.036
-0.011
0.113
-0.001
-0.063
0.067
-0.007
0.125
-0.045
0.064
-0.060
0.033
-0.011
0.026
0.067
-0.027
-0.017
0.070
0.025
0.073
-0.041
-0.016
0.052
0.020
-0.006
0.067
0.055
0.047
-0.003
0.015
-0.051
0.022
0.141
0.030
0.040
0.021
-0.034
-0.025
0.016
0.065
0.068
-0.048
-0.015
0.037
-0.059
0.034
0.055
0.067
0.008
0.068
0.026
0.123
0.028
-0.059
0.027
-0.010
-0.018
0.034
0.082
0.001
0.115
-0.077
0.020
0.097
0.036
0.035
0.051
0.051
-0.018
0.097
0.049
-0.040
0.073
0.038
-0.064
0.026
0.173
-0.096
-0.078
-0.001
0.051
0.100
0.031
0.024
-0.030
0.054
-0.020
0.034
0.046
-0.002
-0.059
0.042
0.015
0.095
0.006
0.046
-0.090
0.087
0.054
-0.032
0.014
0.006
0.070
-0.011
-0.025
-0.020
0.052
0.023
-0.072
0.089
0.093
-0.023
0.087
0.037
-0.027
0.077
-0.009
0.086
0.011
-0.003
0.002
0.006
-0.009
0.118
0.075
-0.081
-0.059
0.009
0.099
0.015
-0.035
0.037
0.073
0.028
-0.029
-0.007
0.059
-0.032
-0.187
0.001
0.043
0.118
-0.003
0.092
0.020
-0.035
0.062
-0.035
-0.008
-0.014
-0.013
-0.016
0.037
0.052
-0.012
0.006
-0.009
0.051
-0.006
0.015
-0.079
0.000
0.097
0.083
0.086
0.084
-0.057
-0.021
0.023
-0.016
0.028
0.038
-0.013
0.056
-0.043
-0.033
0.074
-0.050
0.072
-0.001
0.063
-0.085
-0.045
0.077
0.013
0.077
0.018
0.101
-0.010
-0.033
0.072
-0.053
0.018
0.046
0.026
-0.027
-0.063
0.120
0.093
-0.004
0.038
-0.032
-0.013
0.074
-0.097
0.052
-0.039
0.037
0.004
0.108
-0.004
-0.065
0.069
-0.068
0.068
0.107
0.080
-0.026
0.025
-0.024
0.007
0.120
-0.016
0.057
0.091
-0.034
-0.047
-0.016
0.048
-0.038
0.145
-0.012
-0.008
0.032
-0.030
0.003
0.010
0.093
-0.004
0.015
-0.003
0.075
0.012
0.007
-0.019
0.077
-0.024
0.021
0.079
0.119
0.025
-0.032
0.042
-0.013
0.019
-0.011
0.020
0.007
0.133
-0.053
0.052
0.000
-0.031
0.010
0.023
0.014
0.006
-0.001
-0.087
0.093
0.046
0.005
-0.074
0.064
0.002
0.020
-0.038
0.031
0.137
0.049
-0.031
0.051
-0.023
0.008
0.111
-0.061
0.031
-0.001
-0.035
-0.047
0.062
-0.081
0.066
0.051
0.085
0.004
0.047
0.016
-0.021
0.040
0.112
0.005
-0.007
-0.007
0.032
0.030
0.072
-0.016
-0.058
0.035
0.032
0.024
0.059
-0.047
-0.005
0.016
0.085
-0.070
0.010
-0.002
-0.006
0.004
0.001
0.013
0.045
-0.053
0.022
0.084
-0.017
0.008
0.048
0.026
0.004
0.009
0.044
-0.025
0.104
0.006
-0.060
0.108
-0.046
0.051
0.038
-0.025
-0.005
-0.014
0.113
-0.075
0.037
0.009
0.062
0.062
-0.027
0.039
-0.054
0.001
0.076
0.077
0.059
-0.087
-0.010
-0.071
0.056
0.167
0.094
0.007
-0.118
-0.118
0.001
0.020
0.086
-0.027
-0.095
0.026
0.149
0.043
0.094
-0.040
0.028
0.013
-0.037
0.060
0.053
-0.006
0.043
-0.012
0.054
-0.027
0.042
0.041
0.038
-0.067
-0.008
0.052
-0.026
0.042
0.020
0.050
0.039
0.071
0.034
-0.055
0.004
-0.005
-0.010
-0.041
0.025
-0.076
0.038
0.011
0.070
0.019
-0.006
0.013
0.025
-0.006
0.026
0.052
0.062
0.055
0.011
-0.068
0.050
0.003
0.039
0.047
-0.030
0.025
0.002
0.105
0.069
-0.050
-0.034
0.010
0.097
-0.006
0.029
0.022
-0.038
-0.038
0.055
0.008
0.008
0.060
-0.011
0.006
0.005
0.009
0.049
0.056
-0.037
-0.089
-0.060
0.122
0.120
-0.040
0.005
0.008
-0.074
-0.063
0.141
-0.034
0.002
-0.025
0.032
-0.003
0.106
-0.058
0.052
0.102
-0.038
0.081
-0.019
0.102
0.038
-0.059
-0.036
0.091
0.050
0.086
0.032
-0.006
-0.039
0.001
-0.008
0.009
0.052
-0.041
-0.078
0.066
0.072
0.086
-0.013
0.008
0.026
-0.062
-0.036
0.057
0.006
-0.003
0.052
-0.018
-0.012
-0.069
0.065
0.130
0.087
-0.045
-0.038
0.026
0.097
0.072
-0.025
0.069
-0.049
0.006
-0.063
0.018
-0.107
0.066
0.115
0.071
-0.021
-0.011
-0.037
-0.022
-0.019
0.112
0.079
0.056
0.005
-0.067
0.014
-0.066
0.082
-0.103
0.060
0.072
0.061
0.004
0.065
-0.100
0.033
0.032
0.044
0.023
0.039
0.009
0.041
0.023
0.005
-0.050
0.059
0.036
-0.010
-0.027
-0.021
0.061
0.083
-0.028
-0.008
-0.018
0.010
0.038
0.096
0.068
0.051
-0.006
0.078
-0.024
0.063
0.040
0.049
0.029
0.035
-0.001
-0.073
-0.018
0.107
0.017
0.020
-0.026
0.131
-0.068
0.057
0.052
0.066
-0.123
0.071
-0.045
0.056
0.011
0.064
0.019
0.034
0.113
0.079
-0.057
-0.049
0.010
0.107
-0.039
0.094
-0.044
-0.037
0.071
0.066
-0.022
0.168
-0.002
-0.021
-0.025
0.132
0.044
0.045
-0.027
-0.037
-0.007
-0.053
0.144
0.088
0.000
-0.052
0.009
-0.001
-0.038
0.021
-0.031
0.035
0.067
0.006
0.049
0.024
-0.021
-0.022
0.064
0.011
-0.014
0.012
0.105
-0.051
0.040
-0.028
0.034
0.063
0.056
-0.006
-0.002
0.035
-0.037
0.066
0.028
0.012
-0.022
0.042
-0.013
-0.015
0.094
-0.052
0.028
0.091
-0.081
-0.002
0.067
-0.003
0.020
0.019
-0.008
-0.040
-0.014
0.052
0.049
0.027
0.071
-0.002
-0.026
-0.035
0.023
0.053
-0.077
0.035
0.040
0.048
0.145
0.079
-0.060
0.060
0.057
0.037
-0.042
0.115
0.051
0.035
0.012
0.012
-0.017
0.026
0.049
0.065
0.041
-0.004
-0.088
0.083
-0.048
0.026
0.030
-0.085
0.115
0.052
-0.010
-0.011
0.054
0.068
0.058
0.013
-0.088
0.048
0.143
0.006
-0.042
0.082
0.096
-0.052
0.016
0.009
0.023
0.035
-0.021
-0.020
0.057
0.058
-0.026
0.001
0.092
0.046
0.025
0.043
-0.095
0.006
0.020
-0.012
0.014
0.021
0.081
-0.036
0.048
0.034
0.100
-0.016
0.054
-0.004
0.039
0.008
0.029
-0.038
0.012
-0.000
-0.047
0.151
-0.014
0.048
0.021
-0.014
0.071
-0.062
0.031
-0.018
0.023
0.021
0.001
-0.043
0.015
0.086
0.030
-0.016
-0.011
-0.004
0.034
0.012
0.017
0.044
0.022
-0.057
0.011
0.047
0.039
0.019
0.053
0.045
0.012
-0.036
-0.027
-0.059
0.080
0.136
0.044
0.021
0.042
-0.066
-0.028
0.089
0.038
-0.019
-0.067
0.095
0.090
0.001
-0.080
-0.043
0.026
0.008
-0.025
0.036
-0.013
0.081
0.103
0.001
-0.108
0.090
0.011
0.016
0.053
0.032
-0.043
0.048
-0.054
0.010
0.053
0.029
-0.006
0.034
0.091
-0.002
0.085
-0.035
-0.028
-0.010
0.018
0.051
0.021
0.013
-0.010
0.017
-0.019
0.102
-0.000
0.085
-0.003
-0.011
0.015
0.038
-0.029
-0.032
-0.036
0.182
-0.035
0.097
0.008
-0.045
0.031
-0.011
0.057
0.018
0.014
0.008
-0.013
0.013
-0.054
0.029
0.019
-0.017
0.085
0.042
0.114
-0.081
0.060
-0.017
-0.033
-0.041
0.060
0.136
0.088
0.057
-0.019
0.043
-0.083
0.013
0.053
-0.050
-0.010
0.043
-0.001
0.034
0.077
-0.022
-0.026
0.045
-0.002
0.057
-0.025
0.036
0.064
-0.000
-0.013
0.063
0.026
-0.015
-0.007
0.081
0.140
-0.095
0.003
0.006
0.035
0.031
0.013
0.059
-0.040
0.062
0.055
0.031
0.018
-0.057
-0.038
-0.003
0.072
0.010
-0.042
-0.055
-0.002
0.005
0.196
0.012
0.028
-0.028
0.043
0.002
0.033
0.015
-0.021
0.051
-0.056
0.010
0.115
0.038
-0.019
-0.079
-0.043
0.077
0.056
-0.038
0.048
-0.021
0.048
-0.026
-0.009
0.109
0.086
0.054
0.022
-0.007
-0.096
0.037
0.021
0.009
0.045
0.067
0.064
-0.070
0.090
0.012
0.041
0.074
0.036
-0.020
0.025
0.001
-0.002
-0.056
0.007
-0.082
0.031
0.108
-0.033
0.037
0.058
0.033
-0.052
0.031
0.055
-0.064
0.000
0.007
-0.050
0.130
0.053
0.045
0.037
-0.008
-0.011
-0.072
-0.010
0.065
0.005
-0.046
0.009
0.031
0.033
0.016
0.030
0.153
0.093
0.035
-0.003
0.083
-0.015
0.021
0.014
0.027
-0.021
0.035
0.031
0.024
-0.009
0.029
0.001
-0.025
0.022
-0.025
0.073
-0.068
0.018
0.047
-0.035
0.006
0.040
0.016
-0.042
0.092
0.004
0.062
0.083
-0.069
0.045
0.024
0.015
0.044
-0.031
0.037
-0.037
-0.029
0.014
0.076
0.011
0.038
0.098
-0.078
0.042
0.018
0.098
-0.008
0.001
0.027
0.002
0.135
-0.087
0.040
0.062
0.041
0.081
-0.024
-0.057
0.029
0.001
-0.008
-0.018
-0.004
0.084
-0.051
0.059
-0.067
0.072
0.043
0.020
0.039
-0.034
0.020
0.066
0.067
-0.047
-0.049
-0.082
0.003
0.122
0.074
0.004
0.069
-0.073
-0.003
0.032
-0.004
0.039
-0.008
0.015
0.004
0.064
0.007
0.041
-0.026
0.091
0.131
0.022
-0.027
-0.091
-0.006
-0.005
-0.006
-0.028
0.041
0.094
0.109
0.076
-0.050
0.021
-0.065
-0.018
0.030
0.038
0.047
-0.011
-0.073
0.015
-0.031
0.092
0.037
-0.003
0.021
0.046
0.085
0.036
0.023
0.026
-0.011
0.052
0.017
0.054
0.009
0.061
-0.072
0.040
0.015
-0.009
0.045
-0.030
0.083
0.100
0.002
-0.036
0.005
0.092
0.068
0.027
-0.096
0.068
0.094
-0.048
0.009
0.091
0.003
0.034
-0.080
-0.062
0.067
0.017
0.030
0.032
0.014
0.021
-0.023
0.092
0.006
0.097
-0.042
0.010
0.105
0.063
0.083
-0.022
-0.074
-0.012
0.068
0.005
0.122
-0.071
-0.016
0.076
-0.012
0.064
0.023
0.062
-0.019
-0.017
0.059
0.043
0.073
-0.004
0.000
0.034
0.056
0.011
0.057
0.034
-0.067
0.022
0.091
-0.054
0.021
-0.016
-0.044
0.095
-0.018
-0.007
0.082
-0.064
0.022
0.117
0.067
0.086
-0.108
0.113
0.040
0.001
0.001
0.040
0.037
-0.015
0.084
-0.015
-0.006
0.017
0.103
0.011
0.044
-0.038
0.041
0.036
0.074
-0.038
0.002
0.031
-0.037
0.117
-0.011
0.070
-0.002
0.012
0.042
-0.006
-0.048
0.087
-0.057
0.065
0.054
-0.010
0.007
0.033
0.027
0.032
-0.050
0.122
-0.005
0.116
0.067
-0.013
-0.042
-0.000
0.042
-0.059
0.007
0.107
0.030
-0.036
0.053
-0.005
0.026
0.147
-0.060
0.048
0.079
0.018
-0.074
-0.011
0.122
0.043
0.012
0.137
-0.010
-0.013
0.033
0.021
0.005
0.024
0.025
0.064
-0.020
0.004
0.015
0.054
-0.052
-0.026
-0.006
0.044
0.033
0.000
0.094
-0.029
0.066
-0.052
0.038
-0.018
-0.003
0.064
-0.055
0.019
-0.005
0.005
0.040
-0.029
0.068
0.041
-0.033
0.047
0.057
0.061
-0.004
-0.060
-0.033
0.031
0.058
0.012
0.027
0.082
0.023
0.019
-0.026
-0.033
0.100
0.040
-0.023
-0.006
0.027
0.122
0.058
-0.074
0.049
-0.053
0.017
0.041
0.034
-0.096
0.112
-0.012
0.026
0.056
0.011
-0.049
-0.011
0.034
-0.030
0.013
-0.002
0.013
0.076
0.059
-0.034
0.017
0.011
-0.050
-0.018
0.008
0.004
0.116
0.089
-0.017
-0.001
-0.009
-0.018
-0.009
0.006
0.017
0.041
0.011
-0.018
0.096
0.100
0.014
0.038
0.003
0.033
0.044
-0.112
-0.028
0.124
0.023
0.067
-0.039
-0.018
-0.012
0.070
0.045
-0.114
0.062
0.072
0.006
0.059
-0.027
-0.020
0.049
0.133
-0.015
-0.003
0.053
0.008
0.048
-0.015
-0.029
0.057
0.030
0.086
0.066
0.040
-0.029
0.016
0.029
-0.017
0.061
0.051
-0.045
-0.044
0.017
0.005
-0.002
0.038
0.066
0.088
0.016
0.042
-0.014
0.024
0.004
0.037
-0.020
0.020
0.062
-0.041
-0.015
0.030
-0.007
0.040
-0.116
0.001
-0.033
0.053
0.034
0.154
0.097
-0.032
-0.044
0.046
0.053
0.035
0.025
-0.005
0.133
0.059
0.028
-0.074
-0.065
0.105
0.109
0.008
-0.020
0.006
-0.045
0.068
0.127
-0.063
0.031
-0.008
0.035
-0.046
-0.028
0.075
-0.004
0.057
0.011
-0.026
0.009
-0.049
0.090
-0.030
-0.037
0.090
0.055
0.066
0.044
0.075
0.043
0.068
0.009
-0.065
0.056
0.033
-0.009
-0.037
0.002
-0.012
0.044
0.008
0.068
-0.023
-0.086
0.018
0.065
0.111
-0.001
-0.079
-0.001
0.065
0.069
0.019
0.027
-0.012
0.058
-0.021
-0.004
-0.063
0.101
0.044
-0.053
-0.038
-0.002
0.015
0.082
0.083
-0.130
-0.007
0.069
-0.006
-0.033
-0.043
0.030
0.094
0.101
-0.029
-0.001
0.023
0.017
0.018
0.030
0.170
0.026
-0.061
-0.066
-0.023
0.057
0.086
0.143
-0.024
-0.099
0.055
0.025
-0.099
0.094
0.042
-0.061
0.068
-0.009
-0.068
0.056
0.006
-0.021
0.009
0.037
-0.043
0.050
0.021
-0.009
0.068
0.077
0.029
-0.060
-0.057
0.031
0.005
0.036
0.088
0.035
-0.002
-0.049
-0.020
-0.009
0.007
0.088
0.065
0.028
0.073
-0.006
-0.029
0.049
-0.053
0.041
0.020
-0.011
0.114
-0.102
-0.027
-0.101
-0.005
0.064
0.037
0.070
0.039
0.016
-0.037
0.018
0.054
0.019
-0.021
-0.015
-0.012
0.115
0.101
-0.028
0.077
-0.029
0.022
-0.016
-0.003
0.018
0.026
0.055
0.020
-0.028
-0.039
-0.014
0.041
0.041
-0.040
-0.033
0.006
0.001
0.025
0.017
-0.030
0.047
0.058
0.008
0.057
-0.068
0.006
0.032
0.029
0.079
0.000
-0.032
0.159
-0.039
0.010
0.068
-0.059
0.027
-0.077
0.108
0.030
-0.107
-0.045
0.059
0.166
0.095
0.010
-0.027
-0.086
0.073
0.033
0.050
0.073
0.034
-0.062
0.051
-0.008
-0.019
0.071
0.026
-0.003
-0.001
0.063
-0.034
-0.010
0.019
0.074
0.041
-0.007
-0.003
0.062
-0.017
-0.049
0.005
-0.025
0.048
0.015
0.083
0.049
-0.015
0.026
0.122
0.116
-0.002
0.017
-0.047
-0.001
-0.030
0.017
0.031
0.030
-0.017
0.018
0.042
0.036
0.051
0.087
-0.046
-0.048
0.082
0.026
0.033
0.087
-0.013
0.016
0.017
0.014
-0.009
0.067
-0.005
-0.015
-0.005
0.029
0.024
0.102
-0.011
0.043
0.067
0.020
-0.016
-0.010
-0.037
0.073
0.012
0.050
-0.005
0.126
-0.023
-0.040
-0.028
0.071
-0.017
0.102
-0.041
-0.058
0.093
-0.019
0.085
0.056
0.060
0.032
0.006
0.018
0.086
0.110
-0.043
0.013
0.059
0.039
-0.089
0.074
0.116
-0.003
-0.057
0.030
0.109
-0.046
0.030
0.027
-0.018
-0.094
-0.045
0.072
0.040
0.109
-0.015
-0.082
0.049
0.124
0.044
0.070
-0.001
0.119
-0.048
-0.033
0.053
0.050
0.015
0.066
0.042
0.053
-0.073
-0.074
0.050
0.102
0.005
-0.018
0.086
0.089
-0.032
0.005
-0.001
0.010
-0.007
0.035
0.111
-0.023
0.022
-0.069
-0.017
0.052
-0.032
0.038
0.076
-0.027
0.004
0.015
0.001
0.111
0.041
0.056
-0.055
-0.052
0.066
0.047
0.073
0.030
0.066
0.034
-0.055
0.043
-0.060
0.093
0.095
0.081
-0.027
0.061
0.021
-0.008
-0.024
-0.039
0.146
0.053
0.051
0.086
-0.078
0.019
0.031
0.005
-0.055
-0.025
0.083
-0.070
0.020
0.030
0.013
0.059
-0.005
-0.012
0.049
-0.029
0.054
-0.013
0.036
0.010
0.069
0.002
-0.017
0.026
-0.002
0.038
0.170
0.015
-0.024
0.020
-0.079
-0.035
0.075
0.082
0.063
0.069
0.019
0.050
0.065
0.002
-0.024
0.005
0.001
0.057
0.002
-0.075
0.033
0.016
-0.060
0.004
0.056
0.083
0.002
0.019
-0.008
-0.049
0.015
-0.039
0.035
-0.014
0.032
0.006
0.026
-0.037
0.066
0.011
0.063
0.057
0.008
-0.004
0.047
0.010
0.064
0.016
0.016
-0.001
-0.043
0.094
0.036
-0.043
-0.012
0.052
0.017
-0.044
0.002
0.048
0.056
-0.009
0.078
0.004
-0.018
0.020
0.064
-0.100
0.022
0.007
0.049
-0.035
0.037
0.001
0.082
-0.015
-0.087
0.019
0.055
-0.020
0.080
-0.011
0.020
0.076
0.093
-0.044
0.038
-0.013
0.024
0.053
-0.031
0.015
-0.006
0.031
-0.047
0.005
0.024
0.063
-0.125
0.031
0.052
-0.029
0.073
0.012
0.018
0.025
0.002
0.002
0.040
-0.060
0.010
0.040
0.092
-0.015
-0.017
0.030
0.147
-0.083
-0.040
0.028
0.049
0.045
0.005
0.064
0.013
0.043
-0.035
0.017
0.027
-0.057
0.106
0.023
0.088
-0.068
0.055
0.032
-0.080
-0.059
0.039
0.080
-0.037
0.026
0.087
-0.057
-0.038
0.046
0.034
0.052
0.100
0.011
-0.041
0.015
-0.004
0.069
0.019
0.021
0.024
0.000
-0.023
0.050
0.072
0.082
0.052
0.032
-0.035
-0.012
0.026
-0.008
0.042
0.062
0.093
0.022
0.006
-0.012
-0.004
-0.024
0.081
0.076
-0.016
-0.051
0.003
0.030
-0.055
-0.052
0.055
0.055
-0.016
0.002
0.051
-0.008
0.053
-0.061
0.064
0.102
0.043
-0.024
0.009
0.066
-0.029
0.081
0.007
-0.002
0.116
0.079
-0.011
-0.038
-0.017
-0.026
0.021
0.059
0.011
0.057
-0.048
0.071
-0.043
0.027
-0.028
0.062
0.051
0.029
0.054
-0.121
0.111
-0.019
0.013
0.008
-0.000
0.045
-0.041
0.028
0.095
0.047
-0.057
0.080
0.016
-0.111
0.002
0.118
0.065
-0.024
-0.012
0.029
-0.032
0.101
0.012
0.057
-0.028
0.015
0.095
0.026
0.025
0.018
0.015
0.044
0.013
0.074
0.040
0.024
-0.054
-0.005
0.044
-0.023
0.072
0.029
0.035
-0.028
-0.066
-0.020
0.015
0.053
-0.033
0.007
0.029
-0.034
0.133
0.030
0.011
0.171
0.009
-0.093
-0.001
0.114
-0.023
-0.085
-0.015
0.065
0.020
0.044
0.021
-0.084
-0.010
0.050
0.031
0.014
-0.008
0.071
-0.041
0.031
-0.030
0.013
0.123
0.007
-0.032
-0.014
0.042
-0.052
0.001
0.080
0.044
0.003
-0.007
0.011
-0.043
0.032
-0.041
0.052
-0.013
-0.004
-0.044
0.037
-0.009
0.030
-0.015
-0.131
0.051
0.024
-0.049
0.080
0.005
0.048
-0.050
0.127
0.004
0.001
0.026
0.076
0.102
0.015
-0.035
0.007
0.094
-0.049
0.055
0.040
-0.003
0.045
-0.021
0.021
-0.058
-0.065
0.006
-0.002
0.056
0.041
0.003
0.016
0.028
0.026
-0.093
0.055
-0.007
0.060
0.010
-0.001
0.021
0.022
-0.048
0.091
-0.076
0.196
0.059
0.000
0.004
-0.064
0.044
0.034
0.057
0.021
0.066
0.011
-0.005
-0.054
0.004
0.025
0.051
0.001
-0.030
0.056
-0.026
0.076
0.029
0.103
-0.032
-0.050
-0.059
-0.047
0.167
0.085
-0.017
0.048
0.027
-0.043
0.016
-0.036
0.093
0.010
-0.020
0.072
0.023
0.018
-0.109
0.077
-0.003
0.006
0.064
-0.027
0.018
0.010
0.087
0.037
-0.041
-0.100
0.090
0.033
0.025
0.050
0.028
-0.037
0.064
-0.036
0.056
-0.023
0.003
0.033
-0.031
-0.018
0.065
0.142
0.053
0.050
-0.069
-0.063
0.010
0.012
0.049
0.022
0.104
-0.005
-0.003
-0.055
0.096
0.074
-0.008
-0.017
0.001
-0.010
-0.024
0.045
0.077
0.047
-0.035
-0.031
0.062
-0.061
0.014
0.174
0.031
-0.065
0.017
-0.036
-0.085
0.012
0.071
0.038
0.027
-0.024
0.021
-0.014
-0.030
0.024
0.062
0.117
-0.091
0.034
-0.043
0.092
0.008
0.015
0.055
-0.014
-0.048
0.001
0.035
0.098
0.035
-0.066
0.066
-0.049
0.002
-0.017
-0.003
0.045
0.035
-0.002
0.051
-0.036
0.099
-0.176
0.097
0.132
-0.078
0.054
-0.027
0.024
0.009
0.095
0.034
-0.040
-0.045
-0.009
-0.016
0.037
0.018
-0.073
-0.014
0.035
0.035
0.054
0.043
-0.037
-0.002
0.053
-0.011
0.110
0.037
-0.032
0.028
-0.029
-0.005
-0.043
0.072
0.084
0.018
-0.029
0.022
0.022
0.064
-0.060
-0.031
0.080
0.080
0.039
0.052
0.075
-0.044
-0.034
-0.036
0.048
0.097
0.040
0.029
0.162
0.056
-0.021
-0.029
-0.042
0.019
0.005
0.029
0.015
-0.008
0.122
0.065
0.034
-0.087
-0.018
0.056
0.069
0.005
-0.014
-0.039
-0.074
0.057
0.044
-0.003
-0.013
0.008
-0.033
0.050
0.066
-0.023
0.085
0.044
0.085
0.010
-0.043
0.044
0.043
-0.024
0.067
0.133
-0.027
-0.001
0.041
-0.077
0.009
0.095
0.068
-0.012
-0.047
0.113
0.174
-0.065
0.013
-0.005
0.025
0.002
0.053
0.084
-0.072
-0.073
-0.058
0.070
-0.029
0.129
0.036
0.039
-0.061
-0.040
0.042
0.056
0.077
0.007
-0.071
-0.028
0.020
0.057
0.065
0.077
-0.009
-0.002
0.001
0.115
-0.003
0.003
0.028
-0.020
0.013
0.033
-0.006
0.008
0.051
-0.022
0.058
0.018
0.046
-0.046
0.044
-0.047
-0.010
0.112
0.059
-0.003
-0.080
0.019
0.143
0.005
-0.024
0.070
0.113
0.035
-0.053
0.031
0.051
-0.010
-0.012
0.013
0.006
0.081
0.074
0.065
0.017
0.058
0.034
-0.012
-0.035
0.039
0.014
-0.029
-0.017
0.049
0.081
0.060
-0.077
-0.052
0.094
0.106
0.027
-0.013
0.022
0.049
-0.066
0.124
-0.056
-0.027
0.075
0.066
-0.047
0.055
0.057
0.025
0.132
0.013
0.013
-0.044
-0.011
-0.007
-0.082
0.137
0.073
0.020
0.067
-0.018
-0.004
-0.034
-0.006
0.075
0.009
0.041
-0.017
0.071
0.119
-0.005
-0.078
0.026
0.047
0.010
-0.027
0.086
0.074
-0.040
0.060
0.012
-0.033
0.034
0.044
0.063
-0.002
0.034
-0.036
0.030
0.076
0.035
-0.005
0.068
0.015
0.083
-0.106
-0.071
0.009
0.010
0.049
0.056
0.013
-0.019
-0.011
0.022
0.046
-0.019
0.055
-0.010
0.141
0.026
0.049
-0.069
0.011
0.106
0.002
-0.009
0.008
0.078
0.074
0.052
-0.003
0.011
-0.053
0.080
-0.034
0.009
-0.024
0.025
0.023
-0.049
0.012
0.008
-0.012
-0.008
0.111
-0.018
-0.014
-0.016
0.030
0.143
0.009
0.048
-0.023
-0.012
0.009
0.044
0.027
0.069
-0.009
-0.000
0.059
-0.052
-0.047
0.134
-0.035
0.040
-0.051
0.068
-0.005
0.034
0.012
0.093
0.131
-0.042
-0.051
0.018
-0.094
-0.063
0.053
0.025
0.036
0.079
0.012
0.038
-0.044
-0.014
0.006
-0.045
0.090
-0.071
0.027
0.097
-0.008
0.018
0.040
-0.063
-0.045
0.004
0.025
-0.012
0.069
-0.023
0.062
0.029
-0.006
0.001
0.034
0.072
0.016
-0.046
0.047
0.040
0.037
-0.048
0.143
-0.080
-0.092
-0.000
0.014
0.085
0.045
-0.043
0.018
0.023
0.015
-0.086
0.093
0.014
0.021
0.037
0.003
-0.007
0.070
0.045
0.081
-0.017
-0.016
-0.020
0.058
-0.067
0.016
0.066
0.069
0.049
-0.023
0.038
0.019
-0.086
0.023
0.002
0.082
-0.028
0.049
0.061
-0.047
0.040
-0.016
-0.019
-0.013
0.046
0.008
0.022
0.027
-0.003
0.059
0.005
0.023
0.010
0.058
0.079
0.028
-0.015
0.003
0.075
-0.046
-0.013
-0.034
0.087
-0.023
0.020
0.086
0.045
-0.005
0.072
-0.003
0.019
0.083
-0.074
-0.010
-0.005
0.094
0.020
0.066
-0.071
0.035
0.098
0.067
-0.068
0.102
-0.052
-0.017
0.108
-0.068
0.088
0.117
-0.039
0.041
-0.038
0.010
0.059
0.036
-0.038
-0.015
0.028
-0.070
0.075
0.046
0.128
0.020
-0.008
0.015
0.012
0.015
-0.004
0.023
0.086
0.044
0.056
0.009
-0.009
0.011
0.022
0.075
0.043
-0.052
0.052
0.067
-0.024
0.077
0.025
-0.032
0.076
-0.016
-0.095
-0.090
0.046
0.067
0.034
0.130
0.028
-0.062
0.026
0.034
0.049
0.070
0.003
0.119
0.051
-0.048
-0.016
-0.001
0.051
-0.033
0.029
-0.009
0.046
0.055
0.053
-0.063
-0.013
0.001
0.001
0.038
-0.068
-0.047
0.148
0.045
-0.016
0.036
0.012
0.013
-0.004
-0.016
0.020
0.014
0.058
0.042
-0.023
0.063
-0.040
-0.064
-0.017
0.122
0.035
-0.056
0.012
0.088
-0.016
0.033
-0.032
0.035
-0.006
0.000
0.011
0.065
0.064
0.025
0.045
-0.045
0.019
0.039
0.054
0.048
0.081
-0.026
0.025
0.003
-0.004
-0.003
0.104
0.034
0.037
-0.039
0.024
-0.042
0.058
0.101
0.032
-0.075
0.044
0.012
0.027
-0.089
0.089
0.003
-0.032
0.050
-0.059
0.058
-0.044
0.068
0.012
0.065
0.039
-0.079
-0.044
0.078
0.048
0.020
0.047
0.059
-0.086
-0.008
0.123
0.044
0.039
0.062
-0.065
0.036
-0.034
0.088
0.115
0.028
0.050
-0.016
0.038
0.000
-0.003
-0.043
0.063
-0.019
-0.074
0.097
0.090
-0.027
-0.020
-0.044
-0.027
0.004
0.001
0.021
0.006
0.018
0.015
-0.108
-0.021
0.035
0.157
0.054
-0.001
-0.042
-0.018
0.024
0.013
0.056
0.002
-0.043
0.082
-0.034
-0.047
0.037
0.026
-0.032
-0.004
0.103
0.069
-0.057
0.011
0.050
0.073
0.003
0.002
-0.007
0.006
0.096
-0.020
0.011
0.052
-0.004
0.062
0.086
-0.008
0.036
0.011
-0.042
0.017
-0.031
0.087
0.024
0.025
-0.009
-0.082
0.017
-0.044
0.065
-0.019
0.038
-0.013
-0.036
0.013
0.108
0.091
-0.001
0.029
0.005
-0.015
-0.034
0.063
-0.012
-0.026
0.111
0.090
-0.039
0.036
0.000
0.010
0.108
0.014
-0.009
-0.076
0.013
-0.005
0.126
0.032
-0.044
0.053
0.040
-0.057
0.078
-0.012
-0.014
0.041
-0.027
0.009
0.078
-0.004
0.017
0.052
-0.001
-0.011
-0.086
0.102
0.090
0.070
0.023
-0.003
0.025
-0.059
0.089
-0.069
0.020
-0.057
0.038
0.087
-0.002
-0.080
0.043
0.033
0.028
-0.030
-0.025
0.029
0.106
0.006
0.006
-0.053
0.021
0.144
-0.038
-0.002
-0.020
-0.032
-0.019
0.035
0.086
-0.003
-0.067
-0.020
0.073
0.053
0.036
0.006
0.025
-0.022
-0.008
0.029
-0.073
0.046
0.044
0.066
-0.027
0.087
-0.026
-0.079
0.090
0.079
0.047
0.084
-0.030
-0.019
0.044
-0.057
0.029
-0.063
0.079
-0.040
0.030
-0.008
0.052
0.040
0.048
-0.015
0.031
0.044
-0.005
-0.072
0.021
0.078
0.040
-0.093
0.016
0.028
0.020
-0.069
-0.001
-0.051
0.096
0.045
0.037
-0.066
0.008
0.011
0.004
0.014
0.084
0.010
-0.017
0.064
-0.006
-0.028
-0.030
0.085
-0.073
-0.081
0.039
0.032
0.084
0.099
0.107
-0.008
-0.003
-0.043
0.073
-0.002
0.024
0.008
-0.051
0.063
0.054
0.005
0.021
0.030
0.012
0.022
-0.085
0.055
-0.018
-0.028
0.046
0.045
0.061
-0.012
-0.038
-0.086
-0.004
0.055
0.073
-0.042
0.073
0.013
-0.043
0.019
0.106
-0.105
0.063
0.057
-0.077
0.041
0.032
0.046
0.033
-0.014
0.025
0.018
-0.067
0.120
0.074
0.006
-0.071
-0.015
0.082
0.072
0.020
-0.036
-0.024
0.035
0.036
0.127
-0.030
0.027
-0.020
0.005
0.021
-0.046
0.083
-0.028
0.028
-0.025
0.090
0.008
0.082
0.011
-0.070
0.072
-0.019
-0.063
0.120
-0.054
0.025
0.068
-0.015
0.044
0.014
0.033
0.050
-0.034
0.056
0.029
0.001
-0.034
-0.057
0.049
0.094
-0.049
0.110
-0.053
0.027
0.053
-0.047
0.070
-0.074
0.112
0.024
0.034
0.088
0.023
0.006
-0.063
-0.013
0.104
0.090
-0.083
0.008
-0.014
-0.028
-0.004
0.104
-0.079
0.019
0.012
0.032
0.025
-0.040
0.112
0.055
0.030
-0.031
0.063
0.018
0.004
0.075
0.033
-0.023
0.060
-0.055
0.031
0.033
0.020
0.012
0.012
-0.077
0.120
0.042
0.008
-0.013
0.039
0.034
-0.002
0.003
-0.008
0.077
-0.065
0.077
-0.005
-0.081
0.013
0.006
0.069
0.085
-0.069
-0.018
0.040
-0.027
0.002
0.007
0.098
-0.003
-0.007
0.067
0.003
-0.078
-0.009
0.092
0.036
0.016
-0.015
0.044
0.042
0.087
0.002
-0.008
0.015
0.058
0.021
0.018
0.097
0.034
-0.018
0.035
-0.065
-0.009
0.011
0.030
0.024
0.069
0.075
-0.041
-0.020
-0.007
-0.025
0.106
0.083
-0.151
-0.031
0.010
0.070
0.007
0.080
0.021
-0.023
-0.019
0.025
0.051
0.088
0.085
-0.012
-0.029
0.006
-0.032
0.040
0.039
0.114
-0.122
0.000
0.016
0.095
0.033
0.047
-0.006
-0.055
-0.021
0.022
0.012
0.041
-0.005
0.056
0.032
0.038
-0.025
0.043
0.063
0.063
0.025
-0.079
0.084
-0.042
-0.074
-0.056
0.056
0.061
-0.031
0.102
-0.091
0.067
0.039
-0.049
-0.008
0.006
0.055
0.016
0.047
0.027
-0.082
-0.012
-0.021
0.098
0.072
-0.057
0.008
0.037
0.071
0.019
0.010
0.099
0.000
-0.098
-0.003
0.110
0.124
0.078
0.066
-0.024
-0.119
-0.080
0.056
0.068
-0.050
0.124
0.098
-0.010
-0.039
0.010
-0.005
-0.043
0.053
-0.050
0.005
0.012
0.062
0.098
0.093
0.038
0.035
0.028
-0.042
-0.012
-0.051
0.091
0.164
-0.095
-0.009
0.024
0.048
-0.051
0.014
0.054
0.044
0.072
0.047
-0.001
-0.011
0.064
0.006
0.022
0.076
0.081
-0.004
0.056
-0.005
-0.025
0.078
0.012
0.003
0.052
-0.028
-0.011
0.048
-0.065
0.061
0.038
0.061
-0.029
0.017
0.108
-0.014
0.110
-0.012
-0.040
0.086
-0.095
-0.055
0.050
0.067
0.069
-0.029
0.022
-0.039
-0.085
0.059
0.059
0.088
-0.006
-0.003
-0.079
-0.026
0.021
0.076
0.075
-0.040
-0.014
0.032
-0.066
0.090
-0.023
-0.005
0.026
0.112
0.011
-0.062
0.102
0.029
-0.046
-0.022
-0.034
0.048
0.091
0.028
0.014
0.021
-0.054
-0.026
-0.043
0.074
0.006
0.042
0.038
-0.015
0.111
0.041
0.024
0.046
0.059
-0.018
-0.100
0.014
-0.003
0.032
0.048
0.008
-0.018
0.166
0.045
0.010
-0.055
0.002
0.044
0.004
0.022
0.075
-0.045
0.123
-0.048
-0.122
0.038
0.106
-0.008
-0.030
-0.024
0.043
-0.037
0.037
-0.002
0.039
-0.049
0.020
0.023
-0.006
0.170
0.010
-0.041
0.032
-0.039
0.025
0.091
0.084
0.054
-0.078
0.020
0.110
-0.024
-0.042
0.043
0.019
0.176
0.012
-0.042
0.054
-0.016
0.034
-0.046
0.018
-0.051
0.067
0.041
-0.020
-0.003
0.026
-0.055
0.008
0.022
0.134
-0.048
0.001
0.064
0.038
-0.045
-0.048
-0.069
0.040
0.019
0.079
0.031
-0.087
0.022
0.089
0.023
-0.028
0.065
0.010
0.018
-0.014
0.110
0.073
-0.043
-0.003
0.007
-0.043
0.068
0.030
0.091
0.025
-0.032
-0.020
0.079
0.079
-0.024
-0.024
0.076
-0.053
0.031
-0.003
0.050
0.010
0.096
0.035
-0.030
-0.011
0.059
0.049
0.075
-0.015
-0.047
0.060
-0.010
0.091
0.016
0.014
-0.063
-0.023
0.027
-0.073
0.091
0.049
-0.051
0.065
-0.109
0.114
-0.060
-0.053
0.031
0.058
0.108
0.063
0.075
0.057
-0.072
0.005
0.061
0.074
-0.031
-0.025
0.005
0.076
0.088
0.104
-0.020
0.004
0.035
-0.073
-0.021
-0.001
0.077
0.117
-0.008
-0.038
-0.011
-0.051
0.079
0.036
-0.041
0.033
-0.012
0.139
-0.084
0.064
-0.013
-0.050
-0.021
0.069
0.024
0.072
-0.032
0.004
-0.090
0.080
0.053
0.083
-0.085
0.046
0.019
-0.005
-0.072
0.045
0.052
0.100
0.028
0.031
-0.001
-0.021
0.102
0.037
0.077
0.145
0.052
-0.135
-0.024
0.092
0.055
0.032
0.021
-0.021
-0.043
0.072
0.044
0.030
-0.024
-0.024
-0.019
0.020
-0.038
0.012
0.005
0.014
0.023
0.046
0.071
0.024
0.056
-0.059
-0.027
0.041
0.016
-0.032
0.015
0.043
-0.038
0.042
0.040
0.011
0.032
0.048
-0.026
-0.022
0.045
0.106
-0.062
0.049
0.012
-0.041
0.018
0.031
0.066
0.001
-0.058
0.146
0.102
-0.116
0.041
-0.003
0.044
0.001
0.091
-0.007
0.051
-0.003
-0.021
0.014
0.056
0.043
-0.028
0.025
-0.141
0.084
0.032
0.063
-0.025
-0.025
-0.003
0.021
0.010
0.085
0.004
-0.005
0.001
0.047
-0.005
-0.021
0.061
0.053
0.051
-0.024
0.039
0.112
0.003
-0.038
0.008
-0.007
0.114
-0.006
-0.039
-0.033
0.070
0.053
-0.041
0.072
0.106
0.028
0.036
0.023
-0.010
0.008
0.024
-0.094
0.039
0.009
0.057
0.032
-0.032
0.084
-0.009
0.049
0.062
0.023
0.024
0.069
-0.003
0.024
0.062
0.005
0.032
0.110
0.074
0.020
-0.022
-0.019
0.060
0.019
0.020
0.060
-0.044
-0.051
-0.010
0.026
0.155
-0.010
0.035
0.035
0.011
0.006
0.002
0.057
0.045
0.019
-0.025
0.084
-0.003
0.023
-0.057
0.056
0.029
0.063
0.007
-0.038
-0.023
0.022
0.015
-0.022
0.078
0.091
0.031
-0.014
-0.052
0.039
0.044
0.067
0.035
0.015
0.015
-0.053
-0.020
0.054
-0.002
0.006
0.047
0.124
0.023
-0.046
0.053
0.070
0.021
-0.048
0.106
-0.018
0.070
-0.053
-0.046
-0.019
0.020
0.082
-0.020
0.005
-0.004
0.016
0.050
-0.030
0.038
-0.005
-0.054
0.099
0.018
0.065
0.022
0.055
0.090
-0.036
-0.077
-0.013
0.087
0.042
-0.022
0.025
0.057
0.000
0.030
0.029
0.017
-0.070
0.073
0.049
-0.063
0.052
-0.003
-0.025
0.015
0.050
0.022
-0.031
-0.015
-0.003
0.104
0.023
-0.037
0.066
-0.017
0.004
0.041
0.051
-0.004
0.001
0.071
0.088
0.009
0.018
-0.000
-0.041
0.051
0.060
-0.035
0.011
-0.021
-0.042
0.025
-0.024
0.053
0.012
-0.017
0.068
0.069
-0.013
0.026
0.034
0.016
0.061
0.016
0.009
-0.021
0.003
0.072
0.159
-0.018
-0.058
-0.017
-0.022
0.028
0.034
-0.036
0.020
0.018
0.013
0.001
0.006
0.131
-0.086
-0.020
-0.005
0.024
0.001
0.032
-0.034
0.045
-0.015
-0.079
0.051
0.020
0.006
0.032
-0.005
-0.017
0.071
0.051
0.072
-0.119
0.002
0.020
-0.090
0.084
0.080
0.066
0.009
-0.018
0.020
0.023
0.051
-0.089
-0.078
-0.027
0.035
0.053
0.014
-0.059
-0.046
-0.002
0.030
0.020
0.091
-0.096
-0.022
0.027
0.057
0.062
-0.030
0.020
-0.079
0.117
0.040
-0.063
-0.010
0.023
0.048
0.049
0.049
-0.040
0.043
0.044
-0.036
-0.049
0.029
0.109
0.045
0.029
-0.034
0.011
0.009
-0.014
0.038
-0.103
0.023
0.089
0.011
-0.006
0.069
0.037
-0.052
-0.062
-0.003
-0.008
0.020
0.090
0.009
0.014
-0.014
-0.019
0.046
0.018
0.055
0.023
-0.020
0.101
0.047
0.090
0.005
-0.037
0.061
-0.019
0.039
0.068
0.048
0.078
0.053
-0.022
-0.025
0.002
0.019
-0.022
0.022
0.033
-0.031
-0.016
0.003
0.034
0.036
0.013
-0.035
0.021
0.046
0.021
0.019
0.099
0.059
0.001
0.026
0.031
-0.057
-0.009
-0.023
0.007
0.114
0.014
0.100
0.083
-0.050
0.014
0.091
-0.020
0.003
0.006
0.185
0.043
-0.021
-0.071
0.052
0.090
-0.086
-0.083
-0.080
0.041
0.057
0.007
0.065
-0.006
-0.058
0.058
0.047
-0.051
-0.076
0.041
0.031
0.108
0.115
0.024
-0.035
-0.018
0.054
-0.005
0.048
0.088
0.025
0.049
-0.041
0.018
0.114
0.063
-0.015
-0.005
-0.012
-0.010
0.051
0.064
0.039
0.004
0.028
-0.062
0.136
-0.024
0.039
-0.004
0.058
0.032
0.003
-0.004
0.047
-0.015
0.022
-0.028
0.085
-0.023
0.071
0.068
-0.002
0.035
0.051
0.060
0.023
-0.042
0.099
0.013
-0.061
0.088
0.075
0.022
-0.033
0.044
0.005
0.046
0.035
0.023
-0.028
0.016
-0.007
0.018
0.078
-0.048
0.052
0.011
0.045
-0.010
-0.012
-0.015
-0.025
0.106
0.103
0.011
-0.060
-0.004
0.106
0.070
-0.020
0.053
-0.012
-0.051
-0.032
0.106
0.017
0.051
0.051
-0.123
0.007
0.105
-0.019
0.029
0.019
0.008
0.042
0.005
0.002
-0.021
0.098
0.008
0.117
-0.010
0.004
0.024
-0.007
0.028
0.021
-0.093
0.061
0.013
-0.043
0.053
0.081
0.010
0.025
0.024
-0.007
-0.009
0.053
-0.007
0.001
0.043
0.091
-0.022
-0.047
0.044
0.020
0.054
0.043
-0.076
-0.068
0.026
0.049
0.029
-0.057
-0.058
0.058
0.035
-0.042
0.068
0.038
-0.032
0.019
0.044
-0.007
-0.008
0.029
0.059
0.149
-0.001
0.022
-0.028
-0.018
-0.059
0.156
-0.068
0.050
0.066
-0.017
0.036
-0.013
0.034
0.052
-0.001
0.014
0.019
0.055
0.058
0.031
-0.088
-0.023
0.048
0.094
0.041
0.033
-0.130
0.031
-0.010
0.154
0.029
-0.067
0.047
0.015
0.055
0.010
0.057
-0.105
-0.006
0.044
0.039
0.001
0.016
-0.025
-0.036
-0.006
0.096
0.039
-0.030
0.045
0.005
0.039
0.017
-0.043
0.094
-0.011
0.055
0.048
-0.017
-0.011
0.090
0.081
0.029
0.034
-0.022
0.037
-0.080
0.102
0.108
0.021
0.090
-0.009
-0.010
-0.015
-0.039
-0.009
0.056
-0.014
-0.019
0.062
0.061
-0.021
0.031
0.163
0.031
0.026
-0.104
-0.021
0.035
0.019
-0.004
0.095
0.029
0.000
0.016
-0.074
-0.001
0.095
-0.026
-0.075
0.039
0.051
0.018
0.019
0.016
0.005
-0.052
0.081
0.095
0.029
0.012
0.021
-0.099
0.097
0.098
0.047
0.010
0.032
-0.005
-0.005
0.019
0.034
-0.028
0.018
0.007
-0.088
0.035
0.053
0.013
-0.001
0.053
0.079
-0.015
-0.070
0.121
0.089
-0.056
-0.019
-0.022
0.050
0.051
0.048
0.034
-0.002
0.077
-0.019
-0.016
0.040
-0.010
-0.062
-0.052
0.038
0.033
-0.038
0.064
0.045
0.008
0.053
-0.075
-0.119
0.106
0.059
-0.112
-0.024
0.063
0.034
0.032
0.028
0.009
0.059
0.003
-0.076
-0.074
-0.060
0.039
0.056
0.090
-0.001
-0.002
0.032
0.019
0.049
-0.034
0.014
-0.044
-0.020
0.138
-0.014
0.026
-0.049
0.005
-0.080
-0.030
0.157
0.117
-0.007
-0.064
0.001
-0.069
-0.098
0.100
0.070
-0.000
-0.023
-0.012
-0.014
-0.038
0.009
0.028
-0.028
0.082
0.029
0.049
-0.032
-0.005
0.055
-0.087
0.049
-0.063
0.018
-0.025
-0.035
0.062
0.044
0.029
0.075
-0.098
0.039
-0.042
0.007
0.004
0.053
-0.055
-0.071
0.085
0.095
-0.020
0.004
0.016
0.060
0.070
0.070
-0.037
-0.037
0.118
0.048
0.005
-0.041
0.037
0.086
0.010
0.004
0.085
0.002
0.042
-0.007
-0.047
-0.035
0.148
0.006
0.117
-0.015
0.037
-0.051
0.002
-0.049
-0.084
-0.002
-0.043
0.061
0.087
0.074
0.024
-0.063
0.057
0.058
-0.061
0.101
0.065
0.056
0.051
0.004
-0.049
-0.076
-0.001
0.035
0.046
-0.018
0.050
0.021
0.035
0.018
0.025
-0.042
0.036
0.004
0.120
-0.080
-0.035
0.144
0.028
-0.007
0.029
-0.055
0.058
0.031
0.075
-0.004
-0.073
0.042
0.090
0.074
0.068
-0.063
-0.055
0.094
-0.025
0.067
0.088
-0.081
-0.016
-0.000
-0.023
0.071
0.064
0.050
0.007
0.062
0.074
0.021
-0.044
-0.103
-0.008
0.049
0.161
-0.025
0.046
-0.041
-0.032
0.040
0.016
0.129
-0.017
-0.026
0.063
0.032
-0.002
-0.046
0.035
0.092
0.072
-0.037
-0.016
0.039
0.044
0.036
0.072
-0.007
-0.056
0.046
0.002
0.136
-0.001
-0.002
0.013
0.045
0.033
-0.059
0.053
0.046
0.015
0.094
0.076
-0.005
-0.052
0.021
0.111
-0.089
0.068
0.003
0.075
0.090
-0.035
-0.090
0.028
0.015
0.040
0.008
0.055
0.005
0.009
0.027
0.059
-0.129
0.016
-0.011
0.059
0.035
0.107
0.081
-0.088
-0.092
0.030
0.054
0.052
-0.023
-0.026
-0.038
0.030
0.055
0.028
0.008
0.041
-0.017
-0.018
-0.006
-0.002
0.021
0.098
-0.049
0.020
-0.025
0.005
0.042
0.103
0.049
-0.042
0.031
0.120
-0.026
-0.033
-0.035
0.028
0.091
-0.033
-0.011
-0.084
-0.000
0.004
0.007
-0.003
0.007
-0.013
0.126
-0.023
0.097
-0.106
-0.038
0.092
0.010
-0.086
0.088
0.035
0.001
-0.001
0.090
-0.007
0.013
-0.044
0.038
0.083
-0.031
0.024
0.021
-0.010
0.076
0.035
0.101
0.056
-0.016
-0.047
-0.041
0.017
-0.038
0.025
0.066
0.004
0.035
0.010
-0.054
0.067
-0.006
0.031
0.102
0.017
-0.020
0.063
0.027
0.052
0.016
0.015
0.014
-0.006
0.051
0.092
0.067
0.026
-0.029
-0.011
0.018
0.064
-0.041
0.050
0.034
0.002
-0.015
0.044
0.054
0.054
-0.091
0.029
0.017
0.072
-0.012
-0.017
-0.012
-0.003
0.080
0.092
-0.055
-0.007
-0.041
0.059
0.086
0.073
-0.028
-0.074
0.025
0.030
0.059
-0.028
0.111
0.099
0.063
-0.046
-0.037
-0.079
-0.039
0.046
0.147
0.108
-0.003
-0.063
0.073
0.146
-0.026
-0.023
-0.017
0.069
-0.012
0.082
0.099
0.086
-0.060
0.037
-0.017
-0.011
0.023
-0.054
0.044
0.049
-0.027
-0.006
0.013
0.002
0.052
-0.012
-0.057
0.018
-0.019
-0.067
0.051
0.028
0.056
-0.034
0.022
-0.074
0.038
-0.027
0.008
0.077
0.120
-0.068
0.020
-0.014
0.043
0.043
0.049
-0.016
0.100
0.040
-0.039
0.014
0.058
-0.009
0.075
0.052
0.052
0.051
0.075
-0.036
-0.017
0.041
0.005
0.007
0.000
-0.031
0.012
-0.035
0.005
0.065
0.032
0.009
-0.001
-0.007
0.090
0.000
-0.099
0.109
0.014
0.062
0.087
0.045
-0.023
-0.092
-0.071
0.082
0.055
-0.064
0.051
0.082
0.004
0.013
0.044
-0.025
0.059
-0.027
0.090
-0.070
-0.052
0.019
0.025
0.028
0.034
0.170
0.028
-0.106
0.033
-0.052
0.060
0.047
0.098
-0.029
0.024
0.007
-0.011
-0.069
0.087
0.011
0.103
0.004
0.022
0.015
-0.012
0.042
0.003
0.058
-0.053
0.035
0.052
-0.023
0.011
0.085
-0.022
-0.044
0.022
-0.003
-0.024
0.045
-0.005
0.017
0.066
-0.034
0.011
0.001
0.127
0.038
-0.043
-0.111
-0.044
0.075
-0.071
0.128
0.017
0.094
-0.071
-0.023
0.028
-0.016
0.071
0.074
-0.036
0.039
-0.034
0.032
0.070
-0.061
0.008
0.003
0.001
-0.026
-0.029
0.018
0.016
0.040
0.105
0.027
0.015
-0.055
0.053
-0.035
-0.012
0.137
-0.077
0.065
0.115
0.036
0.052
-0.020
-0.067
0.094
0.054
0.052
0.027
0.023
-0.028
0.021
-0.005
0.107
0.048
0.060
-0.059
0.058
-0.101
0.084
0.115
-0.092
0.042
-0.048
0.106
-0.014
-0.009
-0.036
0.060
0.016
0.007
0.109
0.014
-0.003
-0.019
0.007
0.056
0.034
0.108
-0.017
0.020
-0.040
0.092
-0.043
0.152
0.047
-0.040
0.022
0.009
0.048
0.076
-0.009
-0.016
0.031
0.053
0.010
-0.010
0.050
-0.066
0.118
0.132
-0.010
0.017
-0.068
0.018
0.094
0.138
-0.070
-0.084
0.046
-0.050
0.069
0.161
0.069
-0.023
-0.006
0.089
-0.007
-0.017
0.038
0.006
0.076
-0.082
0.014
0.072
0.026
0.035
0.040
-0.015
-0.013
-0.113
0.049
0.146
-0.026
0.006
0.031
0.007
0.087
0.062
-0.018
0.015
-0.055
0.057
-0.025
0.071
0.029
0.055
-0.007
0.032
0.008
0.025
0.059
-0.014
-0.010
0.025
0.015
0.090
0.112
0.013
0.042
-0.033
0.097
-0.006
0.026
0.025
-0.004
0.014
-0.023
0.006
0.043
0.051
-0.051
-0.003
0.008
0.103
0.024
0.030
0.042
0.073
-0.063
-0.054
-0.017
0.027
-0.027
-0.013
0.018
0.030
0.028
0.024
0.032
0.046
-0.036
0.036
0.040
0.045
0.004
-0.074
0.068
0.016
-0.015
0.050
0.016
0.027
0.045
-0.051
-0.030
0.090
0.018
0.038
0.001
0.063
-0.037
-0.057
0.014
0.106
0.022
-0.001
-0.009
-0.023
-0.027
0.141
-0.009
-0.037
0.087
0.010
0.056
-0.037
0.004
-0.035
-0.088
0.039
0.076
-0.037
-0.023
-0.019
-0.049
0.038
0.035
0.049
0.002
0.053
-0.114
-0.071
0.119
0.042
0.088
0.014
-0.096
-0.005
0.053
0.065
0.019
0.073
0.062
0.076
-0.030
0.016
-0.011
-0.036
0.067
-0.027
-0.012
0.055
0.143
-0.066
0.051
-0.011
-0.029
-0.016
0.072
0.029
-0.014
0.056
-0.018
0.075
0.026
0.125
-0.064
-0.017
-0.047
0.094
0.049
0.039
0.093
-0.036
0.036
-0.013
0.018
0.021
-0.050
-0.120
0.053
0.012
0.014
0.028
0.039
0.101
-0.072
0.060
0.032
-0.033
-0.082
0.080
0.114
0.071
-0.026
0.051
-0.035
-0.012
-0.003
0.040
0.026
0.065
0.043
0.054
0.044
-0.039
0.026
0.040
0.086
0.034
-0.032
0.048
-0.012
0.102
-0.023
0.020
0.024
0.076
0.001
-0.001
-0.008
0.027
-0.036
-0.045
0.019
0.015
0.033
0.057
0.040
-0.030
0.028
0.026
-0.095
-0.016
0.072
0.069
0.111
-0.078
0.006
0.015
0.020
0.000
0.054
-0.001
0.027
-0.001
-0.035
0.082
0.025
-0.002
0.080
-0.024
0.060
-0.075
0.108
-0.060
0.002
-0.026
0.143
-0.046
0.020
-0.025
0.040
0.122
0.023
0.094
-0.071
0.070
-0.001
0.001
0.063
0.043
0.049
-0.029
-0.028
-0.008
0.063
-0.031
0.026
0.056
0.010
0.026
0.042
-0.004
0.171
-0.042
0.009
0.003
0.046
0.014
-0.013
-0.106
0.110
0.022
0.021
-0.040
0.038
0.034
0.125
-0.090
-0.017
0.043
0.014
0.005
0.009
-0.049
0.071
0.049
0.000
0.025
-0.019
-0.074
0.074
-0.019
0.004
0.018
0.001
-0.048
0.064
0.106
0.014
-0.021
0.021
0.035
-0.044
0.125
0.065
0.036
-0.055
0.065
0.007
-0.035
0.038
0.055
0.014
0.024
0.053
0.087
-0.038
-0.093
0.002
-0.030
0.051
0.027
0.052
-0.022
0.018
0.012
-0.063
0.012
0.072
0.045
-0.015
-0.030
-0.045
0.097
0.058
-0.022
0.043
-0.039
-0.010
-0.052
0.091
0.023
-0.024
0.072
0.069
-0.031
0.046
0.002
-0.061
0.051
0.014
0.089
-0.024
0.141
-0.054
-0.063
-0.002
-0.050
-0.028
0.010
0.013
0.077
-0.007
-0.010
0.039
-0.001
0.106
0.045
0.006
0.035
0.050
-0.021
0.002
0.002
0.086
0.022
-0.011
-0.070
0.002
0.105
-0.009
-0.019
0.009
0.005
0.019
-0.063
0.048
0.061
0.050
-0.025
-0.019
-0.007
0.010
0.022
0.090
0.001
0.028
0.014
0.052
0.023
0.004
0.032
0.058
0.023
-0.010
-0.066
0.042
0.040
0.052
0.039
-0.002
0.012
0.009
0.023
-0.054
0.019
-0.019
-0.016
0.086
0.041
0.068
0.091
0.082
-0.163
0.009
-0.021
0.023
0.058
0.089
-0.075
0.029
0.012
0.036
-0.047
0.044
-0.019
0.081
-0.065
0.045
0.108
0.047
0.017
0.027
0.054
0.035
0.039
0.042
-0.032
-0.066
0.030
0.050
0.040
0.025
0.076
-0.001
0.002
-0.013
0.084
0.102
-0.080
0.020
0.048
-0.022
0.084
0.097
0.018
-0.018
0.025
0.002
0.012
-0.059
0.052
0.124
0.037
-0.038
-0.000
0.026
-0.053
0.007
-0.021
0.124
0.036
0.081
0.065
-0.011
0.028
0.055
0.067
-0.090
-0.092
0.037
0.052
0.013
0.048
0.048
-0.045
0.032
0.064
0.075
-0.027
0.017
0.040
0.001
0.031
-0.033
0.007
-0.074
0.008
0.065
0.081
-0.035
0.008
0.066
-0.035
0.095
0.068
-0.040
-0.002
0.047
0.043
0.066
0.007
0.028
0.052
0.035
0.016
0.047
0.046
0.026
-0.116
0.032
0.066
0.044
0.017
-0.011
0.045
0.052
-0.041
0.023
0.013
0.022
-0.041
0.028
-0.027
-0.013
0.081
-0.098
-0.064
0.083
0.098
-0.053
0.009
0.008
0.036
0.041
-0.038
-0.022
0.103
0.049
0.095
-0.042
-0.034
0.007
0.062
0.053
0.077
-0.006
-0.071
-0.019
0.066
0.019
0.012
0.023
-0.052
0.002
0.012
-0.050
0.092
0.011
-0.113
0.093
0.069
0.091
0.056
-0.019
-0.068
-0.025
0.063
0.070
0.033
-0.052
0.001
0.005
0.107
0.044
-0.001
-0.090
-0.017
0.067
-0.006
-0.016
0.084
0.079
0.076
-0.078
0.018
-0.028
0.035
0.112
-0.008
0.075
-0.023
-0.021
0.039
-0.025
0.044
-0.007
0.068
0.019
0.044
0.068
-0.053
0.065
0.032
0.054
-0.009
0.034
0.084
-0.059
-0.008
0.035
0.036
0.046
0.028
-0.052
0.015
0.105
-0.001
-0.041
0.029
0.043
0.007
0.098
0.051
-0.022
0.073
0.018
-0.010
0.077
0.053
0.080
-0.011
-0.008
0.022
-0.061
0.043
-0.006
-0.003
-0.003
-0.031
0.080
0.033
0.001
0.007
-0.012
0.049
-0.047
0.119
0.047
-0.060
0.068
0.086
0.041
0.002
0.003
0.042
0.035
0.039
-0.097
0.029
-0.064
0.086
0.049
0.054
-0.031
-0.008
0.051
0.001
-0.060
-0.038
0.042
0.045
0.067
-0.027
-0.041
-0.067
0.035
0.014
0.078
-0.022
0.020
0.056
-0.009
-0.176
0.032
0.092
0.023
-0.047
0.023
0.048
0.083
-0.050
-0.020
-0.008
-0.011
0.040
-0.070
0.047
0.056
0.072
0.048
-0.065
0.042
-0.014
0.039
-0.009
0.067
0.065
-0.001
0.137
-0.011
0.009
-0.048
0.035
0.001
-0.015
0.060
0.009
-0.049
0.024
0.063
0.024
0.024
0.041
0.132
-0.047
0.058
-0.055
0.071
0.050
-0.082
0.072
0.003
0.113
0.053
0.012
0.024
0.069
-0.099
0.007
0.066
0.010
-0.019
0.021
0.057
0.048
0.000
0.069
0.035
0.038
-0.018
0.036
0.028
0.101
0.004
0.036
0.038
0.034
0.039
-0.036
0.110
-0.048
0.026
0.057
-0.003
-0.007
-0.019
-0.005
0.133
0.008
0.054
0.051
-0.051
0.023
-0.026
0.139
-0.029
-0.029
-0.023
0.059
0.018
0.006
-0.024
-0.012
-0.018
0.106
0.024
0.044
0.018
-0.069
0.005
0.043
0.008
-0.002
0.039
-0.027
-0.049
0.034
-0.012
0.034
0.012
0.159
-0.008
0.004
-0.047
-0.018
-0.011
0.015
-0.035
0.030
0.042
0.149
0.059
-0.089
-0.042
-0.003
0.028
-0.017
-0.040
-0.015
0.081
0.015
0.071
-0.027
0.045
-0.028
0.037
0.022
0.044
-0.011
-0.024
0.001
0.064
0.024
-0.035
0.087
-0.049
0.058
0.024
-0.018
-0.034
-0.007
-0.004
0.046
0.004
0.091
0.078
0.055
-0.024
-0.071
-0.013
0.055
0.010
0.088
0.019
-0.007
0.061
0.087
0.031
0.028
-0.027
-0.007
-0.047
0.015
0.110
-0.036
0.067
0.107
-0.001
-0.062
0.024
0.112
0.067
-0.042
0.028
-0.030
0.094
-0.003
0.112
0.003
-0.037
0.098
0.016
-0.040
0.013
0.047
0.018
0.104
0.077
-0.078
-0.011
0.061
0.025
0.048
-0.009
-0.017
-0.048
-0.060
-0.000
0.062
0.004
0.071
0.007
-0.053
0.018
0.048
0.079
-0.010
0.081
0.031
0.059
-0.035
-0.018
0.072
0.017
0.014
0.159
0.068
0.036
0.005
0.023
0.011
-0.027
0.020
-0.016
-0.015
0.064
-0.000
0.078
0.034
-0.069
-0.025
0.070
0.106
0.052
0.022
0.019
0.011
-0.092
-0.036
0.086
0.097
0.000
0.040
-0.008
0.024
-0.017
-0.011
0.070
0.026
0.078
-0.125
0.127
0.064
0.096
0.072
-0.034
-0.034
0.021
0.014
0.040
0.017
-0.005
0.056
0.021
0.064
0.075
0.020
0.043
-0.013
0.082
-0.012
0.033
0.044
0.011
-0.001
0.104
-0.040
-0.040
0.116
-0.015
0.068
-0.025
0.007
0.020
0.082
0.026
-0.021
0.000
-0.003
0.057
0.031
-0.030
0.140
-0.103
-0.036
0.016
0.072
0.187
0.045
0.047
-0.112
0.053
0.049
0.010
-0.049
-0.008
0.000
0.118
0.112
-0.075
-0.002
0.036
0.044
0.001
0.014
-0.071
0.047
0.010
0.123
0.072
0.063
0.006
-0.062
-0.024
0.035
0.047
-0.027
-0.009
0.025
0.018
0.145
-0.085
0.015
0.008
0.024
0.009
-0.050
0.048
-0.026
0.104
-0.002
0.020
-0.008
0.026
-0.016
-0.041
-0.035
0.164
0.088
-0.115
0.042
0.030
0.062
0.036
0.021
0.025
0.064
-0.087
-0.034
0.061
-0.027
0.112
-0.014
-0.019
0.031
-0.050
0.056
-0.006
0.011
0.035
0.009
0.014
0.010
0.144
-0.021
-0.044
0.002
-0.002
0.038
0.002
0.120
-0.078
-0.053
-0.003
0.086
0.078
0.062
0.012
-0.020
0.022
-0.080
0.004
0.015
0.064
0.060
-0.052
-0.040
0.088
0.060
-0.041
0.044
0.087
-0.008
-0.058
0.047
-0.085
0.021
0.058
-0.013
0.020
0.040
-0.006
0.014
0.000
0.130
-0.125
0.006
-0.002
0.029
0.077
0.077
-0.019
-0.008
0.058
0.037
0.067
0.007
-0.008
0.012
-0.045
0.062
0.149
-0.010
-0.026
-0.010
-0.010
0.013
0.032
-0.074
0.019
0.091
-0.053
0.085
-0.009
0.052
0.008
0.005
0.001
0.027
-0.004
0.107
0.104
0.020
0.041
0.026
0.006
0.035
-0.006
-0.015
-0.030
0.005
0.111
0.085
-0.040
-0.006
-0.014
0.105
0.024
0.047
0.005
0.037
0.065
0.164
-0.041
-0.020
-0.013
0.044
0.002
0.030
0.013
0.053
-0.001
-0.026
-0.023
0.012
0.112
0.038
0.008
0.001
0.038
0.064
0.034
-0.056
0.002
0.017
-0.001
0.027
0.050
0.003
0.066
-0.017
-0.032
0.023
0.057
0.034
0.069
-0.074
0.024
0.097
-0.005
-0.038
0.115
0.048
-0.024
-0.010
0.054
0.086
-0.053
-0.045
0.038
-0.045
-0.032
-0.046
0.036
-0.003
0.093
-0.086
0.055
0.053
0.015
-0.051
-0.110
0.053
0.128
0.002
-0.002
-0.045
0.066
0.090
-0.051
-0.055
-0.020
-0.011
0.076
-0.035
0.072
-0.013
0.041
0.049
0.118
0.017
-0.075
-0.021
0.043
0.032
-0.027
0.015
-0.051
0.065
0.052
0.033
-0.006
0.023
-0.022
0.035
-0.038
-0.018
0.072
-0.031
-0.005
0.010
0.080
-0.005
0.045
-0.036
0.105
0.111
-0.006
-0.020
0.022
0.002
0.072
-0.039
0.060
0.003
0.160
0.080
-0.093
-0.020
-0.003
0.131
-0.027
0.054
-0.049
0.077
-0.009
0.000
-0.005
0.109
0.004
0.056
-0.041
0.122
-0.032
-0.033
0.105
0.106
-0.011
0.021
-0.027
0.052
0.041
0.050
0.049
0.042
-0.056
0.084
-0.006
-0.047
0.004
0.034
0.076
0.044
0.039
-0.156
-0.061
0.051
0.027
0.091
0.038
-0.008
-0.010
0.044
-0.056
0.055
0.032
0.038
0.059
0.050
-0.117
0.060
0.057
0.048
-0.088
-0.036
0.064
-0.042
0.028
0.074
0.005
0.151
0.064
-0.023
-0.011
-0.048
0.035
0.016
-0.023
0.069
-0.028
0.027
0.015
-0.003
0.071
0.010
0.004
-0.060
-0.123
0.067
0.069
0.012
0.054
-0.034
0.046
0.032
-0.065
-0.021
-0.035
0.108
0.107
0.075
0.018
-0.066
-0.057
-0.009
0.072
0.059
-0.014
0.037
0.025
-0.076
0.004
-0.001
0.026
0.061
-0.074
0.072
0.009
0.027
-0.080
0.071
0.080
0.107
0.061
-0.021
-0.036
-0.018
0.052
0.061
-0.008
0.049
0.101
-0.064
0.024
0.071
-0.075
-0.024
0.071
0.093
-0.048
-0.009
0.052
-0.068
-0.011
0.093
0.088
0.057
-0.066
-0.005
-0.064
0.062
0.001
0.014
0.011
0.042
0.048
-0.007
0.023
-0.011
0.015
0.055
-0.069
-0.051
-0.025
0.093
0.092
0.018
0.007
-0.006
-0.024
-0.015
-0.054
0.122
-0.003
0.035
0.084
-0.023
0.061
0.012
0.071
0.039
-0.009
-0.003
-0.041
0.095
-0.038
-0.001
-0.025
0.035
-0.014
-0.046
-0.070
0.045
0.112
0.047
-0.054
-0.013
0.011
0.051
0.095
-0.046
0.080
-0.018
0.046
0.032
0.009
-0.033
0.006
-0.003
0.011
0.005
0.012
0.074
-0.000
-0.042
0.078
0.042
0.068
-0.094
0.038
-0.018
0.026
-0.033
-0.070
0.020
0.039
0.071
0.036
0.023
0.031
-0.008
-0.026
0.044
0.027
-0.059
0.061
0.037
0.035
0.105
0.033
-0.036
0.011
-0.030
0.120
0.062
0.058
0.048
-0.099
-0.012
0.095
-0.035
0.022
0.060
0.003
0.011
-0.074
0.087
-0.060
0.026
0.072
-0.081
0.056
0.014
0.044
0.001
0.066
-0.007
0.050
-0.111
0.060
0.004
0.031
0.086
0.025
0.009
0.034
0.118
0.030
-0.037
-0.001
0.037
-0.001
0.077
0.017
0.032
-0.021
0.026
-0.030
0.066
0.065
0.002
0.010
-0.043
0.072
0.015
-0.114
0.135
0.038
-0.009
0.025
0.007
0.085
0.057
0.001
0.061
0.003
-0.003
0.041
-0.037
-0.046
0.093
0.033
0.111
0.031
-0.036
0.009
0.019
-0.035
-0.045
0.084
0.033
0.051
0.052
-0.046
-0.147
0.024
0.062
0.068
-0.027
0.048
-0.006
0.029
0.011
-0.012
0.127
0.061
-0.016
0.035
-0.038
-0.003
0.054
-0.018
0.025
0.024
0.034
-0.009
0.029
0.034
0.052
0.099
0.028
-0.045
0.022
0.086
0.019
0.045
-0.048
0.039
0.012
0.036
0.006
-0.045
-0.056
-0.013
-0.010
0.064
-0.021
-0.013
0.089
-0.028
0.056
-0.046
0.076
0.039
0.001
0.000
-0.010
0.093
0.019
-0.001
0.021
-0.063
0.061
-0.026
0.032
0.067
0.048
0.025
-0.012
-0.011
-0.031
0.021
0.047
0.128
0.095
-0.034
-0.016
-0.005
-0.002
0.070
-0.055
0.069
0.022
-0.002
0.047
-0.089
0.037
0.030
0.045
0.056
-0.001
0.037
-0.039
0.009
-0.012
0.133
0.055
0.044
0.012
0.081
-0.063
-0.017
0.084
0.014
0.017
0.061
-0.041
0.054
0.004
-0.054
0.023
0.059
0.033
-0.063
0.001
0.046
0.028
-0.032
-0.038
0.001
0.090
0.068
0.085
-0.010
-0.044
-0.007
-0.044
0.108
-0.092
-0.050
-0.008
0.078
0.090
0.049
0.041
0.056
0.010
0.055
-0.042
0.063
0.124
-0.008
-0.091
0.122
-0.040
0.054
0.041
-0.015
0.048
0.030
-0.023
0.036
0.034
0.015
0.006
-0.009
-0.005
0.027
-0.046
-0.048
0.107
-0.010
-0.002
0.051
-0.018
-0.033
0.081
0.001
-0.061
0.027
0.063
-0.105
0.066
-0.034
0.000
0.072
0.028
-0.042
0.061
0.102
-0.030
-0.010
0.059
0.084
0.067
-0.110
0.018
-0.018
0.094
0.012
0.107
0.022
0.042
0.034
-0.024
-0.051
-0.076
0.089
-0.026
0.078
-0.003
0.039
0.071
-0.052
-0.029
0.060
0.022
-0.085
0.003
0.061
0.040
0.055
0.028
0.062
0.060
-0.020
-0.017
-0.019
-0.022
0.107
-0.018
0.006
0.034
0.017
-0.000
0.057
0.070
0.068
-0.054
0.034
0.007
0.026
-0.087
0.031
-0.039
0.008
0.097
0.019
0.054
0.025
0.103
-0.007
0.018
0.048
-0.004
0.069
0.035
0.084
-0.068
-0.012
0.059
-0.017
0.007
0.070
-0.008
0.082
0.019
-0.077
0.014
0.057
0.045
0.126
0.034
0.002
-0.107
0.039
0.085
0.036
0.056
-0.006
-0.052
0.089
0.036
0.029
0.032
0.063
0.001
-0.108
0.025
0.030
0.098
-0.029
0.002
0.105
0.019
0.012
-0.070
-0.007
0.113
0.022
-0.004
-0.050
0.079
0.018
0.067
0.034
0.066
0.020
0.008
-0.054
0.005
0.159
0.059
0.099
0.116
-0.080
-0.068
0.027
0.019
0.065
-0.010
-0.021
0.011
-0.055
0.051
-0.031
-0.004
0.095
0.006
0.063
-0.032
-0.004
0.100
0.034
-0.033
0.038
-0.017
-0.067
0.036
0.013
0.057
-0.089
-0.033
0.078
0.038
0.035
-0.026
0.064
-0.004
0.021
0.029
0.005
-0.015
0.011
0.129
0.043
0.070
-0.062
-0.002
-0.009
0.004
0.019
0.160
-0.069
-0.049
-0.010
0.043
0.041
-0.086
0.099
0.047
0.040
0.005
-0.032
-0.007
-0.052
0.028
0.028
-0.036
-0.028
0.073
-0.015
0.037
0.146
0.007
-0.100
0.016
0.001
0.086
0.031
0.003
-0.090
-0.012
0.032
-0.052
0.036
0.050
0.099
-0.053
-0.004
0.040
0.035
0.063
0.083
-0.063
0.035
-0.015
0.053
0.088
-0.010
0.060
0.015
-0.027
-0.036
0.031
0.073
0.062
-0.050
0.073
0.020
-0.009
0.093
0.037
-0.024
0.073
-0.000
-0.035
0.088
0.066
-0.031
-0.007
-0.034
0.008
0.080
-0.020
0.015
-0.027
0.029
-0.046
-0.010
0.041
0.061
0.008
0.011
-0.061
0.043
0.060
0.037
0.026
0.026
0.046
-0.040
0.006
0.008
0.028
0.013
0.050
0.104
0.038
-0.055
0.045
0.027
0.125
0.033
-0.078
0.014
0.053
0.029
0.017
-0.004
0.033
0.068
-0.004
0.008
0.019
0.006
0.020
0.003
-0.001
0.049
0.037
-0.097
0.033
0.037
0.071
0.015
0.067
0.013
-0.027
-0.013
0.004
0.025
-0.085
0.118
-0.013
0.044
-0.019
-0.054
0.030
0.023
0.041
0.063
0.000
-0.024
0.048
0.044
0.021
0.050
-0.050
-0.004
0.073
0.036
-0.026
0.058
0.044
-0.008
0.004
0.043
-0.026
0.065
0.024
0.020
-0.049
-0.009
0.044
0.024
0.070
0.096
-0.018
0.019
-0.082
0.085
-0.030
0.081
-0.018
0.012
0.034
0.046
-0.070
0.073
-0.036
0.056
-0.041
0.062
-0.065
-0.010
0.061
-0.062
0.039
-0.007
0.109
-0.022
0.062
0.030
-0.030
-0.018
0.085
0.041
0.078
-0.006
-0.013
0.083
0.015
0.036
-0.007
0.022
-0.024
0.049
0.020
0.002
0.077
-0.009
-0.048
0.014
-0.028
-0.039
-0.080
0.060
0.079
0.054
-0.012
-0.014
0.049
0.015
0.029
-0.031
-0.059
0.019
0.103
-0.014
0.036
-0.006
0.044
0.043
0.073
0.021
-0.009
0.082
0.033
-0.085
0.166
0.007
-0.040
0.036
-0.044
-0.040
0.039
0.101
0.029
-0.022
0.020
-0.018
0.067
-0.024
-0.003
0.070
0.031
0.109
0.085
0.022
0.011
-0.011
-0.066
-0.040
0.038
0.073
0.035
-0.001
-0.054
0.033
0.011
-0.025
0.016
-0.014
0.048
0.033
0.003
-0.017
0.052
-0.038
0.053
-0.023
-0.052
0.063
0.033
0.086
-0.012
0.054
-0.015
0.037
0.019
0.023
0.058
-0.004
-0.030
0.028
0.069
0.025
0.016
-0.083
0.038
-0.003
0.036
0.081
0.006
-0.020
-0.003
0.006
0.056
-0.003
-0.008
0.054
0.089
0.024
-0.018
-0.005
0.061
0.053
0.005
0.004
-0.052
-0.117
0.133
0.112
0.041
-0.047
-0.033
0.018
0.071
-0.072
-0.018
0.014
0.060
0.047
0.030
0.043
-0.045
0.059
0.021
0.020
0.066
0.005
0.009
0.010
-0.009
0.103
-0.062
0.033
0.030
-0.056
-0.002
0.050
0.010
0.085
0.039
-0.004
0.033
0.054
0.062
0.018
-0.051
0.056
0.005
0.013
0.167
-0.040
0.041
0.012
0.096
-0.024
-0.030
0.053
0.019
-0.048
0.052
-0.017
0.022
0.019
0.048
0.051
-0.136
0.025
0.116
0.026
-0.027
-0.031
0.043
0.017
0.031
0.053
-0.017
0.027
0.033
0.026
0.054
-0.047
0.060
0.085
-0.024
0.060
-0.033
0.051
-0.037
0.082
0.025
-0.016
-0.017
-0.027
0.069
0.037
-0.002
0.016
-0.063
-0.035
0.060
0.107
-0.012
-0.032
-0.058
0.099
0.028
-0.056
-0.020
-0.091
0.075
0.054
0.012
0.046
0.002
-0.057
-0.024
0.000
0.091
0.088
0.155
0.029
-0.112
-0.114
0.112
0.155
0.014
-0.058
-0.021
0.007
0.049
-0.054
-0.019
0.071
0.032
0.060
0.020
0.010
-0.014
-0.039
0.025
0.050
-0.021
0.028
-0.019
0.037
0.058
0.013
0.031
-0.030
0.031
-0.075
-0.001
-0.010
0.010
0.091
0.011
-0.002
-0.044
0.072
0.061
0.005
0.022
0.033
-0.031
0.015
-0.039
0.050
0.023
0.125
0.015
0.094
0.133
-0.035
-0.044
-0.013
-0.030
0.134
0.016
0.020
0.010
0.051
0.004
-0.063
-0.059
0.062
-0.107
0.071
0.047
0.014
0.035
0.035
-0.090
0.001
0.035
0.057
0.031
0.050
0.097
-0.043
-0.012
0.042
0.063
-0.037
0.068
-0.027
0.012
0.052
0.007
0.014
0.065
-0.008
-0.082
0.068
0.073
0.123
0.002
-0.046
0.015
0.070
0.022
0.020
-0.004
0.084
-0.048
-0.075
0.108
0.019
-0.012
0.058
0.032
0.004
0.012
0.003
0.146
0.011
-0.027
0.013
-0.006
-0.011
-0.011
0.024
0.040
0.016
0.090
-0.010
0.006
0.087
0.080
0.057
0.003
0.018
-0.009
0.061
0.095
-0.053
-0.004
0.012
0.060
0.059
0.030
-0.072
0.004
0.069
0.034
0.045
-0.089
0.074
0.002
-0.038
0.110
-0.045
0.011
0.028
0.054
0.017
0.038
0.001
-0.005
0.027
0.022
0.001
0.002
0.083
-0.034
0.019
0.024
-0.040
0.055
0.058
0.002
0.059
0.040
0.016
0.024
0.081
-0.002
0.043
0.040
0.024
0.030
0.038
-0.023
-0.012
-0.030
0.060
0.005
0.020
-0.035
0.040
0.063
0.063
-0.029
-0.035
-0.067
0.044
-0.009
-0.034
0.068
-0.005
0.026
0.010
0.036
-0.007
-0.023
0.029
0.010
0.086
-0.021
0.027
0.010
0.004
0.005
0.063
-0.002
0.005
0.091
-0.016
0.005
0.031
0.012
0.018
0.042
0.087
-0.043
-0.029
0.033
0.168
0.016
-0.100
-0.003
0.062
0.066
0.024
0.067
0.018
-0.024
0.002
0.049
0.078
0.010
-0.025
0.053
0.037
-0.048
-0.012
0.054
0.076
0.003
-0.080
0.091
0.178
-0.068
-0.085
-0.002
-0.026
0.130
0.105
0.014
-0.052
-0.063
0.036
0.090
0.053
0.029
-0.059
0.004
0.101
0.067
0.069
0.111
0.066
0.046
0.029
-0.026
0.006
0.016
0.081
0.011
-0.041
0.004
0.073
0.022
0.057
0.002
0.011
-0.007
0.058
0.012
0.039
0.039
0.071
0.076
0.056
0.011
-0.130
0.092
0.066
-0.008
-0.012
0.029
-0.022
0.022
0.017
0.028
0.026
0.038
0.096
0.028
-0.028
0.054
0.059
0.050
-0.020
0.082
-0.028
0.034
0.054
0.064
0.010
0.056
0.049
0.074
-0.004
0.024
-0.069
0.040
0.002
-0.057
0.039
0.079
0.088
-0.011
-0.041
0.023
0.015
0.053
0.003
-0.043
-0.039
0.081
-0.017
0.050
-0.067
0.016
0.053
0.007
0.009
0.027
-0.016
0.115
0.042
-0.022
-0.030
0.048
0.060
0.049
-0.087
0.033
0.096
0.010
0.029
0.073
-0.027
-0.014
0.040
-0.021
-0.039
0.045
-0.005
0.012
0.113
-0.035
-0.039
0.019
-0.033
0.111
0.063
-0.053
-0.070
-0.035
0.096
0.025
0.001
-0.027
0.017
0.017
0.040
0.028
-0.028
0.062
-0.055
0.039
0.090
-0.022
0.023
0.014
0.083
0.022
-0.035
0.016
0.052
-0.044
-0.053
0.095
0.100
-0.011
0.025
0.032
-0.059
-0.057
0.072
-0.004
0.041
0.046
0.035
-0.134
-0.002
0.080
0.059
0.015
0.041
0.038
0.051
-0.039
0.018
-0.047
0.036
0.076
0.010
0.063
0.108
-0.069
0.042
-0.037
0.010
0.041
0.020
0.131
0.007
-0.053
0.002
0.041
-0.031
0.013
0.046
0.020
0.061
-0.050
0.107
0.092
-0.036
-0.050
-0.043
0.108
-0.024
0.014
0.084
0.040
0.021
-0.026
0.051
-0.056
0.058
-0.016
0.002
0.029
0.027
0.026
0.105
-0.003
-0.044
0.078
0.077
0.013
-0.058
0.031
0.071
0.060
0.047
0.026
0.023
-0.038
0.048
-0.036
0.089
0.071
0.011
-0.043
-0.029
0.022
-0.004
0.077
0.035
0.071
-0.045
-0.016
-0.086
-0.025
0.042
0.043
0.086
-0.026
0.028
0.008
0.013
0.054
0.116
0.024
0.097
0.045
-0.055
-0.003
-0.055
0.139
0.037
0.003
-0.069
-0.035
-0.035
0.040
0.068
-0.040
-0.020
0.116
0.132
-0.057
0.017
0.004
-0.010
-0.042
0.165
-0.040
-0.007
-0.033
0.075
-0.049
0.022
0.098
0.093
0.045
-0.008
0.064
-0.053
-0.050
0.016
0.105
0.085
-0.024
-0.058
0.039
0.054
-0.039
0.011
-0.012
0.010
-0.021
0.036
0.002
0.071
0.005
0.059
0.030
0.002
0.009
0.004
-0.018
0.040
0.011
0.037
-0.029
0.001
0.077
0.092
0.076
-0.001
0.003
0.037
0.114
-0.022
-0.029
0.064
0.046
0.085
-0.040
-0.008
0.006
0.014
0.047
-0.044
0.095
-0.013
0.029
0.082
0.047
0.048
0.004
0.019
0.083
-0.023
-0.113
0.008
0.078
0.027
-0.028
0.041
0.050
-0.005
0.010
-0.043
0.081
0.034
-0.021
0.043
0.008
0.109
0.031
-0.023
0.054
-0.007
-0.010
0.030
0.072
0.026
0.085
-0.048
-0.060
-0.000
0.049
0.081
0.067
0.006
-0.057
0.017
0.052
-0.023
0.038
0.012
0.060
0.066
-0.026
-0.038
-0.087
0.150
0.067
-0.072
0.056
0.028
0.113
-0.054
-0.028
0.042
0.097
-0.041
-0.009
-0.047
0.053
-0.068
0.057
0.022
0.134
-0.065
-0.014
0.059
0.107
0.055
-0.019
0.004
0.054
0.047
-0.026
-0.000
0.025
0.016
-0.059
0.048
-0.037
-0.005
-0.036
-0.019
0.014
0.116
-0.066
-0.057
-0.024
0.029
0.128
0.032
-0.008
0.082
-0.026
-0.100
0.054
0.051
0.064
0.000
0.033
-0.009
0.047
0.035
0.011
0.093
0.004
-0.040
0.015
0.116
0.018
0.015
0.055
0.027
0.058
0.022
-0.012
-0.091
-0.003
-0.016
0.014
0.035
-0.050
0.022
0.028
0.064
-0.071
0.034
-0.034
0.041
0.006
-0.021
0.081
0.076
-0.072
0.008
0.037
0.031
-0.035
0.039
0.038
0.003
-0.072
0.075
0.017
-0.028
0.041
0.129
-0.104
0.061
-0.003
-0.023
0.072
-0.016
-0.031
0.026
-0.014
-0.027
0.122
0.108
0.011
-0.021
0.013
0.033
-0.021
0.003
0.047
0.049
0.010
-0.019
0.055
0.025
0.077
0.043
-0.010
0.019
-0.054
0.083
-0.071
0.004
0.018
-0.067
0.068
0.170
0.034
-0.044
-0.016
-0.006
-0.021
0.005
0.073
0.032
0.149
-0.064
0.116
-0.022
-0.058
0.045
0.017
0.058
0.062
-0.018
0.034
0.065
0.053
0.024
0.029
-0.056
-0.035
0.061
0.039
-0.032
0.003
0.037
-0.059
-0.008
-0.011
-0.023
0.084
-0.089
0.093
0.149
-0.008
-0.073
-0.006
-0.043
0.092
0.056
0.125
0.058
-0.018
-0.087
0.106
0.018
-0.014
-0.020
0.045
0.030
0.016
0.057
0.025
0.010
-0.064
0.026
0.056
0.032
-0.019
0.047
-0.051
-0.040
0.002
-0.003
0.117
0.087
0.050
-0.081
-0.027
0.035
-0.022
0.006
0.055
0.015
-0.000
-0.022
0.002
0.101
0.036
-0.004
-0.023
-0.040
0.012
-0.053
0.014
-0.019
0.051
0.025
0.004
-0.152
-0.016
0.091
0.080
-0.070
0.034
0.075
-0.043
-0.009
0.039
0.027
0.053
0.049
-0.052
-0.005
0.093
-0.013
0.017
0.097
0.043
0.064
-0.010
0.026
0.046
-0.030
0.019
0.028
-0.028
0.008
0.079
0.037
0.023
-0.016
0.009
0.138
0.063
0.005
0.022
-0.043
0.001
0.026
0.057
0.041
-0.018
-0.085
0.086
-0.016
0.044
-0.013
0.007
0.010
-0.110
0.069
0.033
0.106
-0.005
-0.029
0.009
0.091
0.017
0.009
0.009
0.036
-0.018
0.045
0.053
0.042
0.011
0.089
-0.064
0.040
-0.007
0.111
0.045
0.035
-0.065
-0.010
0.083
-0.025
-0.004
0.121
-0.043
-0.017
-0.009
0.045
0.057
0.036
0.058
0.033
-0.003
-0.075
0.016
0.071
-0.010
0.000
0.054
0.016
0.057
-0.034
-0.013
0.039
0.018
0.047
0.038
0.032
0.036
0.021
0.024
0.014
-0.043
0.016
0.071
-0.027
-0.043
-0.042
-0.088
0.012
0.056
0.057
0.014
-0.066
-0.039
0.045
0.055
-0.030
0.116
0.006
0.013
0.038
0.026
-0.025
-0.011
0.015
0.109
0.022
-0.025
0.021
-0.004
0.045
0.076
-0.057
0.079
0.041
-0.005
-0.054
0.050
-0.051
0.059
0.005
-0.016
0.006
0.072
0.014
0.083
-0.020
0.021
0.028
-0.031
0.103
0.045
-0.051
0.039
0.117
0.019
-0.013
-0.071
0.048
0.025
0.017
-0.023
0.047
0.063
-0.097
0.101
-0.025
0.006
0.009
0.059
0.023
-0.016
0.010
-0.013
0.022
0.062
0.015
0.008
-0.029
0.075
0.004
0.023
0.078
-0.029
0.039
0.034
-0.035
0.093
0.006
0.014
0.027
0.062
0.060
0.101
-0.035
-0.012
-0.042
0.070
0.060
-0.008
-0.024
0.021
0.082
-0.053
0.006
0.039
0.005
0.046
0.048
0.022
0.062
0.028
0.077
-0.061
-0.098
0.056
0.036
0.080
-0.008
-0.001
-0.050
-0.004
-0.050
0.112
0.076
0.001
0.068
0.005
-0.052
-0.046
0.019
0.052
-0.037
0.077
0.051
0.018
0.057
-0.065
0.043
0.068
0.025
0.001
0.086
-0.019
0.048
0.036
-0.047
-0.023
0.074
-0.001
0.065
-0.003
-0.027
-0.016
0.055
0.092
0.012
0.019
0.065
0.001
0.036
-0.021
-0.018
0.015
0.108
-0.088
0.061
0.055
-0.038
0.071
0.041
-0.023
0.014
0.008
0.004
0.004
0.043
0.033
0.083
-0.047
0.030
0.013
-0.080
0.080
0.059
-0.066
0.036
0.020
-0.010
0.107
-0.009
0.044
0.010
0.032
-0.083
0.029
0.042
0.034
0.025
-0.025
0.011
-0.037
0.093
0.047
-0.050
-0.036
0.068
0.093
0.039
-0.031
0.024
0.050
-0.026
0.035
0.082
-0.031
-0.081
0.098
0.027
-0.032
-0.022
0.016
-0.021
0.057
0.051
-0.003
-0.066
0.030
-0.081
0.120
0.054
-0.003
0.045
0.012
0.045
0.056
-0.044
-0.052
-0.037
0.086
0.032
0.013
0.007
-0.081
0.062
0.077
0.053
-0.030
0.008
0.051
-0.048
0.003
0.026
0.053
0.022
-0.030
-0.029
-0.005
0.033
0.062
-0.049
-0.052
0.012
0.077
-0.072
0.078
0.052
0.026
0.125
-0.049
0.044
-0.048
0.008
0.019
0.128
-0.018
0.027
-0.049
0.004
0.007
0.175
-0.060
-0.111
0.098
0.002
0.029
0.017
-0.093
0.104
0.066
0.029
0.011
-0.008
-0.037
0.037
-0.003
0.010
0.002
0.039
0.020
-0.014
0.039
0.049
0.033
-0.113
0.016
0.090
-0.021
0.040
0.075
0.062
-0.037
0.004
-0.034
0.047
0.064
0.001
-0.028
0.045
0.084
0.063
0.031
0.005
-0.012
0.092
-0.003
0.028
-0.007
0.113
0.040
0.008
-0.046
-0.097
0.055
0.091
-0.013
-0.046
0.041
0.099
0.041
0.002
-0.031
0.034
0.051
0.013
0.095
0.051
0.023
-0.005
-0.042
0.127
0.070
-0.000
-0.014
-0.023
0.001
-0.024
0.036
0.007
-0.029
-0.002
0.091
0.050
-0.037
0.049
0.048
-0.025
0.044
0.032
-0.003
-0.066
0.093
0.103
0.032
0.067
0.095
-0.015
0.020
0.014
-0.028
-0.017
-0.025
0.118
-0.016
-0.065
-0.044
0.087
0.036
0.032
0.038
-0.019
-0.036
0.018
-0.040
0.077
0.053
0.028
-0.007
-0.031
0.026
0.059
-0.056
-0.000
-0.020
0.060
0.048
0.014
0.002
-0.055
0.001
0.084
0.039
0.041
-0.032
-0.024
0.058
0.079
-0.008
0.008
-0.060
-0.029
0.033
-0.035
0.085
0.075
0.004
0.044
0.038
0.010
0.027
-0.037
0.034
-0.033
0.027
0.070
-0.064
0.019
-0.048
0.100
0.050
0.008
0.051
0.005
-0.015
0.046
-0.033
0.038
0.030
0.063
-0.012
-0.003
0.048
0.085
0.053
-0.026
0.014
0.061
-0.070
0.079
0.060
0.053
-0.037
0.042
0.004
0.023
0.076
0.036
0.009
0.059
-0.013
0.009
0.013
0.006
-0.029
-0.007
0.050
0.093
0.007
0.015
0.029
0.051
0.033
0.077
-0.036
0.008
-0.018
0.017
0.025
0.074
0.035
0.061
0.006
0.009
-0.024
-0.016
0.041
-0.063
0.040
0.032
0.063
0.082
-0.068
-0.011
0.118
-0.027
-0.005
0.051
-0.088
0.050
0.009
-0.055
0.005
-0.082
0.008
-0.006
0.067
0.008
-0.058
0.045
0.024
0.154
0.033
0.019
0.007
-0.071
0.091
0.006
-0.021
0.022
0.054
-0.055
0.023
-0.056
-0.039
0.023
-0.027
-0.012
-0.006
0.113
0.045
-0.008
0.039
-0.017
0.022
0.062
0.037
-0.011
-0.041
0.019
0.040
0.015
-0.029
0.039
-0.059
-0.038
0.067
-0.035
-0.071
0.046
0.112
0.051
-0.090
-0.069
-0.018
0.055
-0.067
0.020
0.077
0.027
0.021
-0.014
-0.050
-0.027
0.035
-0.007
-0.018
0.016
0.109
0.040
0.096
0.071
0.008
0.008
-0.010
-0.032
0.027
0.016
-0.014
0.118
0.087
0.054
-0.114
0.004
-0.004
0.007
-0.074
0.031
-0.054
0.034
0.002
-0.031
0.004
-0.023
0.134
0.123
-0.032
-0.056
0.017
0.003
-0.001
0.041
0.020
0.023
-0.015
0.052
-0.023
0.091
-0.016
-0.095
0.102
0.050
0.049
0.056
-0.020
0.015
-0.014
-0.037
0.091
-0.127
0.048
0.021
-0.006
0.048
0.060
-0.033
-0.080
-0.007
0.069
0.073
0.010
0.057
-0.022
-0.058
0.129
-0.017
-0.018
0.007
0.096
-0.026
-0.003
0.014
0.021
-0.037
0.002
-0.065
0.014
0.058
-0.015
0.013
0.024
0.086
-0.097
0.030
0.119
0.044
-0.020
-0.046
0.019
0.001
0.096
0.049
-0.006
-0.051
0.068
0.080
-0.012
-0.051
0.054
0.068
-0.062
-0.002
-0.076
0.021
0.074
0.035
0.027
0.060
-0.031
-0.007
-0.006
-0.092
0.132
0.044
0.034
0.015
0.021
-0.048
-0.048
0.063
0.041
0.075
-0.008
-0.067
0.099
0.003
0.030
-0.026
-0.019
0.059
-0.131
0.107
0.053
0.018
0.013
0.044
-0.071
0.034
-0.011
-0.022
0.029
0.171
-0.013
-0.004
-0.050
0.045
-0.033
0.066
0.128
0.015
-0.028
0.053
-0.001
0.048
0.034
-0.059
0.119
-0.128
0.026
-0.009
0.004
0.015
0.003
0.072
-0.056
-0.039
0.061
0.026
0.079
0.005
0.044
0.015
0.037
0.019
0.028
-0.005
0.047
0.057
-0.006
-0.062
0.023
0.060
0.015
0.003
0.128
0.040
0.071
-0.021
0.027
0.038
-0.007
-0.024
0.081
-0.056
0.078
-0.058
-0.002
0.041
0.059
0.046
-0.037
0.046
0.032
-0.058
0.043
0.002
0.019
-0.004
0.077
-0.038
0.025
0.004
0.109
0.032
0.007
-0.012
-0.027
0.092
-0.026
-0.029
0.028
0.052
0.020
0.087
0.026
0.007
-0.057
0.000
0.017
-0.000
0.066
0.023
0.055
0.037
0.079
-0.034
0.102
-0.006
0.053
-0.046
0.044
-0.069
0.072
0.046
0.009
-0.009
0.031
-0.045
0.057
-0.007
0.044
0.033
0.067
0.012
-0.020
0.021
0.012
-0.024
0.018
0.084
0.042
-0.011
0.003
-0.033
-0.057
0.082
0.142
-0.108
-0.110
0.040
0.071
0.063
-0.077
0.073
0.043
-0.046
-0.021
0.038
-0.044
-0.020
0.031
0.124
-0.001
0.093
0.030
-0.016
-0.047
0.090
0.034
0.014
-0.056
0.027
0.032
0.065
-0.045
0.017
0.042
-0.001
0.129
-0.016
0.146
0.100
-0.066
-0.028
0.049
-0.065
-0.041
0.122
-0.023
0.073
0.014
-0.025
-0.001
-0.004
0.083
0.122
-0.087
-0.017
-0.041
0.134
-0.009
0.057
0.081
-0.033
0.066
-0.079
-0.010
0.054
-0.002
0.007
0.062
0.114
-0.069
-0.049
0.073
0.034
0.089
0.026
0.017
0.061
-0.118
0.075
0.071
-0.065
0.084
0.034
0.056
-0.037
0.056
-0.020
0.040
0.061
0.034
-0.009
-0.034
0.016
0.037
0.038
0.067
-0.019
-0.040
0.076
-0.009
0.015
0.076
0.000
0.061
-0.022
-0.035
0.006
0.037
0.046
0.039
-0.003
0.037
0.078
-0.003
-0.040
-0.031
0.034
0.002
0.025
0.119
-0.020
0.022
0.050
0.039
0.011
-0.015
0.041
-0.050
0.009
-0.026
0.032
0.077
0.025
0.047
-0.004
-0.014
0.009
-0.086
0.023
0.063
0.020
0.095
-0.011
0.009
-0.088
-0.010
0.004
0.008
-0.034
0.044
0.050
0.002
0.068
0.012
0.035
0.039
-0.001
0.058
-0.015
0.023
0.098
0.061
0.042
0.067
0.041
-0.075
-0.037
0.067
0.031
-0.027
0.094
0.016
-0.005
-0.095
0.023
-0.048
0.166
0.072
-0.008
0.008
0.041
-0.121
0.037
0.033
-0.012
0.054
0.033
-0.019
0.093
-0.021
-0.009
0.147
0.006
-0.023
0.120
0.001
-0.030
0.000
0.065
0.034
0.003
-0.052
0.069
0.072
-0.033
0.042
-0.004
-0.024
0.007
0.005
0.125
-0.072
-0.010
0.080
0.026
-0.064
-0.005
0.017
0.081
0.037
0.045
-0.038
-0.109
0.080
0.102
0.014
-0.007
-0.010
0.018
-0.020
0.047
0.102
0.071
0.061
0.011
0.008
-0.018
-0.007
0.038
0.062
-0.037
-0.011
0.002
0.037
0.048
0.030
0.014
-0.041
0.035
0.071
-0.082
0.043
0.032
0.024
-0.015
-0.023
0.041
-0.002
-0.044
0.080
0.012
0.034
-0.032
0.067
-0.026
-0.006
-0.042
0.120
0.053
0.046
0.000
0.088
-0.058
0.093
0.080
-0.024
0.030
-0.060
-0.028
0.044
0.028
0.028
-0.024
0.097
-0.054
0.102
-0.046
-0.020
0.095
0.066
0.023
0.019
0.029
0.069
0.026
0.043
-0.006
0.065
0.101
-0.076
0.022
0.028
0.069
0.083
-0.031
-0.065
0.148
-0.019
0.006
-0.108
0.086
0.117
-0.011
0.074
-0.023
0.080
0.017
-0.021
0.022
-0.028
0.015
0.014
0.005
0.022
-0.049
0.004
-0.005
0.018
-0.003
0.028
0.127
0.071
0.000
0.058
0.059
-0.009
0.006
0.028
0.027
0.043
0.024
0.086
0.018
0.009
-0.026
0.062
-0.036
0.040
0.023
-0.064
0.064
0.091
-0.042
0.018
0.109
-0.029
-0.024
-0.028
0.029
0.038
0.097
-0.051
-0.015
0.038
-0.017
0.071
-0.005
0.046
0.042
0.035
0.046
-0.013
0.007
0.041
0.034
-0.032
-0.003
0.014
0.093
-0.000
-0.035
-0.059
0.086
0.077
-0.015
-0.051
0.032
0.080
0.034
0.085
0.007
0.043
0.086
-0.007
0.042
0.012
0.045
0.021
0.014
-0.003
0.048
0.043
0.085
0.059
-0.054
-0.062
0.001
0.058
0.016
0.007
0.048
0.073
0.069
-0.010
0.016
-0.049
-0.033
0.035
0.043
0.101
0.058
-0.041
-0.019
-0.013
0.045
0.085
-0.008
0.099
-0.010
0.005
-0.062
0.060
0.024
0.034
0.009
0.046
-0.017
0.059
0.068
-0.012
-0.101
0.067
0.051
0.010
-0.015
0.103
0.064
-0.039
-0.001
0.034
0.062
0.069
0.020
-0.021
-0.023
0.006
-0.020
0.033
0.054
0.133
-0.002
-0.147
0.012
0.089
-0.080
-0.016
0.060
-0.048
0.010
0.024
0.068
-0.028
-0.026
0.017
0.066
0.078
0.060
-0.072
0.112
-0.024
-0.048
0.094
-0.030
0.024
0.094
-0.105
-0.006
0.079
-0.049
0.051
-0.037
-0.016
0.043
0.100
0.084
-0.043
0.062
0.009
0.105
-0.014
-0.064
0.027
-0.000
-0.006
0.012
-0.026
0.088
0.029
0.043
0.027
-0.051
-0.055
0.043
0.065
0.056
-0.035
-0.049
-0.071
0.044
0.162
0.041
0.006
0.042
0.107
0.057
-0.013
-0.045
0.040
0.012
0.016
-0.017
-0.047
0.046
0.158
-0.086
-0.011
0.034
-0.009
0.082
0.021
-0.017
-0.005
-0.042
0.103
0.026
0.007
-0.083
0.059
-0.012
0.020
-0.058
0.042
0.070
-0.047
0.043
-0.000
0.075
-0.015
-0.041
0.039
0.072
0.014
-0.045
0.006
-0.036
0.041
-0.002
-0.038
0.012
0.074
0.032
-0.012
0.018
0.040
0.099
0.044
0.010
-0.058
-0.024
-0.042
0.057
0.034
0.049
-0.050
0.037
0.058
0.011
-0.007
0.042
0.037
-0.024
0.007
0.000
0.013
0.013
-0.080
0.005
0.048
-0.001
0.046
-0.028
0.002
0.102
-0.032
-0.018
0.079
0.038
0.047
0.040
-0.008
0.059
-0.118
0.021
0.071
0.028
0.065
-0.021
0.073
0.087
0.020
-0.016
-0.011
-0.009
-0.089
-0.054
0.052
0.038
0.054
-0.014
0.018
-0.044
-0.062
0.028
0.035
0.045
0.000
0.088
0.130
-0.038
0.082
0.013
-0.026
-0.089
0.042
0.050
0.055
0.032
0.090
0.014
-0.050
0.120
-0.087
-0.001
0.014
-0.053
0.005
0.086
0.050
0.003
0.028
-0.019
-0.018
0.101
-0.003
0.043
0.002
-0.039
0.023
0.037
-0.028
0.083
0.085
-0.069
0.012
0.028
-0.002
-0.003
-0.031
0.075
-0.009
-0.013
0.067
0.027
-0.036
-0.011
-0.062
0.060
-0.051
0.109
0.048
-0.022
-0.058
0.050
0.018
0.066
0.077
0.015
-0.080
0.026
0.040
0.070
-0.035
0.048
-0.066
0.028
0.021
0.061
0.034
0.048
0.148
-0.025
0.009
-0.022
0.088
0.011
0.063
-0.085
-0.007
0.064
0.047
0.026
-0.033
0.089
0.023
-0.015
0.004
0.055
0.038
-0.010
0.056
-0.053
-0.020
-0.061
0.078
-0.042
0.149
0.150
-0.041
-0.026
0.022
-0.076
0.046
0.068
-0.036
-0.041
-0.000
0.062
-0.002
-0.028
0.004
0.031
-0.017
0.046
0.004
0.073
0.039
0.023
-0.065
0.065
-0.050
0.097
0.047
0.082
0.062
-0.109
0.028
0.047
0.015
0.044
0.111
-0.039
-0.063
-0.049
0.002
0.113
0.064
-0.012
-0.109
0.111
0.139
0.033
-0.123
-0.057
0.087
0.034
0.059
0.102
0.080
-0.058
-0.093
0.105
0.039
-0.006
-0.035
0.028
0.106
-0.037
-0.027
0.033
0.020
0.007
-0.005
0.005
0.045
0.086
-0.000
0.125
0.008
0.001
0.033
0.014
-0.021
0.080
0.117
-0.071
0.035
0.050
-0.075
0.009
0.060
0.036
0.044
0.077
0.028
0.095
0.084
-0.057
-0.028
-0.090
0.040
-0.005
0.066
0.051
0.067
-0.014
0.074
-0.107
0.048
0.114
0.002
0.002
-0.004
0.040
0.017
0.019
0.063
0.030
-0.011
0.068
-0.009
0.053
0.155
-0.001
0.059
-0.010
-0.042
-0.110
0.027
0.043
0.103
0.037
-0.018
-0.036
-0.012
-0.091
-0.010
0.104
0.038
0.003
-0.043
0.031
0.009
-0.084
0.083
0.038
0.052
0.004
0.012
-0.024
0.037
0.042
0.044
-0.029
0.028
-0.001
0.070
0.067
-0.076
0.005
-0.030
-0.007
0.072
0.015
-0.028
0.078
0.097
0.045
-0.018
0.028
0.043
-0.040
-0.049
0.084
0.154
-0.012
-0.112
0.047
-0.001
-0.013
0.040
0.059
-0.051
0.014
0.017
0.059
0.069
0.024
-0.072
0.007
0.083
-0.023
0.083
0.018
0.066
0.112
-0.062
0.091
-0.058
0.031
0.078
0.075
-0.008
0.107
-0.039
0.024
0.000
0.043
-0.015
-0.023
0.058
0.007
0.008
0.065
-0.045
-0.039
0.051
-0.003
0.052
-0.037
0.077
0.021
-0.035
0.048
-0.037
0.045
0.054
0.042
-0.005
0.056
-0.034
0.026
0.006
0.071
0.074
0.073
-0.008
-0.041
0.093
0.024
0.078
-0.114
-0.006
-0.015
0.007
-0.056
0.062
0.056
0.092
0.010
0.041
0.014
-0.033
0.004
0.065
0.000
0.045
0.024
-0.083
0.089
-0.072
0.070
0.063
-0.025
0.026
-0.074
0.042
0.027
-0.072
0.029
0.023
0.062
0.058
0.001
-0.005
0.008
-0.012
-0.002
-0.106
0.027
-0.010
-0.001
0.025
0.102
0.020
0.044
0.064
-0.019
-0.053
0.102
0.040
-0.054
0.031
0.094
0.067
-0.016
-0.019
-0.015
0.003
0.008
0.154
0.002
0.013
-0.067
-0.008
-0.018
0.032
0.073
0.060
0.083
0.036
-0.053
0.052
-0.014
-0.055
-0.020
0.063
0.015
-0.021
0.029
0.048
0.027
0.004
-0.048
-0.043
0.007
-0.038
0.062
0.019
0.061
0.031
0.084
0.062
-0.033
-0.017
0.107
0.071
0.002
0.005
0.006
0.058
0.041
-0.015
-0.056
0.042
0.070
-0.034
0.013
-0.055
0.091
-0.039
-0.047
0.041
0.037
-0.008
0.017
0.024
0.031
0.016
-0.062
-0.014
0.062
0.083
-0.024
-0.011
0.029
0.092
0.087
0.070
-0.060
-0.044
0.030
0.036
0.027
-0.018
0.048
0.042
-0.039
-0.011
-0.025
-0.005
0.035
0.105
-0.011
-0.078
-0.038
-0.006
0.044
0.020
0.031
0.046
-0.002
0.001
-0.076
-0.011
-0.009
0.064
0.030
0.000
0.091
0.013
-0.005
0.060
-0.075
-0.028
0.016
0.013
0.034
0.023
0.057
0.096
0.037
-0.041
-0.083
0.023
0.032
0.106
0.023
0.050
-0.045
-0.051
0.033
-0.034
0.076
-0.006
-0.006
0.047
-0.033
0.034
0.064
-0.039
-0.015
0.023
-0.045
0.001
0.009
-0.008
0.043
0.104
0.062
-0.047
0.021
0.033
0.036
-0.038
0.000
-0.019
0.066
0.053
-0.027
0.097
0.034
0.050
0.014
-0.015
0.059
0.027
0.136
0.006
-0.047
-0.026
0.054
0.007
0.007
-0.029
0.047
0.076
0.035
-0.052
0.002
0.067
0.031
0.042
0.017
0.026
0.009
0.022
0.048
0.047
-0.059
0.000
0.088
0.066
-0.015
-0.021
0.008
0.005
0.028
0.038
0.035
-0.037
0.019
0.007
-0.025
-0.016
0.062
0.037
0.065
0.018
0.029
-0.031
-0.000
0.044
0.004
0.035
0.011
0.019
-0.030
-0.006
0.059
0.005
0.035
0.065
-0.004
0.065
0.032
0.010
-0.047
0.092
-0.013
-0.057
-0.006
0.073
0.037
-0.039
0.013
0.114
-0.025
-0.115
0.004
-0.049
0.080
0.086
0.042
0.043
0.057
0.029
-0.025
-0.081
-0.029
0.006
0.078
-0.039
-0.013
0.031
0.032
0.042
-0.007
0.126
-0.029
0.009
-0.026
-0.075
0.029
0.005
0.040
0.122
0.034
0.018
0.096
-0.051
0.002
-0.020
0.044
0.040
0.022
0.029
-0.002
-0.057
0.096
0.056
0.047
0.009
0.015
-0.053
0.028
0.150
0.002
0.015
0.020
0.027
-0.025
0.038
-0.027
-0.001
-0.040
0.005
-0.001
0.034
-0.018
0.149
-0.092
-0.016
-0.024
-0.062
0.028
0.092
0.073
-0.021
-0.030
0.092
0.068
0.052
-0.032
-0.042
-0.003
0.115
0.057
-0.019
-0.035
0.092
0.065
-0.123
0.101
-0.012
0.049
-0.056
0.095
-0.048
0.001
0.001
0.026
-0.053
0.042
0.065
-0.017
-0.056
0.030
0.030
0.026
0.090
0.023
0.019
0.045
-0.059
-0.001
0.038
0.154
-0.007
0.017
0.015
0.047
0.051
-0.023
-0.042
-0.007
0.071
-0.066
-0.052
0.148
0.039
0.015
0.025
-0.010
0.006
-0.006
0.058
0.044
-0.053
-0.021
0.063
-0.005
-0.005
0.027
0.143
-0.010
0.048
-0.105
0.081
0.148
0.083
0.005
-0.006
-0.001
0.027
0.053
-0.014
0.014
0.094
0.049
0.003
-0.024
-0.030
0.010
-0.019
0.099
-0.017
0.044
0.018
0.044
-0.025
0.088
0.044
0.068
-0.067
0.036
0.079
0.012
0.056
-0.045
-0.051
0.011
-0.003
-0.021
0.079
0.033
0.007
0.041
0.035
0.039
-0.067
-0.025
0.036
0.087
0.069
-0.033
-0.044
0.067
0.091
-0.031
0.061
-0.035
0.104
0.028
0.017
-0.020
0.038
0.042
0.008
0.012
-0.008
0.062
-0.028
-0.006
0.054
-0.028
-0.052
-0.055
0.044
0.044
0.069
-0.035
0.017
0.050
0.091
-0.041
-0.046
0.062
0.048
-0.049
0.129
0.001
0.075
0.021
-0.005
0.049
0.035
0.053
0.050
-0.095
0.000
0.047
0.094
0.088
0.006
0.044
0.065
0.030
-0.031
-0.001
0.044
0.107
0.045
-0.017
0.020
0.013
-0.074
0.016
0.074
0.071
0.056
0.014
0.001
-0.002
0.112
-0.051
0.008
-0.055
0.084
0.082
0.012
-0.052
-0.020
0.067
0.160
0.043
-0.061
0.046
0.041
-0.059
-0.036
-0.019
0.000
0.035
0.092
0.036
0.030
-0.004
-0.009
-0.048
-0.011
0.076
-0.017
0.096
-0.055
0.070
-0.021
-0.021
0.034
0.062
0.035
0.047
-0.024
0.038
0.028
-0.067
-0.010
0.068
0.027
0.043
-0.013
-0.006
0.087
-0.014
0.002
0.008
0.014
0.058
0.061
-0.010
-0.000
-0.010
0.023
-0.030
-0.052
-0.031
-0.005
0.009
0.033
0.011
0.099
0.069
-0.071
-0.023
-0.069
0.064
-0.068
0.136
0.050
-0.042
0.133
0.002
-0.060
-0.030
0.098
0.096
0.024
-0.071
0.038
0.015
0.056
-0.002
-0.021
-0.001
0.051
0.006
0.027
0.014
0.043
-0.035
-0.033
-0.071
0.014
0.111
0.039
0.025
0.058
0.066
-0.034
-0.051
-0.024
-0.030
0.064
0.064
0.077
0.035
0.013
-0.049
0.023
0.029
0.054
0.000
0.050
-0.024
0.044
0.100
0.013
-0.035
-0.031
0.045
-0.030
-0.011
0.023
0.147
-0.062
-0.032
0.030
-0.009
-0.056
0.018
0.028
-0.051
0.031
-0.010
0.025
0.015
0.100
-0.003
-0.003
-0.038
-0.045
0.052
-0.018
0.044
0.023
-0.028
0.075
-0.009
-0.097
0.061
0.049
-0.042
0.074
0.011
0.001
0.034
0.012
0.027
-0.005
0.012
0.044
-0.054
0.003
0.049
0.025
0.029
-0.117
0.046
0.139
-0.032
0.036
0.081
0.042
-0.031
0.023
0.045
0.028
0.054
-0.020
0.081
0.015
0.006
-0.037
0.046
0.050
0.007
-0.046
0.048
0.044
-0.063
0.046
-0.001
0.020
0.121
-0.016
-0.073
0.032
0.007
0.076
0.038
0.025
0.078
0.078
-0.050
0.036
-0.005
0.012
0.046
0.048
0.059
0.083
-0.038
-0.019
0.026
0.062
0.009
0.045
0.077
0.013
-0.060
-0.056
0.054
0.047
-0.062
-0.007
0.106
-0.035
-0.081
0.029
-0.003
0.043
-0.044
0.058
0.100
0.038
0.011
0.004
-0.004
0.103
0.075
-0.079
-0.002
-0.019
0.061
0.003
-0.030
0.103
0.007
0.051
0.048
-0.026
0.013
0.018
0.050
-0.059
0.018
0.019
0.101
0.008
0.051
-0.078
-0.090
0.037
0.021
0.103
-0.040
-0.039
0.066
-0.076
0.007
0.040
0.007
-0.076
-0.018
0.006
0.033
0.038
0.086
0.017
-0.086
-0.022
-0.004
0.090
-0.008
-0.059
0.046
0.081
0.023
-0.029
-0.027
-0.022
0.046
-0.026
-0.011
0.091
0.024
0.101
0.022
-0.021
0.012
0.041
0.045
0.131
0.017
-0.028
-0.060
0.012
0.096
0.106
-0.031
0.021
-0.014
-0.076
0.059
-0.031
-0.010
0.017
0.009
-0.011
0.056
0.105
-0.017
-0.011
0.007
-0.093
0.015
-0.039
0.151
0.034
-0.010
-0.044
0.061
-0.009
0.048
0.081
0.005
-0.018
-0.012
0.029
0.049
0.040
-0.067
-0.023
-0.098
0.126
0.031
0.103
-0.001
0.041
0.033
-0.028
-0.009
0.017
0.093
0.095
-0.042
0.121
-0.013
0.011
-0.009
-0.032
0.032
0.103
-0.003
-0.031
0.068
-0.014
0.026
0.050
-0.010
-0.018
-0.093
0.038
0.133
-0.012
-0.079
0.068
-0.000
0.084
0.084
-0.093
-0.036
-0.033
-0.120
0.192
0.028
0.101
-0.007
-0.005
0.121
0.016
0.032
0.015
-0.002
-0.022
0.022
0.080
0.052
-0.064
-0.008
0.071
0.092
0.069
0.113
-0.077
-0.049
0.036
0.012
0.011
0.000
0.037
-0.009
0.109
-0.009
0.005
0.024
-0.003
0.013
0.004
0.078
0.074
0.005
0.055
0.005
0.081
-0.033
0.048
-0.045
0.033
0.045
0.014
0.069
0.010
0.039
-0.091
-0.049
0.051
0.196
0.006
-0.002
0.041
-0.008
0.084
-0.010
0.111
0.104
0.112
-0.024
0.055
-0.040
0.043
-0.021
0.006
-0.015
0.127
0.095
-0.002
0.024
0.058
-0.039
0.028
0.003
0.044
0.052
0.041
-0.022
0.060
-0.000
0.038
0.038
0.067
0.006
-0.043
-0.033
0.141
0.009
0.035
-0.008
0.031
0.036
0.103
0.139
0.053
-0.026
-0.004
0.060
0.012
0.021
-0.052
0.011
0.082
0.072
0.038
-0.009
0.021
-0.065
-0.008
0.007
0.013
0.066
0.024
0.067
0.046
-0.058
-0.001
-0.022
0.008
0.062
0.012
0.043
0.000
0.147
-0.076
-0.051
0.089
0.068
0.010
-0.057
0.045
0.013
0.031
-0.009
0.066
-0.029
0.147
0.004
-0.027
-0.005
0.080
0.057
0.000
-0.103
-0.045
0.047
0.118
-0.003
0.039
0.074
-0.105
0.106
-0.012
0.050
0.002
-0.009
0.028
0.009
-0.035
-0.063
0.077
0.027
0.003
-0.045
0.039
-0.004
0.025
-0.026
-0.065
-0.000
0.101
0.018
0.048
0.011
0.090
0.035
-0.038
0.002
-0.026
-0.007
0.076
0.044
0.067
0.002
-0.037
0.042
-0.003
0.143
0.025
0.036
0.072
-0.037
0.028
0.028
-0.065
-0.015
0.009
0.084
-0.079
0.043
0.059
0.072
0.051
-0.054
0.031
0.031
0.042
0.009
-0.007
0.045
0.028
-0.044
0.081
0.024
-0.031
0.003
0.006
-0.016
0.093
0.019
0.007
-0.038
0.065
-0.016
0.031
0.052
-0.050
0.049
0.145
-0.068
0.050
0.143
-0.072
0.080
-0.033
-0.008
0.079
0.003
0.014
-0.052
0.022
0.056
-0.032
-0.038
0.013
-0.055
0.093
0.001
0.067
0.072
-0.081
0.009
0.069
-0.031
-0.061
-0.012
0.124
0.001
0.027
0.037
-0.062
0.082
0.021
-0.002
0.006
-0.055
0.042
0.015
0.020
0.073
-0.023
-0.065
0.050
-0.090
0.020
0.091
0.102
-0.016
0.081
-0.048
0.012
0.006
-0.001
-0.056
0.077
-0.061
0.004
0.066
0.030
-0.040
-0.063
0.033
0.026
-0.006
0.016
0.049
-0.104
0.041
-0.015
0.062
-0.003
-0.056
0.025
-0.046
0.024
-0.016
-0.012
0.097
-0.057
0.021
0.049
0.006
0.137
0.024
-0.049
-0.029
0.074
0.008
0.010
-0.043
0.038
0.140
0.007
0.009
0.038
0.110
-0.024
0.030
-0.015
-0.023
0.110
-0.026
0.023
0.025
-0.036
0.018
-0.037
0.026
0.027
-0.020
0.112
-0.001
0.050
-0.020
0.065
0.042
0.084
-0.013
-0.007
-0.060
0.085
0.082
-0.021
-0.049
-0.048
0.030
-0.030
0.069
0.039
0.087
0.071
-0.055
-0.014
0.095
0.041
0.001
0.030
0.002
0.081
0.078
0.083
0.047
0.029
0.011
-0.020
0.017
-0.039
0.072
0.035
0.050
-0.056
0.020
-0.023
0.046
-0.107
0.032
0.052
0.054
0.014
-0.084
0.012
0.028
0.091
-0.001
0.008
0.039
0.046
0.028
0.052
-0.062
-0.045
0.054
0.074
0.054
-0.017
-0.085
0.134
0.007
-0.003
0.083
-0.119
0.061
-0.081
0.006
0.068
0.021
0.024
-0.044
-0.031
0.064
0.000
0.014
0.061
-0.062
0.099
-0.004
-0.001
0.048
0.067
0.057
0.006
-0.106
0.038
0.124
0.011
0.008
-0.102
0.058
0.111
0.069
-0.037
-0.030
0.026
-0.027
-0.026
0.028
-0.010
-0.036
0.097
0.002
0.014
-0.055
0.029
0.099
0.014
0.002
-0.001
-0.015
0.017
-0.012
0.079
0.059
0.059
0.062
0.006
-0.027
0.011
0.032
0.049
0.039
-0.014
0.030
0.026
-0.070
-0.034
0.041
0.014
0.128
0.029
0.074
-0.024
0.023
0.054
-0.003
0.010
-0.040
0.095
0.004
0.045
0.085
0.054
0.048
-0.158
-0.020
0.152
-0.033
-0.024
-0.031
-0.024
0.002
-0.002
0.092
0.002
0.008
0.064
-0.060
0.073
0.084
-0.041
-0.011
0.041
-0.025
0.029
0.102
0.034
-0.033
0.067
0.021
0.016
-0.029
0.046
-0.046
0.018
0.044
0.054
-0.078
0.088
0.069
0.004
-0.018
0.175
0.074
-0.013
0.008
0.073
0.118
0.091
-0.055
0.038
0.109
-0.122
0.091
0.040
0.011
-0.033
-0.134
0.045
0.029
0.062
0.090
-0.085
0.097
0.063
0.123
-0.035
0.039
0.061
-0.024
-0.040
0.032
-0.003
-0.007
0.019
0.130
-0.098
-0.027
0.085
0.119
0.078
0.004
-0.008
-0.046
0.160
0.065
-0.084
0.053
0.011
0.094
0.054
-0.102
0.082
-0.055
0.000
0.054
-0.026
0.065
-0.045
0.065
-0.019
0.037
0.114
-0.025
0.045
0.008
0.090
0.074
-0.088
0.089
0.013
-0.012
-0.057
0.024
0.103
0.034
0.036
0.038
0.084
0.002
0.074
0.054
-0.070
-0.052
0.054
0.032
-0.054
0.023
-0.003
-0.053
0.078
0.026
0.015
0.004
-0.022
0.001
0.003
0.054
-0.011
-0.053
0.049
-0.025
0.062
0.020
0.030
0.115
-0.004
-0.110
-0.023
0.107
0.010
0.125
0.044
0.008
-0.006
0.045
0.063
-0.053
-0.033
0.138
0.057
0.026
-0.038
-0.027
0.061
0.002
-0.031
0.073
0.064
-0.020
0.028
0.065
0.048
-0.004
-0.035
-0.017
0.110
0.056
0.059
-0.037
-0.011
0.049
0.032
-0.050
-0.051
0.125
0.031
0.086
0.004
-0.049
-0.042
0.038
0.061
-0.056
0.072
0.027
0.132
0.008
-0.004
0.044
-0.043
-0.042
0.112
0.121
0.029
-0.037
0.014
0.031
0.016
-0.044
0.028
-0.012
0.100
-0.007
-0.005
0.029
-0.034
-0.050
0.049
0.053
-0.025
-0.041
-0.109
0.098
0.029
-0.013
0.058
0.069
0.041
-0.126
0.116
0.037
0.077
-0.018
-0.004
0.048
-0.003
-0.016
0.094
0.041
-0.013
-0.018
0.044
0.043
0.065
0.029
-0.029
0.069
-0.010
0.052
-0.068
0.032
0.016
0.076
0.065
-0.008
-0.026
0.022
0.026
0.048
0.030
-0.103
-0.003
-0.055
0.067
0.032
-0.004
0.045
0.012
-0.048
0.037
0.033
0.100
-0.069
-0.082
0.046
-0.034
0.063
0.070
-0.104
0.054
0.068
0.049
0.032
-0.028
0.024
0.087
0.012
0.041
0.016
-0.043
0.024
0.061
0.086
-0.042
0.085
0.013
0.024
-0.121
0.049
0.013
0.045
0.006
0.064
0.068
0.022
-0.097
-0.019
0.033
0.110
-0.043
-0.013
0.037
0.043
0.008
-0.065
0.008
0.031
0.104
-0.012
0.021
-0.052
-0.057
0.056
0.042
0.003
0.063
0.025
0.012
-0.004
0.121
-0.056
0.075
-0.009
0.022
-0.003
0.100
0.034
0.009
-0.007
-0.066
0.034
0.012
0.015
-0.001
0.026
0.093
-0.024
0.022
-0.052
-0.056
0.044
0.041
0.048
0.007
0.056
0.023
0.004
0.051
-0.006
-0.055
0.050
-0.047
-0.050
0.035
0.014
0.066
-0.022
0.039
-0.002
0.046
-0.002
0.009
0.072
0.028
0.056
-0.011
0.008
0.060
0.065
0.050
0.036
0.056
0.019
-0.038
-0.007
0.071
-0.006
0.072
0.001
-0.054
-0.011
0.112
0.058
-0.015
-0.036
0.019
0.052
-0.030
0.027
0.069
-0.036
0.037
0.045
0.010
-0.001
0.029
-0.060
0.071
0.076
-0.020
0.016
0.064
-0.047
0.095
-0.033
0.046
0.112
0.019
-0.044
-0.028
0.057
-0.047
0.020
0.017
0.057
0.037
-0.022
0.002
-0.014
0.043
0.070
-0.039
0.103
0.012
-0.025
0.060
0.056
-0.009
0.049
-0.102
0.005
-0.031
0.160
0.001
0.114
-0.024
-0.012
0.054
0.081
0.022
-0.032
0.032
-0.004
-0.020
0.108
-0.005
0.027
0.062
0.066
-0.081
0.081
-0.041
0.100
-0.016
-0.036
0.011
-0.014
-0.025
0.101
0.078
0.063
-0.108
-0.055
-0.038
0.046
0.063
0.006
-0.012
-0.059
-0.002
0.015
0.135
0.099
-0.038
0.022
-0.015
0.075
0.008
0.036
0.048
0.006
0.051
0.011
-0.017
0.006
0.051
0.100
0.018
0.069
-0.091
0.065
0.031
-0.056
-0.027
0.155
-0.034
-0.007
0.019
0.064
0.057
0.070
0.019
-0.042
-0.077
0.033
0.063
0.084
0.002
0.020
-0.024
0.048
0.006
0.021
0.040
-0.008
-0.058
-0.040
0.098
0.108
0.075
0.001
-0.017
-0.048
-0.019
-0.044
0.087
0.062
0.081
-0.062
0.111
0.057
0.035
-0.086
-0.020
0.094
0.041
0.032
0.025
0.036
0.054
-0.020
0.056
0.004
-0.051
-0.082
0.051
0.033
0.119
-0.026
-0.001
-0.050
0.116
-0.063
0.006
0.056
0.034
0.051
-0.015
0.016
-0.010
0.042
-0.010
0.065
-0.009
-0.054
0.039
0.059
-0.072
0.030
0.064
0.047
-0.010
-0.021
0.030
0.011
-0.002
0.059
0.062
0.008
-0.058
0.033
0.127
-0.007
0.028
-0.021
-0.049
-0.024
0.063
0.039
0.126
-0.048
0.064
-0.005
-0.037
0.046
0.011
-0.016
0.083
0.056
0.038
-0.096
-0.033
0.104
0.042
0.041
0.034
-0.117
0.088
-0.001
0.064
0.065
-0.009
0.026
0.003
-0.055
0.098
0.129
0.094
-0.034
-0.118
-0.090
-0.004
0.102
0.020
-0.097
0.123
0.004
0.089
0.158
-0.004
-0.088
-0.062
0.036
0.139
-0.012
-0.017
0.089
0.059
0.037
-0.026
0.032
0.042
-0.084
0.121
0.046
0.053
-0.041
-0.004
-0.018
0.052
0.079
-0.032
-0.096
0.023
0.007
0.123
0.017
-0.011
0.118
-0.061
-0.010
-0.039
0.040
0.062
0.112
0.112
-0.077
-0.079
0.153
-0.028
0.042
0.001
-0.000
0.078
-0.022
-0.036
0.096
0.058
-0.065
0.076
0.045
0.005
0.025
0.054
0.043
0.011
0.024
-0.088
-0.036
0.106
0.085
-0.008
0.028
0.038
0.038
-0.073
0.021
0.068
-0.043
0.061
-0.078
0.126
0.016
-0.032
0.036
-0.053
-0.087
0.046
0.073
0.083
0.079
-0.057
0.033
0.080
0.029
0.009
0.043
-0.030
0.106
0.006
0.021
0.031
0.117
0.001
-0.054
-0.044
-0.002
0.029
0.016
0.058
0.008
-0.021
-0.032
0.050
0.126
0.043
-0.004
-0.107
-0.019
0.101
-0.021
0.033
0.017
-0.006
0.069
-0.060
0.127
-0.090
-0.049
-0.004
0.124
0.081
-0.025
-0.110
-0.058
0.076
0.022
0.050
0.059
-0.021
-0.023
0.146
0.048
-0.067
-0.019
0.024
0.007
-0.028
0.008
0.036
-0.005
0.024
0.019
0.095
-0.001
-0.005
-0.005
-0.025
-0.064
0.029
0.048
0.015
-0.070
-0.023
0.126
0.015
0.017
0.015
-0.047
0.092
0.082
0.088
0.013
-0.020
-0.005
-0.040
0.036
-0.009
0.041
-0.004
-0.035
0.014
0.066
0.025
0.029
0.032
-0.036
0.086
0.002
-0.010
0.020
0.006
0.056
0.082
-0.110
0.019
0.159
0.034
-0.074
-0.040
0.057
-0.023
-0.006
-0.024
0.033
0.009
0.022
0.034
0.001
-0.005
0.125
-0.065
0.004
-0.003
0.089
0.034
-0.004
0.045
-0.035
0.176
-0.025
-0.015
0.001
0.049
0.060
0.006
-0.017
-0.059
0.117
-0.034
0.022
-0.119
-0.003
0.023
0.032
0.002
0.034
0.046
-0.043
-0.095
0.138
0.090
0.015
0.012
-0.090
-0.058
0.017
0.049
0.117
-0.071
-0.058
0.061
0.102
0.036
-0.046
0.134
-0.032
0.016
0.016
-0.032
0.075
0.045
0.004
0.020
-0.015
0.029
-0.013
0.017
0.019
-0.059
0.099
0.008
-0.009
-0.029
0.016
-0.085
0.043
0.034
0.017
0.006
0.040
-0.012
0.004
0.055
-0.007
-0.030
0.106
-0.103
-0.018
0.030
0.051
0.087
0.080
-0.008
0.040
0.047
0.007
0.136
0.047
-0.075
0.027
0.002
0.031
0.043
0.028
0.007
-0.007
-0.022
0.007
0.097
0.133
-0.082
-0.103
-0.020
-0.015
0.032
0.047
0.065
0.013
-0.027
0.056
0.110
0.018
-0.024
0.039
0.074
0.083
0.027
0.029
-0.053
0.062
-0.021
-0.028
0.133
0.125
-0.029
-0.004
0.008
-0.030
-0.013
0.064
-0.032
0.082
0.043
-0.048
0.066
-0.019
-0.017
0.091
-0.029
0.012
-0.006
0.098
0.016
-0.017
0.096
0.078
0.062
-0.043
0.053
0.065
-0.005
-0.010
0.057
0.025
-0.001
-0.029
0.063
0.062
0.009
-0.048
-0.005
0.083
-0.004
-0.054
0.029
0.024
0.069
0.159
0.061
0.066
-0.025
-0.019
0.142
-0.056
-0.009
0.009
0.066
0.021
0.030
0.074
-0.022
-0.049
0.037
0.016
-0.053
0.093
0.020
0.029
0.037
0.019
-0.069
0.005
0.047
0.052
0.125
-0.021
0.017
-0.088
0.112
0.017
0.016
-0.052
0.053
0.025
0.063
0.035
-0.042
0.060
-0.054
0.054
0.073
0.038
-0.046
-0.046
-0.047
-0.009
0.143
-0.069
0.022
0.058
0.060
-0.030
0.055
-0.050
-0.016
0.081
0.066
0.061
-0.009
-0.033
-0.019
-0.071
-0.010
0.027
0.018
0.028
0.038
0.096
0.015
0.034
-0.042
-0.027
0.018
0.060
-0.048
0.014
0.027
0.008
0.070
-0.025
0.034
0.061
-0.022
-0.045
0.053
0.002
0.004
0.035
0.058
-0.059
-0.015
0.060
-0.024
-0.012
-0.048
-0.027
0.082
0.011
-0.056
0.057
0.107
0.016
0.011
0.063
-0.013
-0.059
0.066
0.015
0.120
0.016
0.003
0.024
-0.042
0.119
0.010
-0.041
0.001
-0.113
-0.026
-0.025
0.057
-0.038
0.005
-0.003
0.016
-0.004
0.050
0.003
0.056
0.121
0.024
-0.045
0.018
-0.016
0.036
0.026
0.111
-0.022
0.034
0.100
-0.016
-0.004
-0.077
0.094
-0.025
0.077
-0.007
0.086
-0.071
0.054
0.031
0.046
0.017
-0.021
0.048
-0.026
-0.052
-0.036
0.019
0.028
-0.008
-0.003
0.118
0.012
-0.005
0.020
-0.024
-0.049
0.052
0.014
0.034
0.049
0.017
-0.012
0.044
0.055
0.074
-0.083
0.036
-0.011
0.040
0.009
-0.108
0.053
0.029
0.037
-0.039
0.025
0.091
-0.023
-0.038
0.044
0.085
0.006
0.067
0.009
0.029
-0.016
0.080
0.081
0.040
0.073
0.093
-0.053
0.022
0.023
-0.014
0.011
-0.055
-0.016
0.028
-0.054
0.075
0.069
-0.023
-0.006
0.052
-0.102
-0.011
-0.009
0.013
0.061
-0.006
0.021
-0.002
0.038
-0.012
0.050
-0.094
0.144
0.027
0.004
0.004
-0.009
0.094
0.020
-0.048
0.015
0.047
-0.044
0.004
0.002
0.059
-0.072
0.009
-0.009
-0.057
0.088
0.110
0.038
-0.058
0.067
-0.076
-0.010
0.107
0.102
0.002
0.085
-0.042
-0.052
-0.061
0.044
0.015
0.011
0.004
-0.056
0.037
0.008
0.058
0.007
-0.022
0.030
-0.045
0.040
0.132
0.003
-0.011
-0.020
-0.017
0.103
0.050
-0.108
0.023
0.012
0.008
0.154
0.011
0.032
-0.039
0.064
0.044
-0.052
0.074
0.030
-0.034
-0.023
-0.027
0.013
0.107
-0.046
0.028
0.137
-0.031
-0.056
0.077
0.038
-0.025
0.002
-0.010
0.082
0.058
-0.007
0.140
-0.044
-0.066
0.075
-0.064
0.037
0.003
0.017
0.082
0.075
-0.005
0.022
-0.052
0.068
0.081
-0.008
0.147
-0.020
0.094
-0.015
-0.031
0.042
0.003
-0.065
0.042
0.030
0.039
0.041
0.022
-0.029
0.043
-0.056
0.014
-0.021
0.077
0.090
0.004
-0.025
0.019
-0.006
0.106
0.024
-0.044
0.013
-0.006
0.033
0.075
-0.011
0.002
0.015
0.078
0.059
-0.030
0.044
0.023
0.015
0.006
-0.049
0.015
-0.030
0.106
-0.012
0.033
0.006
-0.030
0.074
-0.038
-0.006
0.033
0.031
0.017
-0.049
-0.004
0.055
0.025
-0.019
-0.044
0.039
-0.007
0.113
0.079
0.047
-0.082
-0.018
0.079
-0.026
0.087
0.020
-0.035
-0.024
0.023
0.050
-0.026
0.044
0.043
-0.050
0.002
0.104
0.014
-0.000
-0.006
-0.026
0.011
-0.015
0.041
-0.004
0.034
0.045
0.001
-0.040
0.040
0.082
0.035
-0.004
0.008
-0.003
0.010
0.050
0.044
0.072
-0.037
0.013
0.004
-0.006
0.024
-0.012
-0.015
0.036
0.097
-0.041
-0.080
-0.002
-0.045
-0.018
-0.007
0.077
0.105
-0.004
0.016
0.006
0.046
0.044
-0.011
0.069
0.075
-0.044
-0.002
0.076
0.066
0.037
-0.041
0.028
0.033
-0.040
0.004
0.036
-0.002
0.113
-0.058
0.034
0.038
0.061
-0.025
0.097
0.092
0.002
-0.066
0.001
0.053
0.012
0.027
0.060
0.073
-0.007
0.033
-0.071
-0.052
0.078
-0.025
0.115
0.047
0.023
-0.066
0.076
0.086
0.088
-0.076
-0.060
-0.040
0.023
0.033
0.063
-0.002
0.063
0.035
0.029
-0.118
-0.004
0.141
-0.065
0.065
0.036
0.101
0.057
-0.054
0.026
-0.064
0.122
-0.025
0.061
0.022
0.010
0.065
-0.002
0.106
-0.025
-0.022
-0.068
-0.010
0.098
0.092
-0.027
-0.057
-0.058
0.053
0.041
-0.001
-0.036
0.047
0.030
-0.009
-0.043
0.018
0.099
0.057
0.024
-0.036
0.051
0.084
-0.008
-0.095
-0.033
0.123
0.068
-0.081
0.056
0.117
-0.027
-0.020
0.030
-0.025
-0.027
0.076
0.062
-0.110
-0.007
-0.028
0.093
0.103
-0.024
0.017
0.026
-0.034
-0.020
-0.057
0.143
0.038
-0.074
0.052
0.064
0.051
0.045
-0.045
-0.003
0.017
0.042
0.084
0.041
-0.006
0.030
0.030
-0.029
-0.007
0.005
0.126
-0.004
-0.047
0.037
-0.030
0.032
0.013
-0.016
0.100
-0.043
-0.062
0.048
-0.007
0.018
0.051
-0.054
0.090
0.059
0.041
-0.046
-0.096
0.112
0.119
-0.055
0.061
-0.003
0.036
-0.058
0.037
0.037
-0.063
-0.058
0.085
0.060
-0.074
0.085
0.032
0.034
0.046
-0.057
0.018
0.049
-0.037
0.019
0.045
-0.031
-0.014
0.060
-0.014
-0.033
0.048
0.023
0.036
-0.042
0.054
0.064
-0.054
0.046
0.007
-0.006
-0.012
0.075
0.020
-0.008
0.004
-0.054
0.028
0.048
0.103
0.000
-0.077
0.036
0.021
0.015
0.064
0.062
-0.100
0.039
-0.011
-0.064
0.020
-0.025
0.051
-0.003
-0.120
0.052
0.026
0.153
0.042
-0.024
-0.026
0.024
-0.000
0.065
0.075
-0.093
0.003
-0.031
0.162
0.060
-0.066
-0.041
0.005
0.043
0.062
-0.058
0.019
-0.012
-0.000
0.099
0.041
0.013
-0.028
-0.085
0.074
0.003
-0.014
0.064
0.075
-0.085
-0.021
-0.011
0.088
0.048
-0.048
-0.022
0.087
-0.043
-0.012
0.009
0.020
0.085
-0.073
0.078
0.082
-0.064
0.051
-0.007
-0.002
0.025
-0.068
0.070
-0.013
0.045
-0.007
-0.042
0.003
-0.022
-0.089
-0.032
0.130
0.059
0.110
-0.033
-0.046
0.010
0.005
0.048
0.079
0.071
-0.024
-0.076
-0.051
0.024
0.051
0.068
-0.018
-0.016
0.049
-0.038
-0.018
0.034
-0.013
0.034
-0.041
0.086
0.069
0.005
0.027
-0.038
0.066
0.062
-0.001
0.002
-0.045
0.038
0.039
-0.101
0.077
0.080
0.060
0.043
-0.029
0.022
-0.020
0.060
0.059
-0.058
0.068
-0.094
0.036
0.033
-0.071
0.008
-0.005
0.030
-0.022
-0.002
0.083
0.095
-0.036
0.060
-0.057
0.023
0.000
0.000
0.009
-0.040
0.040
0.087
0.051
-0.026
-0.051
0.106
-0.003
0.010
-0.019
-0.008
0.060
0.058
0.106
0.067
0.019
-0.069
0.038
0.002
0.054
0.043
0.068
-0.055
-0.043
0.078
0.018
-0.013
0.022
0.056
0.009
0.008
0.073
0.006
0.025
0.023
0.059
-0.090
0.052
0.073
0.023
0.133
-0.043
-0.003
0.002
-0.025
-0.017
0.036
-0.018
0.054
-0.011
0.028
-0.006
-0.008
0.012
-0.012
0.047
0.005
0.095
0.000
0.051
-0.021
0.025
0.029
-0.020
0.062
-0.003
-0.015
0.034
0.035
-0.009
0.005
0.033
0.012
0.093
0.005
0.033
0.047
0.038
0.038
-0.027
0.006
-0.003
0.149
-0.094
0.053
0.044
0.027
0.020
-0.035
0.026
0.023
0.009
-0.039
0.004
-0.061
0.049
0.014
0.000
0.076
0.036
-0.007
0.078
-0.020
-0.071
0.009
-0.057
0.025
0.069
0.031
-0.111
-0.001
0.040
0.022
0.041
0.042
0.003
-0.007
0.025
0.056
-0.020
0.083
-0.080
-0.016
0.107
0.073
0.003
-0.009
-0.074
0.108
0.036
0.064
0.057
-0.049
0.049
-0.011
-0.058
0.055
0.087
0.005
0.112
0.027
-0.088
0.058
0.028
0.118
-0.009
-0.003
-0.108
-0.024
0.070
0.028
0.008
0.014
-0.032
0.032
-0.020
0.089
0.060
-0.014
0.005
-0.035
0.061
-0.031
-0.008
-0.016
0.086
0.037
-0.009
0.044
0.075
0.047
0.034
0.086
0.111
-0.056
0.009
0.084
0.022
0.006
0.017
-0.025
0.024
-0.129
0.020
0.092
0.026
0.109
-0.038
0.028
-0.033
-0.021
0.037
0.037
-0.075
-0.014
0.027
0.045
0.134
-0.072
-0.046
0.032
0.182
-0.027
-0.022
-0.017
-0.042
0.002
0.100
0.031
-0.028
0.018
0.091
0.072
-0.106
-0.081
0.100
0.054
-0.034
0.081
0.071
0.002
-0.056
0.013
-0.017
0.034
0.029
-0.040
0.076
0.062
0.014
-0.040
0.016
-0.005
0.067
-0.011
0.017
0.033
-0.071
0.060
0.044
-0.054
0.003
0.037
0.000
0.082
0.036
-0.011
-0.019
0.023
0.095
-0.057
0.113
0.032
-0.025
-0.045
0.084
0.113
-0.014
-0.060
-0.077
0.079
-0.026
0.097
0.123
0.094
0.059
-0.050
-0.058
0.015
-0.034
0.070
0.120
0.038
0.014
-0.059
0.049
0.058
-0.054
0.070
-0.070
-0.087
0.127
0.104
-0.067
-0.002
0.024
0.046
0.127
-0.003
0.014
-0.009
0.042
0.026
0.028
0.033
0.075
0.056
0.075
-0.085
0.078
0.049
0.075
0.056
-0.041
0.009
0.074
-0.022
0.047
-0.045
0.037
-0.005
0.102
-0.035
-0.008
-0.001
-0.043
0.078
-0.035
0.154
0.091
0.030
-0.043
-0.052
-0.002
0.044
0.052
0.074
-0.010
-0.047
0.042
0.019
0.079
-0.060
-0.072
-0.019
0.024
0.079
0.023
-0.075
0.049
0.100
0.065
0.056
0.017
0.065
0.047
0.022
0.037
0.056
0.024
-0.004
-0.029
-0.006
-0.007
0.040
0.055
0.023
-0.026
-0.015
-0.031
0.053
0.002
-0.038
-0.015
0.050
-0.103
0.029
-0.010
0.012
0.106
-0.014
0.036
0.032
0.082
-0.003
0.034
0.054
-0.017
-0.090
0.073
0.100
0.048
0.019
-0.032
0.030
0.038
0.005
-0.063
-0.026
0.001
0.016
-0.003
0.093
0.053
0.006
-0.016
-0.001
0.051
-0.022
0.067
0.042
-0.008
0.036
-0.110
0.081
0.044
0.133
-0.013
-0.053
-0.086
0.001
0.015
0.091
-0.000
-0.036
0.059
-0.027
0.058
-0.014
0.109
0.033
-0.104
0.020
0.013
0.069
-0.011
-0.045
-0.033
0.090
0.068
0.064
0.051
-0.019
-0.046
-0.003
0.089
-0.028
0.066
0.077
-0.050
-0.018
-0.034
0.047
-0.055
0.044
0.067
-0.001
0.033
0.039
0.004
-0.010
-0.003
0.044
0.089
0.036
0.036
-0.013
-0.019
0.009
0.029
-0.025
0.058
-0.030
0.061
0.047
0.068
-0.033
-0.040
0.033
0.059
-0.003
0.029
0.081
0.012
-0.028
0.012
0.056
-0.094
0.046
-0.038
0.060
0.061
-0.010
-0.050
0.040
0.091
0.041
-0.027
0.044
-0.016
-0.031
-0.003
0.112
0.097
-0.089
0.037
0.011
-0.014
0.097
0.031
0.009
0.028
0.060
0.073
0.028
-0.036
0.052
0.005
0.061
-0.005
-0.035
0.032
0.052
-0.000
0.012
-0.011
0.077
0.045
-0.052
0.022
0.005
-0.057
-0.041
0.040
0.067
-0.003
-0.023
-0.128
0.004
0.031
0.102
-0.044
0.031
0.006
0.101
0.033
-0.085
0.007
0.035
0.087
0.170
-0.042
0.024
0.001
-0.087
-0.019
0.015
0.034
0.075
0.107
-0.007
-0.040
0.048
-0.025
0.025
0.006
-0.011
0.050
0.017
0.016
0.071
-0.067
0.033
-0.035
0.143
-0.067
-0.133
0.122
0.018
-0.088
0.021
0.078
-0.040
0.079
0.051
0.008
0.009
0.061
-0.031
-0.102
0.090
-0.033
0.001
0.049
0.118
0.005
-0.048
0.018
-0.015
-0.014
-0.042
0.066
0.051
0.066
-0.047
0.068
0.021
-0.070
0.060
0.049
0.062
0.039
-0.002
-0.022
0.083
0.056
0.002
-0.095
0.019
0.094
-0.028
0.032
-0.023
0.102
0.008
0.008
0.009
0.038
0.000
0.090
0.026
0.090
-0.029
0.011
0.062
-0.018
0.012
0.015
0.059
-0.034
0.051
0.044
-0.035
0.059
0.007
0.001
0.105
0.059
-0.026
-0.048
0.026
-0.030
0.130
-0.035
-0.035
0.024
-0.001
0.034
0.085
-0.032
-0.030
-0.005
0.031
-0.066
0.080
0.083
0.016
0.053
-0.007
-0.000
0.008
0.011
0.102
-0.029
0.040
-0.053
0.100
0.020
0.057
0.032
0.004
0.117
0.000
-0.020
-0.068
0.076
0.066
-0.025
-0.069
0.019
0.090
-0.092
0.036
0.045
0.132
-0.071
-0.079
-0.047
0.054
0.083
0.048
0.045
0.048
-0.002
0.056
0.025
-0.057
0.095
0.002
-0.002
0.080
0.042
-0.021
-0.066
0.084
-0.042
-0.015
0.080
0.112
-0.032
0.075
-0.017
-0.064
-0.040
0.062
-0.015
0.015
-0.005
-0.074
0.121
0.062
-0.006
0.007
0.057
0.013
0.030
-0.090
0.081
0.047
0.042
-0.009
0.064
0.094
0.032
-0.015
-0.007
-0.012
0.049
0.029
0.117
0.071
-0.007
-0.005
-0.009
-0.038
0.026
0.047
0.106
-0.023
0.013
0.075
0.128
0.047
-0.020
-0.096
0.026
0.038
0.080
0.025
0.004
-0.049
-0.058
0.019
0.085
-0.025
-0.023
0.039
0.000
-0.072
0.068
-0.037
-0.059
0.073
0.074
-0.034
-0.010
-0.018
0.050
0.013
0.095
0.073
0.084
-0.033
0.018
-0.039
0.036
0.050
-0.017
0.051
0.079
0.073
-0.099
-0.016
-0.018
-0.031
0.064
0.020
-0.004
0.085
-0.050
-0.027
0.022
0.027
0.024
0.044
-0.009
0.096
0.002
-0.035
-0.029
0.018
0.074
0.081
0.079
-0.044
0.040
-0.019
-0.035
0.042
0.016
0.070
-0.014
-0.037
0.081
-0.009
0.047
-0.020
-0.052
0.088
0.023
-0.011
0.061
0.078
0.040
-0.072
0.007
0.127
0.038
0.037
-0.050
-0.030
0.076
0.034
0.017
0.072
0.023
0.015
-0.001
0.004
0.017
0.034
0.024
0.048
0.039
0.071
0.006
0.044
0.005
-0.062
0.066
0.042
0.003
0.045
0.084
0.097
0.030
-0.071
0.007
-0.004
0.022
0.049
0.114
-0.091
-0.015
0.007
-0.033
0.083
0.069
0.026
0.036
-0.089
0.098
-0.043
0.090
0.068
-0.002
0.021
0.037
-0.055
0.074
0.045
0.050
0.091
-0.007
0.018
-0.058
-0.069
0.008
0.043
-0.062
-0.011
0.046
0.082
-0.084
-0.027
0.169
-0.004
-0.026
-0.040
0.041
0.044
-0.026
0.012
0.034
-0.017
0.122
0.057
-0.049
-0.015
0.003
-0.024
0.069
0.118
0.008
-0.019
0.023
-0.033
-0.001
0.020
-0.022
0.114
0.014
0.069
-0.000
-0.004
0.041
0.000
0.018
0.049
-0.062
0.002
0.027
-0.092
-0.034
0.124
0.121
0.027
-0.025
0.030
-0.006
-0.028
0.001
0.074
0.010
-0.038
-0.035
0.041
0.067
0.063
0.085
-0.012
-0.060
0.011
0.034
0.055
0.007
0.031
-0.030
0.032
0.151
-0.042
0.052
0.010
0.023
-0.044
-0.006
0.078
0.035
0.091
0.064
0.035
0.001
-0.035
0.035
0.113
-0.056
0.024
-0.053
0.005
0.063
0.066
-0.090
0.053
-0.026
0.002
0.086
-0.119
0.013
0.055
0.042
0.024
0.001
0.113
-0.003
0.004
0.088
-0.025
0.015
0.052
0.015
0.045
0.007
0.049
0.048
0.039
-0.041
-0.105
0.089
-0.011
0.002
0.031
0.039
-0.027
0.087
-0.072
-0.055
0.113
0.026
-0.001
-0.003
0.047
-0.001
-0.022
-0.047
0.103
0.004
-0.056
0.141
0.046
-0.013
-0.028
0.115
0.005
0.024
0.003
0.003
0.066
0.046
-0.079
0.084
-0.007
0.054
0.001
0.012
-0.059
-0.007
-0.033
0.077
0.043
0.007
0.051
-0.043
-0.028
0.062
0.067
-0.041
-0.048
0.012
0.139
0.121
-0.071
-0.029
0.016
0.025
0.040
0.086
0.001
0.020
-0.021
0.031
0.018
-0.054
-0.053
0.069
0.108
-0.001
-0.036
0.008
0.038
-0.035
-0.041
0.072
0.066
0.020
0.051
0.040
-0.014
0.021
-0.072
0.004
0.016
0.055
0.079
-0.016
-0.035
-0.069
0.148
0.122
-0.073
0.076
-0.004
-0.014
0.022
0.060
0.008
0.035
-0.046
-0.022
0.054
0.115
-0.002
0.035
0.072
-0.116
-0.035
0.010
0.111
0.076
0.038
0.007
-0.060
-0.043
0.007
0.043
0.031
0.041
