-0.139
0.316
0.248
-0.049
-0.189
-0.004
0.070
-0.086
0.053
-0.219
-0.061
0.097
0.019
-0.076
0.012
-0.103
-0.059
0.043
-0.071
-0.081
0.013
0.076
-0.038
0.009
-0.148
-0.233
0.349
0.272
-0.195
-0.042
-0.078
-0.018
-0.241
0.133
0.284
-0.032
-0.206
0.161
-0.045
-0.195
-0.208
0.277
0.224
-0.120
-0.272
0.046
0.002
0.027
-0.190
0.370
-0.029
-0.105
-0.092
-0.069
-0.010
-0.117
0.123
-0.009
-0.184
0.069
-0.346
0.032
0.086
-0.066
0.144
-0.068
-0.026
0.023
-0.087
-0.115
-0.036
0.219
-0.046
-0.162
-0.059
-0.091
-0.077
0.328
0.105
-0.155
-0.156
-0.072
-0.113
0.041
0.168
0.214
0.069
-0.272
-0.352
-0.337
-0.033
0.557
0.077
-0.421
0.203
0.414
-0.276
-0.245
-0.196
0.103
0.284
0.057
-0.229
-0.076
0.045
0.028
0.166
0.037
-0.040
-0.080
-0.090
0.025
-0.024
-0.058
-0.122
-0.004
-0.172
0.152
0.091
-0.269
0.439
0.130
-0.157
-0.176
-0.143
-0.183
0.127
-0.046
-0.121
0.100
0.253
-0.228
-0.405
0.620
0.083
-0.335
-0.091
0.063
-0.003
0.019
-0.212
0.018
0.386
0.120
-0.110
-0.261
0.013
0.294
0.000
-0.277
-0.246
-0.052
0.055
0.048
-0.040
-0.038
0.001
-0.258
0.208
0.128
-0.058
-0.259
-0.153
-0.216
0.103
0.146
0.158
0.005
-0.070
-0.009
-0.269
0.029
0.166
-0.093
0.107
-0.219
0.291
-0.084
-0.258
-0.015
0.137
0.037
0.007
0.084
-0.241
0.063
0.023
-0.231
0.232
-0.162
0.214
-0.175
-0.313
-0.104
0.094
-0.046
0.147
-0.150
0.066
0.216
-0.182
-0.233
-0.019
-0.120
0.008
-0.153
-0.069
0.168
0.085
0.044
-0.147
-0.241
-0.029
0.337
-0.074
0.021
0.212
-0.062
-0.178
-0.073
-0.023
0.070
0.079
-0.124
-0.040
-0.149
-0.044
0.268
0.054
-0.291
-0.279
0.517
0.097
-0.393
-0.246
0.135
-0.053
0.124
-0.033
-0.033
0.059
-0.158
0.211
0.055
-0.045
-0.206
-0.047
-0.083
-0.216
0.028
0.329
-0.004
-0.185
-0.459
-0.079
0.558
0.148
-0.270
-0.464
0.228
0.364
-0.072
-0.049
-0.100
-0.243
-0.193
0.228
0.349
0.106
-0.448
-0.086
0.127
0.014
-0.193
-0.095
-0.084
0.006
0.428
0.018
-0.211
-0.091
-0.035
-0.135
0.034
0.096
0.079
-0.150
0.180
0.105
-0.091
-0.459
-0.119
0.437
-0.100
0.033
-0.020
-0.021
-0.095
-0.080
0.026
-0.177
-0.124
0.376
0.231
-0.225
-0.231
-0.066
0.188
-0.146
-0.217
0.192
-0.016
-0.101
0.124
0.009
0.117
-0.313
-0.034
-0.045
-0.043
-0.094
-0.020
0.066
0.179
0.123
0.136
-0.163
-0.172
-0.390
-0.014
0.784
-0.083
-0.231
-0.134
-0.080
0.266
0.225
-0.221
-0.326
-0.008
-0.027
0.044
0.328
-0.065
-0.236
0.172
-0.107
-0.010
0.085
-0.163
0.032
0.018
-0.200
0.034
-0.223
0.014
0.013
-0.023
0.121
0.047
0.010
0.036
-0.081
-0.225
-0.141
0.063
-0.086
-0.377
0.458
0.592
-0.122
-0.315
-0.242
-0.052
0.002
0.092
-0.118
-0.178
0.360
0.025
-0.131
-0.166
-0.100
-0.006
0.041
-0.002
0.033
0.021
-0.099
0.163
-0.072
-0.038
0.049
-0.146
-0.004
0.041
-0.205
-0.017
0.305
-0.026
-0.044
-0.204
-0.352
0.153
0.480
-0.021
-0.617
-0.696
0.358
0.747
0.343
-0.050
-0.504
-0.422
0.018
0.161
0.017
0.019
0.060
-0.049
-0.031
0.029
-0.036
-0.045
-0.017
-0.118
-0.053
-0.021
-0.017
-0.026
-0.040
0.012
0.064
-0.133
-0.205
0.019
0.355
0.245
-0.189
-0.274
-0.110
-0.179
0.165
0.224
-0.160
0.193
0.283
-0.152
-0.268
-0.069
-0.151
-0.161
-0.148
0.557
-0.023
-0.132
-0.272
0.123
0.045
-0.050
0.037
-0.047
-0.036
0.006
-0.110
-0.075
-0.080
0.104
0.270
0.143
-0.220
-0.364
-0.329
0.252
0.706
0.132
-0.377
-0.186
-0.202
0.019
-0.248
-0.054
0.287
0.108
-0.214
-0.341
0.187
0.126
-0.111
-0.122
0.118
-0.201
-0.027
0.142
0.023
0.016
-0.061
0.010
0.067
-0.025
-0.106
-0.055
0.085
-0.116
-0.262
0.083
0.417
-0.134
-0.199
-0.267
-0.206
0.086
0.077
0.299
0.061
-0.191
0.054
-0.212
-0.060
0.097
0.095
0.068
-0.074
-0.021
-0.047
-0.339
0.159
0.223
-0.070
-0.238
-0.047
-0.074
0.280
0.144
-0.079
-0.249
-0.378
0.138
0.082
0.047
-0.036
-0.318
-0.118
0.238
0.284
-0.164
0.022
0.047
-0.246
-0.017
-0.043
-0.137
0.326
0.137
-0.206
0.232
-0.053
-0.037
0.012
-0.144
-0.092
-0.132
-0.237
0.474
0.062
-0.096
0.027
-0.261
-0.115
0.023
0.021
0.151
-0.021
-0.112
0.046
-0.104
-0.068
-0.036
0.305
0.219
-0.003
-0.156
-0.182
-0.145
-0.125
0.024
0.147
0.079
-0.093
0.060
0.013
-0.123
-0.124
-0.393
0.285
0.284
-0.118
-0.228
-0.184
0.144
0.217
-0.126
-0.088
-0.373
-0.037
0.504
-0.048
-0.083
-0.033
0.115
0.084
-0.199
-0.278
-0.213
0.220
0.320
-0.100
0.126
-0.047
-0.340
-0.278
0.314
-0.081
-0.452
0.243
0.433
-0.092
-0.245
-0.276
0.015
0.025
0.047
-0.063
-0.063
-0.127
-0.048
-0.149
-0.091
0.338
-0.115
-0.117
0.153
-0.223
0.144
0.011
-0.231
0.202
0.099
-0.039
0.027
-0.066
-0.074
0.153
-0.110
-0.181
-0.036
0.007
0.061
-0.312
-0.351
0.268
0.388
0.184
-0.067
-0.733
-0.051
0.157
0.002
0.075
0.000
-0.010
-0.016
0.108
-0.159
-0.207
0.079
0.095
-0.106
-0.162
0.059
-0.049
0.007
-0.068
-0.084
-0.241
0.421
0.463
-0.185
-0.354
-0.002
-0.034
-0.070
-0.169
0.056
0.094
0.275
-0.031
-0.549
0.042
0.472
0.197
-0.478
-0.367
0.256
0.227
-0.114
-0.040
-0.166
0.007
0.012
0.234
-0.029
-0.135
-0.216
-0.080
0.014
0.086
-0.136
0.119
0.011
-0.010
-0.089
-0.069
-0.077
-0.069
0.121
0.156
-0.084
-0.102
-0.086
-0.174
0.151
0.208
-0.139
-0.467
0.023
0.126
0.050
0.102
-0.054
-0.041
-0.062
-0.163
-0.010
0.221
0.012
-0.219
-0.104
0.231
0.047
0.108
-0.260
-0.329
-0.245
0.466
-0.008
-0.349
0.395
0.338
-0.339
-0.263
0.065
-0.207
-0.061
0.036
0.274
0.145
-0.230
-0.064
-0.086
-0.003
-0.111
0.039
0.009
-0.093
0.307
-0.088
-0.243
0.064
0.201
-0.269
-0.300
-0.135
0.123
0.279
0.058
-0.016
-0.013
-0.238
0.315
-0.032
-0.300
0.057
-0.033
0.152
0.087
-0.145
-0.083
-0.152
-0.178
0.312
0.090
-0.113
-0.231
-0.079
0.056
-0.211
-0.146
-0.014
0.215
0.031
-0.054
-0.039
-0.066
-0.031
-0.232
0.045
0.369
-0.000
-0.226
-0.074
-0.284
-0.293
0.529
0.556
-0.142
-0.346
-0.104
0.039
-0.273
-0.143
0.002
0.373
0.223
-0.034
0.080
-0.257
-0.131
-0.232
-0.053
-0.138
0.184
0.220
0.014
-0.159
-0.165
-0.082
0.074
0.001
-0.075
-0.101
0.009
0.081
0.166
-0.547
0.013
0.423
0.168
-0.051
-0.241
-0.246
-0.114
0.100
0.026
-0.118
0.189
0.065
-0.115
-0.022
-0.093
0.004
-0.154
-0.059
-0.297
0.170
0.674
-0.093
-0.344
-0.344
0.062
0.096
-0.008
0.141
0.219
-0.481
-0.002
0.064
0.170
0.036
0.061
-0.174
-0.099
0.000
-0.215
-0.075
0.115
0.319
0.142
-0.496
0.212
0.001
-0.191
-0.102
-0.021
0.076
-0.090
-0.059
0.064
-0.055
-0.047
0.025
-0.096
-0.268
-0.172
0.417
0.227
-0.123
-0.272
-0.057
-0.143
-0.151
-0.041
0.075
0.485
0.151
-0.175
-0.181
-0.099
-0.370
0.336
0.158
-0.280
0.122
0.057
-0.175
-0.043
0.071
0.168
-0.150
-0.004
-0.063
-0.105
-0.011
-0.053
-0.185
-0.059
0.411
0.036
-0.255
-0.079
-0.092
-0.048
-0.095
0.157
-0.085
-0.338
-0.141
0.646
0.277
-0.269
-0.211
-0.272
-0.277
0.249
0.300
0.004
-0.198
-0.362
0.406
0.160
0.034
-0.172
-0.259
-0.137
0.041
0.111
0.191
0.049
-0.130
-0.035
0.093
0.022
0.064
-0.019
-0.009
-0.166
-0.098
0.155
-0.058
-0.054
0.154
-0.130
-0.126
-0.155
0.033
0.134
0.062
-0.177
-0.000
-0.124
-0.084
-0.088
-0.318
-0.052
0.911
0.068
-0.167
-0.292
-0.188
0.014
-0.164
-0.290
0.183
0.260
0.366
0.022
-0.308
-0.275
0.094
-0.257
-0.287
0.145
0.394
0.120
-0.090
-0.207
-0.277
-0.070
0.218
0.225
0.015
-0.143
-0.169
-0.199
0.067
0.023
0.285
0.042
-0.399
-0.142
-0.022
-0.032
0.278
0.110
-0.178
-0.204
-0.299
0.152
0.171
-0.040
-0.314
0.307
0.118
-0.082
-0.298
-0.268
0.530
0.160
-0.192
-0.208
-0.329
0.126
0.366
-0.079
-0.136
0.050
-0.001
-0.329
-0.121
0.125
0.200
0.153
-0.209
-0.092
0.011
0.034
-0.132
0.118
-0.004
-0.093
-0.046
-0.097
-0.010
-0.238
0.089
0.417
0.050
-0.232
-0.123
-0.320
-0.056
0.171
0.091
0.082
-0.081
0.024
-0.046
-0.069
0.008
0.040
-0.065
-0.025
-0.061
-0.231
0.077
-0.449
0.273
0.684
0.089
-0.467
-0.102
-0.220
-0.055
-0.030
0.050
-0.118
0.042
0.242
-0.041
-0.326
0.303
0.262
-0.085
-0.224
-0.314
-0.267
0.427
0.151
0.019
0.007
-0.048
-0.060
-0.137
-0.012
-0.236
-0.205
0.605
0.067
-0.326
-0.455
0.191
0.076
-0.116
0.043
-0.384
-0.089
0.203
0.022
0.080
-0.070
0.107
-0.089
-0.072
0.014
-0.150
0.020
0.118
-0.097
-0.075
0.182
0.008
-0.174
-0.096
-0.085
0.007
-0.137
0.040
0.034
-0.207
0.065
0.494
-0.063
-0.137
-0.111
-0.142
-0.226
-0.003
0.127
0.087
-0.144
-0.011
0.422
0.035
-0.345
-0.360
0.483
-0.011
-0.352
0.176
-0.048
0.007
-0.089
-0.069
0.081
0.056
0.064
-0.180
-0.370
0.211
0.200
-0.152
-0.242
0.139
0.132
-0.088
-0.098
-0.050
-0.062
0.037
0.264
-0.157
-0.046
-0.016
-0.220
-0.249
0.217
0.408
-0.194
-0.042
0.056
-0.220
-0.084
-0.220
-0.024
0.238
0.448
-0.076
-0.304
-0.231
-0.017
0.141
-0.024
-0.239
0.188
0.112
0.037
-0.008
-0.155
-0.124
0.178
0.092
-0.129
-0.055
-0.112
-0.225
-0.300
0.352
0.381
-0.110
-0.399
-0.622
0.352
1.086
-0.097
-0.417
-0.361
-0.083
0.090
0.097
-0.020
-0.034
0.186
-0.055
-0.153
-0.087
-0.191
0.185
0.151
-0.052
-0.163
0.099
-0.305
0.216
0.145
-0.178
-0.184
-0.111
0.090
0.066
0.013
-0.076
-0.098
-0.083
-0.004
-0.300
0.349
0.190
-0.188
-0.237
-0.399
-0.169
0.618
0.419
-0.158
-0.154
-0.173
-0.152
0.137
0.222
0.185
0.011
-0.136
-0.382
0.136
0.284
-0.198
-0.141
-0.173
0.076
-0.007
-0.106
-0.097
-0.144
-0.036
-0.007
0.078
0.281
0.103
-0.267
-0.247
-0.276
0.188
0.199
-0.267
-0.016
0.097
-0.018
-0.067
-0.107
0.086
-0.049
-0.183
-0.093
0.440
-0.037
-0.295
-0.083
-0.129
-0.077
0.033
0.478
-0.124
-0.110
0.096
-0.227
-0.258
-0.030
0.227
0.048
-0.147
-0.182
-0.025
0.123
-0.058
0.022
0.159
-0.203
-0.254
0.174
0.109
-0.083
-0.079
0.018
-0.055
-0.076
-0.060
0.018
0.086
-0.104
-0.207
-0.147
0.517
0.038
-0.292
-0.476
-0.222
0.105
0.519
-0.049
-0.019
-0.264
-0.001
0.293
-0.088
-0.072
-0.065
0.004
-0.109
-0.443
0.296
0.424
-0.128
-0.355
-0.085
0.077
0.119
-0.100
-0.034
-0.049
-0.025
0.068
-0.061
-0.054
0.073
0.029
-0.135
-0.159
-0.093
-0.032
0.097
0.027
0.087
0.071
-0.045
-0.061
-0.118
-0.021
0.089
-0.031
-0.069
-0.182
0.226
-0.149
0.110
0.497
-0.225
-0.410
0.083
0.140
-0.173
0.009
-0.120
-0.249
-0.137
0.284
0.261
-0.062
-0.183
-0.071
0.081
-0.150
-0.142
-0.054
0.021
0.107
0.012
-0.048
-0.041
-0.002
-0.017
0.059
-0.145
-0.062
-0.112
-0.014
0.335
-0.159
-0.090
-0.118
0.071
0.198
-0.003
-0.130
-0.052
-0.056
0.023
0.054
-0.330
0.263
0.380
-0.091
-0.141
-0.008
0.047
-0.180
-0.180
-0.185
0.044
0.337
-0.272
-0.147
0.124
0.143
-0.107
-0.129
-0.040
-0.079
-0.045
0.128
-0.104
-0.140
-0.084
0.094
0.111
0.176
0.030
0.038
-0.253
-0.189
-0.040
0.343
-0.051
-0.180
-0.133
-0.296
0.434
-0.020
0.409
-0.118
-0.313
-0.117
-0.143
-0.045
0.004
0.243
-0.015
-0.071
0.080
-0.145
-0.148
0.187
0.152
0.038
-0.017
-0.261
0.088
-0.121
-0.242
0.126
0.525
0.020
-0.202
-0.306
-0.012
-0.020
-0.003
0.025
-0.001
-0.057
-0.016
-0.130
0.092
-0.051
-0.010
0.091
0.027
-0.216
-0.353
0.231
0.404
-0.465
0.325
0.351
-0.217
-0.308
0.204
-0.109
-0.142
0.271
-0.087
0.033
0.046
-0.091
-0.016
0.059
0.003
-0.122
0.063
-0.037
-0.259
-0.143
0.199
-0.061
-0.245
0.612
0.069
-0.205
-0.215
-0.043
0.092
-0.043
-0.009
-0.025
0.051
0.048
0.064
-0.045
-0.221
-0.132
0.117
0.390
0.108
-0.163
-0.384
-0.049
0.096
-0.114
0.110
-0.085
0.072
0.369
-0.168
-0.338
-0.225
0.223
-0.182
-0.019
0.186
0.012
-0.168
0.253
-0.125
-0.271
-0.230
0.074
0.335
0.286
-0.163
-0.041
-0.098
-0.030
-0.017
-0.107
0.138
-0.091
-0.125
-0.083
0.036
-0.041
0.185
-0.137
-0.060
0.059
-0.091
0.014
-0.036
-0.129
-0.156
0.060
-0.234
-0.054
0.593
0.062
-0.476
-0.170
0.275
0.157
-0.133
-0.328
-0.133
0.303
-0.253
0.287
0.307
-0.163
-0.449
-0.147
0.183
0.163
-0.141
0.166
0.053
-0.137
-0.093
-0.203
-0.135
0.154
0.198
-0.097
-0.122
-0.263
-0.281
0.316
0.328
-0.107
-0.332
0.001
0.190
-0.183
0.090
0.172
-0.017
-0.089
0.056
-0.135
0.038
0.036
-0.086
-0.055
0.148
-0.057
-0.299
-0.229
0.369
0.235
-0.198
-0.139
-0.058
-0.056
-0.035
-0.148
-0.251
0.454
0.386
-0.167
-0.090
-0.199
-0.125
0.072
-0.018
0.026
-0.102
-0.179
-0.073
0.206
0.152
-0.042
-0.175
-0.046
0.088
0.038
-0.065
-0.020
-0.125
-0.257
-0.158
0.437
0.252
-0.300
-0.362
0.045
0.080
-0.113
0.060
-0.236
0.034
0.361
-0.107
-0.335
0.322
0.080
-0.240
-0.273
-0.084
-0.024
0.221
0.088
-0.322
0.224
-0.055
-0.009
-0.176
-0.404
0.239
0.196
-0.087
-0.063
-0.105
-0.142
-0.052
0.070
-0.089
-0.126
-0.008
0.010
-0.038
-0.031
-0.012
-0.124
-0.014
-0.028
0.017
0.066
0.088
-0.150
-0.171
-0.010
0.271
-0.072
-0.245
-0.047
0.250
-0.091
-0.058
0.019
0.074
-0.109
-0.080
0.071
-0.037
-0.110
0.088
-0.125
0.328
0.040
-0.065
-0.189
-0.169
-0.167
0.016
0.128
0.023
-0.077
-0.183
0.086
-0.086
-0.196
-0.015
0.347
-0.110
0.127
-0.041
-0.143
-0.032
-0.145
-0.098
0.144
0.156
-0.083
0.096
0.286
-0.213
-0.066
-0.013
-0.462
0.187
0.302
0.042
-0.071
-0.197
-0.327
0.073
0.677
-0.012
-0.150
0.001
-0.430
0.125
0.412
0.058
-0.319
-0.258
0.036
0.312
-0.189
-0.047
0.090
-0.128
-0.088
-0.041
-0.061
0.008
0.073
0.211
-0.129
-0.184
0.012
0.086
-0.022
-0.058
-0.118
-0.057
0.113
-0.222
0.113
0.160
0.125
-0.051
-0.226
-0.084
0.032
-0.121
0.001
0.040
0.025
0.016
0.021
-0.010
-0.026
-0.062
-0.062
0.075
-0.127
-0.390
0.265
0.303
-0.116
-0.178
-0.135
-0.031
0.122
0.103
-0.071
-0.009
-0.120
0.018
0.091
-0.066
-0.131
-0.204
0.215
0.451
-0.278
-0.481
-0.171
0.200
0.316
0.007
-0.023
-0.143
0.127
-0.031
-0.395
0.079
0.095
-0.385
0.613
0.302
-0.330
-0.626
-0.013
0.097
0.274
-0.019
-0.160
-0.095
0.029
0.322
-0.041
-0.172
-0.227
0.012
0.214
-0.099
-0.156
-0.206
-0.237
0.301
0.057
-0.257
0.498
0.084
-0.150
-0.173
0.007
-0.016
-0.085
-0.183
0.063
0.103
0.163
-0.035
-0.222
-0.049
-0.002
-0.004
0.219
-0.067
-0.144
-0.280
0.064
0.004
-0.052
0.202
0.090
0.130
0.010
-0.048
-0.078
-0.015
-0.120
-0.086
-0.027
-0.026
0.016
0.024
-0.291
-0.058
0.101
0.013
0.018
0.097
-0.078
-0.138
-0.045
0.028
-0.248
-0.105
0.119
0.213
0.402
-0.152
-0.152
-0.115
-0.034
-0.085
-0.101
-0.008
-0.006
0.207
0.127
-0.087
-0.054
-0.087
-0.126
-0.211
-0.263
0.611
0.053
-0.238
-0.105
-0.049
0.078
-0.076
-0.015
0.172
0.012
-0.352
0.209
0.245
-0.241
-0.211
-0.122
0.210
0.131
-0.094
-0.250
-0.047
0.016
0.261
-0.092
-0.510
0.088
-0.139
0.179
0.366
0.083
-0.160
-0.324
-0.309
-0.136
0.414
-0.331
0.132
0.225
0.329
-0.126
-0.247
-0.193
-0.173
0.018
0.127
-0.077
0.020
0.062
0.083
0.057
-0.136
-0.113
0.004
-0.093
-0.045
-0.249
0.172
0.162
-0.104
-0.145
-0.119
-0.079
0.214
0.249
-0.211
-0.224
-0.244
0.126
0.237
-0.304
0.089
0.339
-0.035
-0.259
-0.239
-0.043
0.209
0.159
-0.067
-0.261
-0.259
0.251
0.036
-0.024
-0.116
-0.038
-0.033
-0.138
-0.110
0.066
-0.272
0.243
0.310
-0.176
-0.219
-0.064
-0.056
0.350
0.166
-0.120
-0.146
-0.118
-0.173
0.248
0.034
-0.134
-0.267
0.461
0.044
-0.251
-0.107
-0.069
-0.032
-0.047
0.043
0.070
0.050
-0.052
-0.065
-0.070
0.068
-0.036
-0.300
0.104
0.070
-0.098
-0.060
-0.020
0.206
0.030
-0.095
-0.265
0.065
-0.010
-0.086
0.030
0.153
-0.155
0.271
-0.052
-0.115
-0.130
-0.037
-0.022
0.022
-0.120
0.043
0.103
0.003
0.197
-0.029
-0.278
-0.089
-0.165
-0.222
-0.017
0.241
0.493
-0.188
-0.269
-0.333
0.162
0.206
-0.093
0.080
-0.027
-0.386
-0.039
0.560
0.342
-0.169
-0.460
-0.018
0.075
-0.193
-0.067
0.372
-0.158
-0.153
0.067
-0.058
-0.071
0.046
-0.071
-0.053
-0.012
0.256
-0.063
-0.067
-0.087
-0.077
0.028
0.018
-0.155
-0.006
0.155
0.087
-0.213
-0.273
0.364
0.183
-0.156
-0.031
-0.250
-0.001
0.247
-0.200
0.070
0.229
-0.124
-0.162
-0.011
-0.339
-0.234
0.633
0.072
-0.268
-0.000
0.069
-0.134
-0.155
-0.103
-0.027
0.030
-0.018
0.137
0.042
-0.156
-0.044
0.010
0.088
0.035
-0.115
-0.189
0.034
0.265
-0.136
-0.475
0.355
0.384
-0.243
-0.130
0.005
-0.083
0.034
-0.032
0.028
-0.146
-0.041
0.182
0.013
-0.167
0.021
0.013
-0.091
-0.060
-0.555
-0.014
0.731
-0.031
-0.252
-0.160
-0.107
0.047
-0.049
0.264
0.043
-0.151
-0.098
-0.225
-0.081
0.531
-0.379
0.087
0.172
-0.063
-0.393
-0.099
0.030
0.040
0.254
-0.113
-0.233
0.077
0.150
-0.027
-0.072
-0.126
-0.221
0.099
0.072
-0.147
-0.067
0.149
0.093
-0.130
-0.055
-0.222
0.254
-0.093
0.126
-0.206
0.022
0.570
0.023
-0.346
-0.216
0.022
-0.069
0.082
0.106
-0.048
-0.042
-0.015
-0.394
-0.017
0.365
-0.154
0.064
0.015
-0.143
-0.181
-0.053
-0.119
0.094
0.158
0.072
-0.006
-0.120
-0.034
-0.043
0.078
-0.037
-0.118
-0.065
0.029
-0.132
0.072
0.008
-0.223
0.050
-0.061
-0.541
0.634
0.446
-0.120
-0.325
-0.228
-0.446
0.415
0.390
-0.107
-0.204
-0.122
0.008
0.023
0.034
-0.044
-0.125
0.178
0.066
-0.087
-0.253
-0.226
0.372
0.005
-0.158
-0.025
-0.166
-0.011
-0.123
0.063
0.326
-0.005
-0.218
-0.239
0.178
0.080
-0.176
-0.208
0.449
-0.073
-0.106
-0.201
-0.045
-0.176
0.005
0.223
-0.002
-0.152
0.183
0.161
-0.298
-0.339
-0.143
0.222
0.176
-0.051
-0.057
-0.258
-0.006
0.197
-0.091
-0.146
0.127
0.130
0.035
-0.057
-0.184
-0.095
-0.069
-0.059
-0.162
0.176
0.159
0.006
0.044
-0.044
-0.158
-0.185
0.229
0.107
-0.372
-0.205
0.482
0.000
-0.240
0.179
-0.058
-0.309
0.112
-0.045
-0.080
0.040
-0.002
-0.047
-0.135
0.382
-0.040
-0.170
-0.114
-0.105
-0.048
-0.123
0.177
0.155
0.045
0.194
-0.109
-0.363
-0.101
0.031
0.076
-0.050
0.029
0.029
-0.223
0.248
0.033
-0.520
0.108
0.168
0.174
-0.479
-0.024
0.395
0.439
-0.253
-0.306
-0.093
0.047
0.048
0.111
0.034
0.021
-0.131
-0.185
0.223
-0.026
-0.340
-0.166
-0.108
0.062
0.240
0.141
-0.124
-0.175
-0.075
-0.005
0.102
-0.026
-0.025
0.075
-0.036
-0.051
-0.134
0.125
0.077
-0.220
0.015
0.127
-0.216
-0.137
0.176
-0.004
-0.087
0.001
-0.177
-0.092
0.198
0.072
0.006
-0.208
-0.094
-0.084
0.336
0.057
-0.152
-0.092
-0.050
-0.060
0.094
-0.012
0.029
-0.085
-0.012
-0.101
0.019
-0.010
0.016
-0.047
-0.210
-0.071
-0.058
-0.388
0.611
0.281
-0.108
-0.296
-0.097
-0.110
-0.047
-0.118
-0.076
0.062
0.225
-0.061
-0.296
0.216
0.182
-0.136
-0.113
-0.026
-0.096
0.024
0.123
-0.014
-0.126
-0.291
0.113
0.006
0.001
-0.097
0.145
0.331
-0.439
-0.350
0.036
0.170
0.225
-0.081
-0.001
0.158
-0.068
-0.404
0.112
0.409
-0.101
-0.173
-0.164
-0.113
0.041
0.140
-0.077
0.004
-0.053
0.036
-0.208
-0.164
0.233
0.109
-0.127
-0.093
-0.137
0.044
0.134
-0.066
-0.018
-0.106
-0.027
0.134
0.018
-0.182
-0.054
0.135
0.074
-0.385
-0.105
0.476
-0.038
-0.251
0.013
-0.026
-0.045
-0.238
0.122
-0.036
-0.079
0.086
0.153
0.180
-0.043
-0.618
-0.109
0.444
0.045
-0.153
-0.045
-0.140
-0.009
0.145
0.037
-0.082
0.130
-0.044
-0.198
0.213
-0.174
-0.213
0.103
0.002
-0.035
-0.020
-0.071
0.292
0.096
-0.093
-0.226
-0.132
-0.044
-0.094
0.170
0.110
-0.177
-0.215
0.618
0.097
-0.338
-0.349
-0.038
0.038
0.102
-0.003
0.095
0.006
0.074
-0.066
-0.028
-0.090
0.047
-0.099
-0.089
-0.120
0.096
0.259
0.122
-0.084
-0.097
-0.093
-0.126
0.083
0.024
-0.052
-0.207
0.066
0.098
0.123
0.029
-0.204
-0.135
-0.168
-0.020
0.314
0.086
-0.070
-0.054
-0.092
-0.046
0.022
-0.104
-0.214
-0.031
0.172
0.074
-0.099
-0.147
-0.211
-0.047
0.069
-0.035
0.138
-0.028
0.063
-0.054
-0.233
0.147
0.275
0.028
-0.141
-0.166
-0.036
-0.109
0.310
-0.226
-0.204
0.155
0.013
-0.038
0.024
-0.117
-0.279
0.149
0.052
-0.201
-0.079
0.188
-0.081
-0.091
-0.250
-0.223
0.434
-0.083
-0.211
0.200
0.132
0.043
-0.665
0.203
0.583
-0.342
-0.080
-0.154
-0.110
-0.144
0.060
0.139
0.123
0.140
-0.117
-0.337
-0.217
0.368
0.229
-0.198
-0.135
-0.123
-0.013
0.140
0.027
0.039
-0.110
-0.083
-0.027
0.182
-0.077
-0.181
-0.053
0.078
-0.021
-0.084
-0.027
-0.055
0.074
0.091
-0.220
0.118
0.448
-0.201
-0.335
-0.112
0.125
-0.013
-0.030
0.049
-0.037
-0.107
-0.145
0.340
-0.054
-0.324
0.217
0.134
-0.053
-0.024
-0.070
-0.067
-0.070
-0.105
0.156
-0.110
0.104
0.146
-0.025
-0.075
-0.120
-0.021
-0.165
0.081
-0.010
-0.015
0.213
0.024
-0.083
0.018
-0.130
-0.110
0.035
0.199
-0.362
-0.116
0.310
0.114
-0.126
-0.469
0.143
-0.021
-0.131
0.446
0.125
-0.306
-0.182
-0.062
-0.117
0.195
0.105
-0.283
0.149
0.221
-0.012
-0.085
-0.087
-0.091
-0.017
-0.129
-0.027
0.131
0.028
0.025
-0.130
-0.139
0.019
0.085
0.119
0.069
-0.012
-0.288
-0.141
-0.095
0.347
0.228
-0.055
-0.177
-0.041
-0.008
-0.091
-0.065
0.057
0.061
-0.091
-0.110
0.133
-0.026
-0.127
0.111
0.055
-0.348
0.171
0.158
-0.027
-0.103
-0.073
-0.027
0.085
-0.022
0.026
-0.106
-0.160
-0.155
0.258
-0.016
0.010
-0.228
0.270
-0.129
-0.008
0.037
-0.069
-0.066
0.025
0.055
-0.066
-0.018
0.056
0.038
-0.028
-0.132
-0.214
0.279
0.192
-0.242
-0.264
0.037
0.094
-0.179
0.011
0.203
0.182
-0.615
0.155
0.726
-0.133
-0.456
-0.025
-0.096
0.042
0.171
-0.039
-0.117
-0.000
0.045
0.096
-0.129
-0.113
-0.109
-0.442
0.399
0.280
-0.150
-0.016
-0.207
-0.162
-0.035
0.053
0.143
-0.193
-0.061
0.332
-0.150
-0.132
-0.117
0.176
-0.044
0.124
0.073
-0.200
-0.053
0.112
-0.250
-0.243
0.420
0.202
0.016
-0.252
-0.069
-0.051
-0.090
-0.142
0.199
-0.064
-0.145
-0.268
0.162
0.196
0.130
-0.266
-0.144
0.032
-0.094
-0.256
0.455
0.372
-0.206
-0.231
-0.168
-0.203
0.343
0.196
-0.278
-0.165
0.186
0.080
-0.046
-0.162
-0.058
-0.030
0.011
-0.055
0.004
0.029
-0.226
-0.209
0.072
0.263
0.279
-0.202
-0.161
-0.155
0.048
0.022
-0.014
0.127
0.009
-0.059
-0.004
-0.078
-0.023
-0.224
-0.014
0.175
0.139
-0.004
-0.148
-0.229
-0.165
0.298
-0.070
-0.054
-0.092
-0.206
0.280
0.372
0.016
-0.209
-0.317
-0.324
0.448
0.175
-0.058
0.004
-0.272
-0.105
-0.027
0.122
0.183
-0.172
-0.105
0.146
-0.092
-0.445
-0.021
0.154
0.409
0.157
-0.082
-0.484
-0.275
0.467
0.086
-0.163
-0.021
0.035
0.061
-0.013
-0.150
0.119
-0.221
-0.209
0.373
0.107
-0.169
-0.334
-0.245
0.220
0.209
-0.171
-0.043
0.126
0.005
-0.162
-0.030
0.003
-0.131
0.041
-0.038
0.063
0.038
-0.078
-0.105
-0.101
-0.121
0.304
0.153
-0.124
-0.511
-0.146
1.114
-0.056
-0.411
0.043
0.043
-0.199
-0.119
-0.024
0.012
0.049
0.035
0.028
-0.044
-0.093
-0.029
0.150
-0.077
-0.081
-0.019
-0.034
-0.152
-0.119
-0.078
0.257
-0.129
-0.094
-0.104
0.147
-0.123
0.050
-0.015
-0.174
0.094
0.023
-0.023
-0.049
-0.037
-0.129
-0.098
-0.048
0.244
-0.124
-0.234
0.146
0.198
-0.094
-0.088
-0.131
-0.000
0.173
-0.012
-0.079
-0.030
0.036
-0.024
-0.049
0.056
0.027
0.045
-0.099
-0.179
-0.295
0.365
0.157
0.017
-0.054
-0.280
0.162
-0.041
0.145
-0.108
-0.088
-0.180
0.099
0.289
-0.051
-0.274
0.004
0.009
-0.110
-0.166
-0.088
0.037
-0.078
-0.010
0.142
-0.176
-0.169
0.014
-0.008
0.248
-0.066
-0.153
-0.235
0.040
0.193
0.167
0.075
-0.109
-0.102
-0.175
0.224
0.008
-0.041
-0.007
-0.089
-0.096
-0.023
-0.058
0.195
-0.334
-0.015
0.003
0.086
-0.073
-0.348
0.211
0.286
-0.040
-0.047
0.073
0.020
-0.261
-0.406
0.264
0.338
-0.126
0.110
0.111
-0.471
0.114
0.227
-0.169
-0.157
-0.078
-0.081
0.033
-0.082
-0.083
0.310
-0.120
-0.158
-0.125
-0.070
0.073
0.047
-0.223
-0.135
0.109
0.037
-0.004
0.154
0.019
-0.168
-0.222
0.155
0.026
0.073
-0.090
-0.061
-0.080
-0.081
0.096
-0.110
-0.176
0.104
0.084
0.199
-0.172
-0.128
-0.060
-0.077
-0.322
0.372
0.358
-0.076
-0.105
-0.327
0.004
0.286
0.048
-0.205
-0.549
0.224
0.445
0.072
-0.195
-0.107
-0.039
-0.130
-0.074
-0.071
-0.019
-0.075
0.204
0.165
-0.210
-0.150
-0.131
0.084
0.012
-0.009
-0.009
-0.026
-0.065
-0.154
0.201
0.112
-0.065
-0.266
0.007
0.099
-0.043
-0.165
-0.010
0.295
-0.032
-0.519
-0.020
0.626
-0.294
-0.260
0.017
0.221
-0.010
-0.323
-0.021
0.420
-0.043
-0.225
-0.263
-0.013
0.631
-0.226
-0.320
-0.091
-0.098
0.040
0.049
-0.051
-0.123
-0.065
-0.011
0.245
-0.060
-0.057
-0.090
-0.141
-0.206
0.090
0.234
-0.031
-0.114
-0.158
-0.174
0.054
0.155
-0.127
-0.133
0.121
-0.250
0.111
0.375
0.155
-0.057
-0.331
-0.166
-0.059
0.005
0.010
0.252
0.137
-0.096
-0.008
-0.091
-0.074
-0.134
0.165
-0.104
-0.001
0.021
-0.171
-0.233
0.049
0.236
0.017
0.326
-0.184
-0.537
0.204
0.036
-0.098
-0.006
-0.032
-0.014
-0.205
-0.127
0.103
-0.023
0.207
0.135
0.159
-0.289
-0.203
-0.094
0.063
0.058
0.106
-0.029
0.137
0.006
-0.158
0.353
0.104
-0.070
-0.160
-0.246
-0.063
0.137
0.038
0.029
-0.054
-0.159
0.145
0.274
-0.248
-0.089
0.071
-0.075
-0.056
0.029
0.027
-0.110
-0.091
-0.061
-0.007
0.069
0.080
-0.214
-0.181
0.225
0.111
-0.361
-0.110
-0.139
0.236
0.354
-0.150
-0.201
-0.078
-0.097
-0.056
0.023
0.038
0.180
-0.043
-0.517
-0.095
0.696
-0.107
-0.336
0.006
-0.084
-0.027
0.024
0.061
-0.103
-0.039
-0.007
0.021
0.051
-0.016
-0.098
-0.074
-0.152
-0.229
-0.019
0.556
0.022
-0.241
-0.170
-0.041
-0.077
0.269
0.067
-0.258
-0.127
-0.004
0.062
-0.241
0.048
0.202
0.026
-0.281
-0.247
0.196
-0.060
0.017
-0.182
-0.122
0.012
-0.103
0.130
0.489
-0.040
-0.253
-0.133
-0.001
-0.057
0.102
-0.106
-0.013
0.034
-0.168
-0.088
0.293
0.058
-0.062
-0.030
-0.181
-0.168
0.285
-0.023
-0.188
-0.110
0.097
0.014
-0.014
0.160
0.057
-0.093
-0.204
-0.157
-0.019
-0.065
0.235
-0.088
-0.200
0.189
-0.133
-0.185
0.036
0.155
0.112
-0.023
-0.317
0.142
0.181
-0.034
-0.049
-0.184
-0.013
-0.147
-0.129
0.320
0.154
-0.214
-0.201
-0.105
0.052
0.062
-0.044
-0.031
0.029
0.006
-0.007
0.058
-0.288
0.023
0.125
0.007
-0.014
-0.216
-0.182
0.029
0.089
-0.094
0.019
-0.173
-0.197
0.197
0.169
0.078
-0.335
-0.193
-0.134
0.040
0.013
0.076
-0.026
-0.099
0.088
0.317
-0.128
-0.117
-0.430
-0.084
0.425
0.021
-0.156
-0.467
0.191
0.242
-0.045
-0.112
-0.234
-0.069
-0.060
-0.023
0.368
-0.038
-0.019
0.012
-0.379
0.108
0.168
0.005
-0.239
-0.110
0.192
-0.081
-0.242
0.201
0.069
-0.132
0.131
-0.087
-0.273
-0.214
0.205
-0.000
-0.089
-0.046
-0.151
-0.249
0.259
-0.010
0.100
-0.056
-0.182
-0.311
0.090
0.383
-0.010
-0.042
-0.069
-0.046
0.036
0.069
-0.574
0.294
0.571
-0.093
-0.315
-0.271
-0.083
-0.156
-0.080
0.251
0.151
-0.262
0.200
-0.157
-0.017
-0.038
-0.066
-0.100
-0.062
0.094
0.011
-0.017
0.132
0.022
-0.344
-0.236
0.571
-0.013
-0.311
0.008
0.061
-0.118
-0.002
-0.280
0.106
0.217
-0.123
-0.148
0.036
-0.102
-0.008
0.206
-0.092
-0.244
0.111
-0.055
0.113
0.116
-0.197
-0.079
0.054
0.090
0.303
-0.107
-0.204
-0.048
0.016
-0.169
-0.181
0.176
0.241
-0.013
-0.139
-0.080
-0.247
-0.048
0.334
-0.247
0.065
0.105
-0.090
-0.117
-0.082
-0.042
0.104
0.011
-0.159
-0.053
0.133
0.181
-0.072
-0.084
-0.047
-0.129
-0.291
0.214
0.193
-0.038
-0.258
-0.147
0.191
0.154
-0.247
-0.075
0.026
-0.020
-0.145
0.015
-0.005
0.330
-0.139
0.013
-0.133
-0.070
-0.207
-0.039
0.429
0.148
-0.062
-0.130
-0.248
-0.048
-0.183
-0.166
0.353
0.120
-0.070
-0.070
-0.204
-0.073
0.129
0.125
-0.087
-0.166
-0.172
-0.112
0.125
0.336
-0.134
-0.382
0.061
0.160
0.006
-0.094
0.004
-0.100
0.035
-0.073
-0.129
-0.150
-0.093
0.529
0.032
-0.322
-0.374
-0.048
0.144
0.462
-0.171
-0.280
0.127
-0.105
0.146
0.399
-0.120
-0.240
-0.033
-0.087
0.015
0.258
-0.225
-0.418
0.403
0.293
-0.234
-0.400
-0.317
0.620
0.229
-0.205
-0.285
-0.156
0.062
0.221
0.060
0.019
-0.061
-0.140
-0.045
0.026
-0.042
-0.178
0.072
0.117
-0.015
-0.056
0.006
-0.049
-0.016
0.027
-0.096
-0.063
0.117
0.036
-0.217
-0.144
-0.032
0.323
0.122
0.020
-0.307
-0.221
0.164
-0.223
0.019
0.382
-0.202
-0.460
0.334
0.157
-0.170
-0.006
-0.074
0.006
-0.126
0.120
0.183
-0.151
0.008
-0.117
-0.203
0.061
0.048
0.157
-0.118
0.024
-0.050
-0.109
-0.156
-0.018
-0.121
-0.112
0.252
-0.270
0.367
0.205
-0.109
-0.132
-0.180
-0.187
-0.023
0.037
-0.111
-0.219
0.146
0.352
0.035
-0.054
-0.036
-0.119
-0.217
0.006
0.131
-0.091
-0.101
-0.072
0.026
0.202
0.198
-0.107
-0.164
-0.088
-0.133
-0.052
-0.219
0.028
0.359
0.195
-0.252
-0.219
0.073
-0.157
-0.014
0.060
0.067
-0.041
0.005
-0.058
-0.068
-0.254
0.363
0.394
-0.476
0.036
-0.063
-0.116
-0.065
-0.028
0.117
0.011
0.026
-0.187
-0.105
0.003
0.016
0.001
-0.032
-0.322
-0.223
0.498
-0.023
-0.114
-0.111
0.116
0.069
-0.088
0.046
-0.313
-0.206
0.352
0.090
0.120
-0.133
-0.242
-0.065
0.228
-0.012
-0.209
-0.030
-0.115
0.197
-0.060
-0.413
0.020
0.476
-0.065
-0.208
-0.264
-0.167
0.020
0.125
0.170
0.112
-0.073
-0.255
-0.222
0.049
0.159
-0.069
-0.119
0.103
0.219
-0.253
-0.107
-0.042
-0.155
-0.226
0.358
0.269
-0.214
-0.389
0.237
0.097
0.085
-0.065
-0.098
-0.089
0.028
-0.046
0.120
-0.057
-0.003
-0.126
-0.194
-0.038
0.254
0.135
-0.129
0.058
-0.151
-0.042
-0.012
0.056
-0.071
-0.034
0.102
-0.083
-0.098
0.369
-0.016
-0.079
-0.125
0.025
-0.044
-0.209
-0.173
0.385
0.143
-0.153
-0.339
-0.025
0.367
0.051
-0.145
-0.276
-0.140
0.027
0.069
0.284
-0.064
-0.274
-0.121
0.281
0.072
-0.069
-0.024
-0.020
-0.185
-0.019
0.186
0.012
-0.285
-0.020
0.476
0.055
-0.006
-0.159
-0.438
-0.065
0.093
0.254
-0.035
-0.230
0.123
0.081
-0.197
-0.115
0.237
-0.111
0.065
0.004
-0.435
-0.277
0.805
0.019
-0.369
-0.179
-0.073
0.053
0.007
0.079
0.125
0.003
-0.257
-0.131
-0.348
0.177
0.325
0.095
-0.308
-0.136
-0.042
-0.012
0.075
0.038
0.014
-0.097
-0.094
0.025
0.058
0.054
-0.004
-0.062
-0.095
-0.149
0.022
0.083
0.015
-0.267
0.112
0.070
-0.005
-0.271
0.026
-0.175
-0.026
0.336
0.147
-0.066
-0.148
-0.076
-0.112
-0.125
0.035
0.067
0.047
-0.002
0.038
-0.288
-0.509
0.469
0.395
-0.029
-0.363
-0.151
0.004
0.069
0.025
-0.078
-0.046
0.075
-0.092
-0.054
0.163
0.101
-0.065
-0.129
-0.047
-0.087
-0.228
-0.112
0.307
0.060
-0.020
-0.001
-0.241
-0.263
0.403
-0.038
-0.187
-0.061
-0.083
0.123
-0.341
0.240
0.601
-0.206
-0.394
-0.120
-0.046
-0.113
0.036
-0.060
0.032
-0.086
-0.051
-0.182
0.154
-0.122
-0.011
-0.037
-0.038
-0.019
-0.078
-0.009
-0.027
-0.021
0.099
0.045
-0.137
-0.066
0.039
0.009
0.039
-0.168
-0.168
-0.216
0.176
0.136
0.065
-0.209
-0.189
0.061
0.285
-0.237
-0.219
-0.119
0.150
-0.368
0.875
0.448
-0.589
-0.083
-0.132
-0.066
-0.050
0.071
-0.045
0.059
-0.005
-0.064
-0.073
-0.138
-0.067
-0.014
-0.017
-0.320
0.197
0.244
-0.087
-0.160
-0.148
-0.110
0.197
0.244
0.010
-0.187
0.019
0.131
-0.134
-0.100
0.091
-0.098
0.010
-0.080
-0.122
0.090
0.015
-0.047
-0.028
-0.094
0.057
0.068
-0.018
-0.081
-0.014
-0.225
0.625
-0.214
-0.068
0.088
-0.321
0.034
-0.025
0.215
0.024
-0.340
-0.031
-0.081
-0.067
0.445
0.018
-0.164
-0.208
0.081
0.087
-0.235
0.035
-0.107
-0.036
0.450
-0.054
-0.367
0.007
-0.004
-0.093
0.021
0.074
-0.042
-0.138
-0.182
0.258
0.337
-0.175
-0.375
-0.082
-0.085
-0.225
-0.265
0.087
0.567
0.462
-0.315
-0.353
-0.264
-0.022
0.090
0.165
-0.025
-0.154
-0.183
0.304
-0.066
-0.145
-0.252
0.159
0.123
-0.097
-0.074
0.026
0.030
-0.107
-0.143
0.229
0.255
-0.062
-0.123
0.013
-0.253
-0.183
0.238
0.380
0.012
-0.269
-0.004
-0.040
-0.035
-0.129
-0.172
0.241
0.140
-0.085
-0.152
-0.044
-0.140
-0.319
0.268
0.502
-0.015
-0.300
-0.346
-0.057
0.183
0.108
-0.020
0.077
-0.086
-0.191
0.059
0.003
-0.108
0.004
0.176
-0.022
-0.260
-0.042
0.007
0.102
0.088
-0.125
-0.179
-0.427
0.285
0.187
0.464
-0.066
-0.360
-0.037
0.016
-0.255
0.130
0.219
-0.036
-0.101
0.125
-0.117
-0.042
-0.066
-0.017
0.043
-0.096
-0.027
0.003
-0.048
-0.126
-0.015
-0.034
-0.079
0.049
-0.072
-0.037
-0.038
-0.041
-0.032
-0.042
-0.171
-0.044
0.125
0.240
-0.124
-0.050
-0.205
0.215
0.002
-0.194
-0.059
-0.076
0.133
-0.122
-0.242
0.372
0.103
-0.224
-0.285
0.178
-0.107
0.378
-0.245
-0.249
-0.084
0.020
0.002
0.073
-0.015
0.063
-0.098
0.026
-0.002
-0.052
0.173
-0.061
-0.285
0.015
-0.033
-0.287
0.313
0.044
-0.088
-0.101
-0.116
-0.019
-0.034
0.152
-0.029
-0.051
-0.129
0.012
0.042
-0.311
-0.192
0.686
0.197
-0.243
-0.230
-0.052
-0.001
-0.024
-0.073
0.021
0.165
0.048
-0.073
-0.046
-0.109
-0.208
-0.011
0.269
-0.128
-0.068
-0.133
-0.170
0.120
-0.101
0.069
0.497
-0.108
-0.170
-0.266
-0.263
0.057
0.054
0.032
0.330
-0.069
-0.003
-0.043
-0.111
-0.051
-0.090
-0.001
0.094
-0.052
0.006
-0.223
-0.012
-0.043
-0.185
0.095
0.219
0.004
0.132
-0.113
-0.217
-0.127
-0.064
-0.266
0.415
0.390
-0.251
-0.260
0.264
-0.041
-0.190
-0.116
0.096
-0.042
-0.007
0.063
-0.009
-0.137
0.102
-0.058
-0.009
-0.073
-0.032
-0.126
0.113
-0.190
-0.136
0.311
0.048
-0.177
-0.060
-0.085
-0.081
-0.128
0.181
0.078
0.067
0.102
-0.106
-0.174
-0.129
-0.021
0.223
-0.031
-0.014
-0.024
-0.242
-0.038
0.105
0.032
-0.175
0.002
0.130
0.119
0.127
-0.264
-0.247
-0.547
0.461
0.599
-0.044
-0.324
-0.076
0.003
-0.011
-0.236
0.168
-0.021
-0.095
-0.028
-0.108
-0.137
0.317
0.056
-0.105
-0.251
-0.173
-0.273
0.510
0.384
-0.311
-0.118
-0.010
-0.017
-0.010
0.065
-0.016
-0.132
-0.000
-0.048
0.077
0.021
0.219
-0.058
-0.106
-0.138
-0.017
-0.015
0.035
0.035
-0.041
-0.243
-0.117
0.355
0.060
-0.035
-0.176
-0.094
-0.331
0.427
0.423
-0.319
-0.091
-0.122
-0.164
-0.027
-0.060
0.083
0.156
0.223
-0.141
-0.140
-0.079
-0.085
-0.019
-0.079
-0.030
0.249
0.056
-0.146
-0.113
-0.004
0.045
-0.152
-0.122
0.272
0.035
-0.091
-0.062
-0.035
0.110
-0.043
-0.404
-0.174
0.744
0.058
-0.187
0.120
-0.007
-0.227
-0.386
-0.121
0.214
0.688
-0.041
-0.270
-0.305
-0.205
0.051
0.122
0.035
-0.250
-0.118
0.212
0.072
-0.085
-0.125
-0.298
-0.063
0.040
0.323
0.167
-0.152
-0.309
-0.144
0.127
0.059
0.058
0.001
0.091
-0.174
-0.233
0.140
0.341
-0.015
-0.265
-0.365
-0.048
-0.099
0.228
0.134
-0.150
-0.109
0.151
-0.236
-0.257
0.254
0.053
-0.042
-0.222
-0.174
0.116
0.288
-0.073
-0.119
-0.071
-0.028
-0.073
0.175
-0.091
-0.164
-0.055
0.065
0.047
-0.057
-0.133
-0.117
-0.181
0.305
0.113
-0.038
-0.123
-0.144
-0.080
0.255
-0.122
-0.053
0.048
0.098
-0.052
-0.235
0.287
0.170
-0.340
-0.314
0.062
0.044
-0.066
-0.068
0.162
-0.068
-0.365
-0.103
0.158
-0.097
-0.125
0.028
-0.034
-0.148
0.239
-0.142
-0.236
0.246
0.000
-0.112
0.160
-0.029
-0.151
-0.105
0.213
-0.137
-0.076
-0.008
-0.170
0.316
0.410
-0.225
-0.306
-0.060
-0.031
-0.122
-0.016
-0.037
0.040
0.103
0.047
-0.123
-0.130
-0.163
-0.285
0.481
0.187
-0.264
-0.340
0.085
0.074
-0.022
0.220
-0.043
-0.049
-0.106
0.004
0.008
-0.180
-0.013
0.059
0.090
0.102
-0.169
-0.117
-0.052
-0.128
0.064
0.065
0.048
-0.273
-0.009
0.074
0.045
0.028
-0.030
-0.169
0.041
0.081
-0.064
-0.034
0.035
-0.083
0.306
0.005
-0.166
-0.313
0.216
0.198
-0.192
-0.139
0.259
-0.166
0.288
-0.102
-0.127
0.020
-0.138
-0.035
0.294
-0.140
-0.211
0.096
0.087
-0.089
-0.029
0.028
0.006
-0.074
-0.097
0.161
0.001
-0.384
0.172
0.117
-0.135
0.088
-0.051
-0.055
-0.111
0.054
-0.039
-0.006
0.149
0.133
-0.010
-0.162
-0.049
0.076
-0.123
0.070
0.177
-0.032
-0.128
-0.011
-0.184
-0.114
0.364
-0.167
0.031
0.094
-0.485
-0.016
0.301
-0.028
-0.172
-0.359
0.185
0.484
0.142
-0.422
-0.179
-0.044
-0.001
0.067
-0.108
0.019
0.049
-0.076
-0.013
-0.003
0.029
-0.073
-0.160
-0.022
0.019
0.055
-0.100
-0.100
-0.001
-0.076
0.007
0.115
-0.260
0.171
0.072
-0.183
0.210
0.104
-0.144
-0.227
-0.141
-0.018
0.244
-0.019
-0.026
-0.106
-0.042
0.138
0.059
-0.161
0.021
-0.079
0.079
-0.150
-0.150
0.279
0.071
-0.125
-0.090
-0.105
-0.139
0.082
0.044
-0.092
-0.165
0.152
-0.154
-0.011
0.172
-0.199
-0.201
0.126
0.214
0.084
-0.103
-0.100
-0.232
-0.170
0.512
0.281
-0.194
-0.225
-0.262
0.247
0.176
-0.217
-0.097
0.144
0.029
-0.077
-0.039
-0.027
0.007
-0.079
-0.062
-0.010
0.037
0.049
-0.139
0.000
0.095
0.087
-0.131
-0.012
0.054
-0.169
-0.008
-0.005
-0.099
-0.264
0.320
0.336
-0.104
-0.288
0.174
0.066
-0.465
0.369
0.337
-0.230
-0.265
-0.029
0.243
-0.136
-0.045
0.266
-0.251
-0.322
0.398
0.170
-0.398
-0.154
0.229
0.069
-0.157
-0.263
-0.167
0.295
0.159
-0.022
-0.249
-0.101
0.234
-0.132
-0.111
-0.127
0.075
0.044
-0.064
-0.013
-0.160
0.025
-0.051
0.094
-0.033
-0.041
-0.102
-0.138
0.232
0.222
-0.074
-0.128
-0.047
-0.008
0.065
-0.052
-0.007
-0.176
-0.043
0.275
0.072
0.028
-0.282
-0.223
-0.463
0.132
0.595
-0.083
-0.210
-0.278
0.357
0.079
-0.249
-0.236
-0.052
0.092
0.166
-0.027
-0.088
0.019
-0.050
-0.289
0.027
0.217
-0.165
-0.089
0.183
-0.152
-0.185
-0.127
0.068
0.072
0.034
-0.170
-0.027
0.189
-0.183
0.117
-0.233
0.062
0.115
-0.137
-0.012
-0.081
-0.126
0.279
-0.028
-0.418
0.101
0.463
0.008
-0.226
-0.181
-0.038
0.001
0.020
0.011
-0.033
-0.177
0.032
0.130
0.030
-0.074
-0.328
-0.152
0.093
-0.042
0.082
-0.039
-0.062
0.054
-0.029
0.006
-0.081
-0.009
-0.066
-0.113
-0.128
0.253
0.075
-0.177
-0.132
-0.369
0.035
0.355
0.191
-0.150
-0.419
0.095
-0.018
0.060
-0.147
0.150
-0.184
0.063
0.012
-0.253
0.194
0.169
-0.038
-0.032
0.021
-0.168
-0.210
0.285
0.209
-0.086
-0.175
-0.282
-0.035
0.063
0.285
0.178
-0.189
-0.240
-0.088
-0.117
-0.126
0.294
0.216
-0.180
-0.247
-0.030
-0.060
-0.142
-0.172
-0.109
0.446
0.342
-0.136
-0.251
-0.075
-0.161
0.050
0.056
0.049
-0.180
0.163
0.085
-0.076
-0.225
-0.167
0.262
0.052
-0.175
-0.275
0.035
-0.086
0.005
0.150
-0.086
0.012
0.209
0.107
-0.181
-0.176
-0.185
0.090
0.068
-0.030
-0.093
0.012
-0.151
0.394
0.016
-0.149
0.116
-0.195
-0.379
0.252
0.240
-0.104
-0.221
0.096
-0.175
-0.227
0.469
0.017
0.062
-0.095
-0.192
-0.105
-0.137
-0.014
0.228
-0.044
-0.079
0.029
-0.075
-0.161
-0.071
-0.054
0.098
0.045
-0.135
-0.047
-0.122
-0.006
0.186
-0.001
-0.166
0.100
0.382
-0.501
0.063
0.325
-0.037
-0.077
-0.255
-0.016
0.130
0.046
-0.039
-0.362
0.375
-0.039
0.159
-0.089
-0.203
0.165
-0.117
-0.261
0.169
-0.083
-0.153
0.139
0.381
-0.050
-0.055
-0.172
-0.099
-0.102
-0.047
0.109
0.045
0.100
0.047
-0.225
0.029
0.025
0.081
-0.179
-0.044
0.058
-0.129
0.065
0.201
-0.031
-0.167
-0.029
0.122
-0.415
0.164
0.169
0.265
-0.040
-0.073
0.124
-0.148
-0.211
-0.288
-0.131
0.584
0.099
-0.021
-0.376
-0.064
0.259
-0.006
-0.134
-0.140
0.091
-0.086
-0.203
0.464
-0.022
-0.167
-0.182
-0.101
0.006
0.070
0.035
0.009
-0.012
-0.053
-0.101
0.008
0.177
-0.071
-0.134
0.042
-0.087
-0.170
0.161
0.189
-0.089
-0.003
-0.031
-0.263
0.327
0.066
-0.334
0.115
-0.004
0.128
0.107
-0.171
-0.224
-0.163
0.222
0.052
0.059
0.049
-0.229
-0.129
-0.002
0.064
0.012
-0.065
-0.093
-0.335
0.012
0.179
-0.010
0.013
0.024
0.095
-0.145
-0.139
0.022
-0.115
-0.123
0.060
0.287
-0.019
-0.131
-0.174
-0.082
0.240
-0.126
-0.152
0.128
-0.168
-0.160
0.098
0.018
0.059
0.050
-0.215
-0.034
-0.131
-0.114
0.166
-0.069
0.381
0.045
-0.284
0.000
-0.222
-0.270
0.341
-0.003
-0.129
-0.116
-0.038
-0.013
-0.003
0.057
-0.192
-0.144
0.064
-0.063
0.103
0.182
-0.149
-0.055
-0.038
-0.183
-0.004
-0.103
-0.058
-0.093
0.233
0.199
-0.129
-0.199
-0.032
-0.145
-0.046
-0.011
0.164
0.100
-0.075
-0.088
-0.109
-0.146
0.244
-0.168
0.038
0.003
0.041
-0.037
-0.156
0.084
0.077
-0.027
-0.070
-0.118
-0.049
-0.093
-0.130
0.239
-0.026
-0.265
-0.515
0.377
0.430
-0.329
-0.078
0.155
-0.062
-0.109
0.004
-0.039
-0.102
-0.087
0.159
0.169
-0.044
-0.173
-0.165
-0.182
0.028
0.057
0.222
0.118
-0.167
-0.100
-0.062
-0.023
-0.104
0.029
-0.211
-0.081
0.293
0.180
-0.103
-0.207
-0.068
-0.127
-0.169
0.032
0.235
0.093
-0.118
-0.184
-0.000
0.013
-0.076
0.105
-0.107
-0.034
0.034
-0.016
-0.074
-0.008
0.090
-0.058
-0.023
-0.110
-0.030
-0.209
0.170
0.181
-0.089
-0.163
-0.223
-0.142
-0.014
0.141
0.391
-0.294
-0.069
0.117
-0.046
-0.253
0.049
0.107
-0.237
0.068
0.311
0.138
-0.177
-0.105
-0.238
0.012
-0.074
-0.158
-0.019
0.060
0.089
-0.085
0.110
0.042
-0.063
0.073
-0.100
-0.058
0.009
-0.061
-0.026
0.053
-0.009
-0.052
0.193
-0.634
0.019
0.582
0.209
-0.349
-0.415
-0.008
0.196
-0.011
0.096
-0.076
0.057
0.037
0.023
-0.210
-0.362
0.442
0.370
0.002
-0.330
-0.157
-0.139
-0.145
0.087
0.065
0.031
0.012
-0.063
-0.075
0.060
-0.004
-0.064
-0.155
0.041
0.086
-0.070
-0.291
0.052
0.036
0.370
-0.005
-0.259
-0.003
-0.012
-0.509
0.164
0.693
-0.038
-0.232
-0.155
-0.114
0.055
-0.014
-0.016
0.043
-0.059
-0.060
-0.078
0.049
0.037
-0.057
-0.074
-0.012
-0.085
0.049
0.034
-0.039
0.049
-0.069
-0.380
0.371
0.351
-0.246
-0.277
-0.026
-0.132
0.139
0.098
0.018
-0.018
-0.178
-0.145
-0.093
-0.143
0.182
0.461
-0.022
-0.433
-0.278
-0.027
0.064
-0.037
0.127
0.193
-0.150
-0.173
-0.029
0.016
-0.052
-0.098
0.045
0.198
-0.149
-0.085
0.031
-0.055
0.002
0.010
-0.059
-0.099
0.021
0.077
-0.022
-0.128
0.070
0.115
0.052
-0.326
-0.080
0.170
0.051
-0.081
-0.176
0.148
-0.027
0.086
-0.356
-0.103
0.167
0.028
-0.076
-0.147
-0.075
-0.003
0.031
0.008
-0.122
0.216
0.208
-0.138
-0.145
-0.227
0.106
0.074
-0.067
-0.061
-0.219
0.097
0.196
0.199
-0.048
-0.148
-0.126
-0.159
-0.034
0.022
0.187
0.054
0.038
0.046
-0.128
-0.174
-0.036
-0.139
0.253
0.010
0.094
-0.091
-0.253
0.008
0.131
-0.019
-0.167
-0.082
0.246
-0.009
-0.264
-0.174
-0.059
0.362
0.049
-0.166
-0.105
-0.094
0.122
0.168
-0.047
-0.208
-0.210
0.111
0.146
0.358
-0.104
-0.295
0.063
-0.163
0.074
0.158
-0.093
0.002
0.165
-0.120
-0.087
-0.247
-0.022
0.018
0.016
-0.182
0.049
0.351
-0.202
-0.193
-0.015
0.029
-0.023
-0.054
-0.128
-0.028
0.201
0.010
-0.072
0.018
-0.140
-0.237
-0.276
0.583
0.297
-0.316
-0.237
-0.024
-0.203
0.029
0.242
0.053
-0.050
-0.086
0.007
0.015
-0.015
-0.091
-0.103
-0.015
-0.189
0.276
0.378
-0.310
-0.183
-0.019
-0.132
0.024
0.088
-0.100
0.055
-0.086
0.296
0.166
-0.211
-0.438
0.286
0.118
-0.157
-0.039
-0.053
-0.017
-0.091
0.096
-0.077
-0.182
0.056
0.085
0.130
0.028
-0.117
-0.172
-0.154
0.012
-0.038
0.069
0.036
0.064
-0.131
-0.099
-0.200
0.525
0.337
-0.385
-0.175
0.002
-0.159
-0.139
0.245
-0.000
-0.064
-0.079
0.083
-0.035
-0.280
0.119
0.139
-0.008
0.105
-0.111
-0.029
0.047
-0.068
0.142
0.003
-0.036
-0.053
0.034
-0.034
-0.084
-0.070
-0.012
0.071
-0.204
-0.077
0.191
-0.017
-0.128
-0.110
-0.106
0.217
0.104
-0.196
-0.098
0.007
-0.473
-0.362
0.974
0.233
-0.137
-0.582
-0.297
0.520
0.045
-0.162
-0.102
-0.099
0.074
0.084
0.063
-0.013
0.038
-0.073
-0.012
-0.147
-0.047
0.033
0.008
-0.090
-0.025
-0.004
0.029
-0.207
-0.012
0.391
-0.052
-0.086
-0.056
-0.049
-0.042
-0.138
-0.109
0.414
-0.061
-0.057
-0.034
-0.138
-0.052
-0.017
-0.058
-0.029
0.132
0.146
-0.304
-0.241
0.437
-0.119
-0.056
0.334
0.304
-0.372
-0.537
-0.593
-0.057
0.927
0.232
-0.199
-0.228
0.095
-0.009
-0.184
-0.184
0.106
0.172
0.032
-0.111
-0.004
-0.079
-0.005
0.008
0.069
0.010
0.088
-0.090
-0.084
-0.061
-0.001
0.054
0.037
0.028
-0.046
-0.059
-0.024
0.055
-0.134
-0.173
0.079
0.196
0.142
-0.119
-0.065
-0.230
-0.244
0.060
0.144
0.172
0.118
-0.003
-0.201
-0.221
-0.024
0.259
-0.165
-0.285
0.293
0.455
0.046
-0.293
-0.211
-0.037
0.019
0.057
-0.352
0.214
0.403
0.073
-0.253
-0.216
-0.328
-0.036
0.124
-0.096
0.037
0.145
0.025
-0.015
-0.050
-0.098
-0.017
-0.001
0.110
-0.054
-0.269
0.334
0.127
-0.107
-0.174
-0.123
-0.007
-0.117
0.151
0.054
0.008
0.060
-0.144
-0.234
0.092
0.091
-0.196
0.220
0.082
-0.043
-0.037
-0.165
-0.156
0.079
-0.063
0.067
-0.001
0.011
-0.024
-0.006
-0.373
-0.040
0.624
0.018
-0.481
-0.477
0.428
0.312
-0.218
-0.114
-0.292
0.062
0.408
-0.227
0.016
-0.008
-0.078
-0.083
-0.026
0.145
-0.018
-0.088
-0.013
0.087
-0.096
-0.066
0.108
-0.068
-0.148
0.160
-0.336
0.233
0.195
-0.257
-0.190
-0.236
0.010
-0.013
0.343
0.099
-0.122
-0.326
-0.032
0.325
-0.005
-0.273
-0.037
0.103
0.119
0.214
-0.287
0.010
-0.015
-0.055
0.014
-0.117
0.011
-0.054
0.094
-0.004
-0.099
0.113
-0.116
-0.150
-0.110
0.122
0.003
-0.195
0.051
-0.018
-0.018
-0.100
-0.066
0.137
-0.062
0.063
0.003
-0.181
-0.087
-0.068
-0.287
0.401
0.247
-0.154
-0.149
0.020
-0.046
-0.086
0.113
0.110
-0.057
-0.290
0.175
0.028
-0.133
-0.068
0.221
-0.113
0.049
-0.074
-0.089
-0.126
-0.020
0.005
0.029
0.008
0.064
0.017
-0.172
-0.079
0.021
0.005
0.106
-0.185
-0.172
0.209
0.342
0.010
-0.363
-0.114
-0.184
-0.030
-0.049
0.070
-0.018
-0.029
-0.102
-0.158
0.214
0.081
-0.149
-0.140
-0.225
0.143
0.162
-0.168
0.033
-0.053
-0.033
0.562
-0.005
-0.398
-0.371
0.212
0.045
-0.010
-0.003
-0.029
0.232
-0.052
-0.293
-0.223
0.093
0.242
0.077
-0.017
-0.078
-0.138
-0.273
-0.140
0.600
0.101
-0.113
-0.196
-0.135
0.110
-0.096
-0.124
-0.408
-0.060
0.606
0.335
-0.140
-0.259
-0.361
-0.100
0.074
0.204
-0.086
-0.282
0.153
0.275
-0.032
-0.069
-0.152
-0.231
-0.154
0.072
0.284
0.021
-0.197
-0.158
0.101
0.111
-0.165
-0.085
0.034
0.060
-0.000
0.022
-0.362
0.243
0.239
-0.007
-0.245
-0.284
-0.148
0.149
0.227
-0.044
-0.256
0.341
0.133
-0.036
-0.300
-0.125
0.183
-0.049
-0.047
-0.005
0.062
-0.094
-0.220
-0.102
0.108
0.170
0.023
-0.068
-0.163
-0.017
-0.067
-0.122
-0.009
0.414
-0.219
-0.397
0.325
0.340
0.212
-0.197
-0.308
-0.124
0.020
0.083
0.032
0.099
0.005
-0.140
-0.031
0.265
-0.010
-0.188
0.049
-0.138
-0.166
-0.104
-0.056
0.119
0.079
-0.072
-0.061
0.117
0.057
-0.126
-0.002
-0.001
-0.035
-0.056
-0.047
-0.015
-0.105
0.204
0.125
-0.218
-0.121
0.218
0.092
-0.200
0.014
-0.095
0.239
-0.007
-0.167
-0.064
0.094
-0.471
0.096
0.550
-0.017
-0.313
0.010
0.042
-0.122
0.105
-0.100
0.101
-0.053
-0.003
-0.178
0.058
0.174
-0.061
0.021
0.095
-0.212
-0.187
0.154
-0.096
-0.390
0.193
0.358
0.065
-0.010
-0.219
-0.210
-0.078
0.072
0.021
0.147
-0.083
-0.130
-0.080
-0.079
-0.021
-0.156
-0.245
0.443
0.274
-0.266
-0.575
-0.082
0.204
0.291
0.039
-0.141
-0.183
0.083
-0.073
-0.144
0.049
0.066
0.091
-0.095
-0.005
-0.175
-0.188
0.143
0.324
0.056
-0.167
-0.333
-0.150
0.312
0.016
-0.066
0.007
-0.137
-0.051
0.229
0.061
-0.115
-0.253
0.146
-0.171
0.108
0.197
-0.071
-0.252
-0.071
0.314
-0.039
-0.063
0.085
-0.177
-0.166
-0.057
0.025
0.098
0.060
-0.056
-0.060
-0.066
-0.273
-0.037
0.224
-0.033
-0.180
0.037
-0.093
0.015
0.131
-0.083
-0.176
0.056
0.009
0.076
-0.043
-0.021
-0.087
-0.229
0.335
-0.035
0.002
-0.098
-0.084
-0.256
0.098
0.389
-0.094
-0.208
0.027
-0.051
-0.091
-0.022
-0.059
0.365
0.236
-0.241
-0.274
-0.154
-0.007
0.033
-0.024
0.059
0.071
0.092
0.036
0.051
-0.112
-0.203
-0.168
-0.086
0.211
0.302
0.006
-0.283
-0.175
-0.271
0.001
-0.275
-0.110
0.813
0.372
-0.453
-0.043
-0.208
-0.105
0.131
-0.082
0.046
0.026
-0.078
-0.031
0.102
0.013
-0.083
-0.137
-0.128
-0.077
0.028
0.074
-0.139
-0.046
-0.101
0.011
0.100
0.171
-0.123
-0.156
0.248
0.102
-0.104
-0.127
-0.020
-0.033
-0.145
-0.191
0.538
0.102
-0.340
-0.210
0.041
0.038
0.002
0.099
-0.284
0.077
0.400
-0.065
-0.059
-0.080
-0.003
-0.146
0.042
-0.071
-0.086
0.184
-0.026
-0.092
-0.157
0.208
0.041
-0.067
-0.077
0.043
-0.113
0.055
-0.132
-0.279
0.173
0.215
-0.121
-0.281
-0.118
0.231
0.103
-0.200
-0.225
0.096
-0.046
0.002
-0.012
0.051
0.071
-0.160
-0.069
-0.113
-0.284
0.181
0.523
-0.012
-0.316
-0.283
0.000
-0.135
0.248
0.119
-0.086
-0.029
0.030
-0.035
-0.099
-0.032
0.097
-0.247
-0.194
0.336
-0.174
-0.166
-0.084
0.001
0.300
-0.072
-0.182
-0.030
-0.154
0.098
-0.111
-0.280
0.327
0.301
-0.232
-0.060
-0.079
-0.371
-0.338
0.604
0.239
-0.116
-0.309
-0.094
-0.007
0.019
-0.008
0.020
-0.070
-0.022
0.064
0.026
-0.142
-0.140
0.055
-0.050
-0.171
-0.068
-0.112
0.138
0.155
-0.004
-0.043
-0.034
-0.017
-0.046
-0.076
0.080
0.009
-0.032
-0.153
-0.150
0.148
-0.175
0.227
0.095
-0.267
-0.362
-0.072
0.687
0.145
-0.347
-0.228
-0.128
-0.090
0.092
0.170
-0.088
0.159
-0.019
-0.032
-0.081
-0.048
0.188
-0.136
-0.049
0.072
-0.026
-0.120
-0.133
0.026
0.087
0.089
-0.122
-0.246
0.057
0.070
0.103
-0.119
-0.076
-0.048
-0.042
-0.037
0.027
0.115
0.082
-0.213
-0.163
-0.079
0.315
0.252
-0.059
-0.161
-0.121
-0.084
-0.070
0.001
0.128
0.256
-0.048
-0.206
-0.121
-0.124
0.035
0.158
0.020
-0.080
-0.283
0.041
0.162
-0.044
-0.421
0.243
0.422
-0.100
-0.194
-0.129
-0.073
0.182
-0.100
-0.085
0.151
0.160
0.040
-0.095
-0.189
-0.049
0.031
-0.008
0.005
-0.038
0.004
-0.037
-0.095
-0.082
-0.043
0.042
-0.046
-0.215
-0.123
-0.200
0.105
0.822
0.019
-0.311
-0.245
-0.221
0.026
-0.093
0.117
0.477
0.026
-0.245
-0.261
0.078
0.263
-0.091
-0.163
-0.225
-0.092
0.048
0.169
-0.143
0.057
0.077
-0.026
-0.252
-0.034
0.010
-0.091
-0.140
-0.028
0.026
-0.012
0.020
-0.020
0.011
-0.077
-0.036
-0.069
-0.043
-0.040
0.023
0.072
-0.130
-0.236
-0.064
0.037
0.285
0.025
-0.415
0.007
0.029
0.015
0.227
-0.112
-0.182
-0.083
-0.045
-0.009
-0.012
0.103
0.140
0.026
-0.222
-0.126
0.210
0.042
-0.101
-0.056
-0.124
-0.139
-0.043
0.090
0.037
-0.001
-0.205
0.052
0.078
-0.058
-0.125
0.070
-0.024
-0.056
-0.087
0.071
-0.028
-0.127
-0.623
0.123
1.195
0.057
-0.445
-0.385
-0.164
-0.118
0.053
0.114
0.114
0.047
0.048
-0.025
-0.192
-0.094
-0.028
-0.032
-0.077
0.008
-0.025
-0.187
-0.300
0.171
0.370
-0.136
0.019
0.120
0.160
-0.108
-0.205
-0.072
0.028
-0.083
0.067
-0.050
-0.166
0.189
0.043
-0.165
0.116
-0.041
-0.128
0.006
0.060
-0.127
-0.194
0.154
0.108
0.014
-0.202
-0.023
-0.110
-0.093
-0.151
0.275
0.010
-0.218
-0.033
0.189
-0.126
-0.162
-0.141
0.020
0.138
0.012
-0.063
-0.298
0.327
0.264
-0.192
-0.329
-0.096
0.088
0.075
-0.046
-0.149
0.143
0.005
-0.042
-0.130
-0.022
-0.099
0.120
0.005
-0.143
0.047
0.195
-0.005
-0.074
-0.348
-0.155
0.347
-0.151
0.133
-0.010
-0.124
0.102
-0.224
-0.345
0.251
0.463
0.184
-0.231
-0.161
-0.058
-0.040
0.045
-0.006
-0.062
-0.033
-0.021
-0.213
0.082
0.074
-0.079
-0.085
0.016
0.023
0.037
0.066
-0.038
-0.334
-0.192
0.019
0.521
0.242
-0.159
-0.361
-0.003
-0.004
-0.074
-0.056
0.295
-0.087
-0.204
-0.006
-0.146
-0.118
0.701
0.039
-0.396
-0.033
-0.105
0.082
-0.116
0.051
-0.016
0.049
-0.010
-0.032
-0.054
0.009
-0.155
-0.136
0.361
0.036
-0.134
-0.165
-0.065
-0.064
-0.094
-0.096
0.101
0.117
-0.077
-0.098
0.325
-0.027
-0.463
-0.149
0.431
-0.014
-0.256
-0.124
-0.009
0.074
0.092
-0.035
-0.001
-0.001
0.026
-0.017
-0.142
-0.145
0.283
0.016
-0.186
-0.085
-0.078
0.031
0.194
0.015
-0.281
-0.304
-0.010
0.447
0.079
-0.370
-0.149
0.177
0.107
-0.081
-0.073
-0.155
0.011
-0.110
0.014
0.062
0.306
-0.138
0.092
0.106
-0.227
-0.241
-0.219
0.099
0.063
0.090
0.100
-0.121
-0.067
-0.009
-0.075
-0.139
0.088
0.086
-0.220
-0.143
0.429
0.052
-0.124
0.054
-0.331
-0.054
0.486
0.086
-0.291
-0.218
-0.008
0.016
0.061
0.037
-0.017
-0.043
0.042
-0.067
0.108
-0.104
-0.210
-0.023
0.072
0.062
0.088
-0.049
0.031
-0.108
-0.511
0.323
0.194
0.018
0.032
-0.043
-0.198
-0.351
0.294
0.103
-0.051
-0.067
0.004
-0.113
-0.257
0.307
0.289
-0.128
-0.151
-0.120
0.211
-0.145
-0.231
-0.028
0.221
0.012
-0.023
0.011
0.028
-0.084
-0.124
-0.045
0.214
-0.096
-0.104
0.130
-0.026
-0.154
-0.123
-0.244
0.553
0.494
-0.276
-0.492
0.031
0.119
0.017
-0.105
-0.091
-0.108
-0.022
0.108
0.087
-0.147
-0.167
-0.036
-0.139
-0.006
0.227
-0.067
-0.150
-0.063
-0.198
0.309
0.053
-0.007
-0.025
-0.013
-0.076
-0.038
-0.011
0.024
0.058
0.008
-0.031
-0.168
0.163
-0.113
0.112
-0.023
0.022
-0.269
-0.065
0.163
0.025
-0.265
-0.044
0.377
0.055
-0.138
-0.219
-0.006
0.066
-0.109
-0.121
0.188
0.054
0.117
-0.119
-0.121
-0.199
-0.126
0.026
0.247
-0.018
-0.229
0.170
0.112
-0.102
-0.234
-0.045
0.021
0.121
-0.044
0.044
-0.069
-0.238
-0.071
-0.201
0.245
0.374
0.029
-0.307
-0.154
-0.132
0.023
0.136
0.116
-0.241
-0.061
0.330
0.169
-0.135
-0.211
-0.194
0.095
-0.028
0.047
-0.001
0.018
-0.032
-0.211
-0.055
0.052
-0.107
0.142
0.170
0.050
-0.128
-0.026
-0.122
-0.053
0.022
-0.028
0.119
-0.070
-0.186
0.010
0.222
-0.056
-0.214
-0.807
0.237
0.788
-0.007
-0.092
-0.128
-0.099
-0.110
-0.134
0.014
-0.030
0.184
0.263
-0.140
-0.215
0.005
0.039
-0.129
0.028
0.022
-0.031
-0.080
-0.132
-0.122
-0.043
0.089
0.283
0.140
-0.180
-0.223
-0.209
-0.076
0.046
-0.092
0.233
0.235
-0.293
-0.263
0.186
0.223
0.002
-0.160
-0.277
-0.078
0.261
0.144
0.019
-0.116
-0.052
-0.114
-0.395
0.286
0.424
-0.086
-0.313
-0.229
0.045
0.155
0.144
-0.139
-0.010
-0.089
-0.095
0.016
-0.102
-0.077
0.239
0.112
-0.154
-0.045
-0.129
0.048
-0.094
-0.028
-0.056
0.052
0.006
0.029
0.045
-0.174
-0.021
-0.082
-0.170
-0.287
0.474
0.103
-0.358
-0.264
0.214
0.255
0.036
-0.163
-0.302
-0.352
0.172
0.624
-0.063
-0.167
-0.145
0.072
-0.094
0.006
-0.031
-0.178
-0.019
0.201
-0.154
-0.077
0.002
-0.115
-0.034
0.017
0.007
-0.348
-0.051
0.483
-0.052
-0.012
-0.136
0.004
-0.223
-0.220
-0.099
0.368
0.163
-0.077
-0.185
-0.124
-0.047
-0.079
-0.037
0.023
-0.066
-0.093
-0.038
-0.054
0.028
-0.008
-0.156
-0.037
0.191
0.049
-0.118
-0.055
-0.207
-0.004
-0.280
-0.194
0.816
0.003
-0.380
0.034
0.157
-0.245
-0.362
-0.084
0.160
-0.038
0.046
-0.034
-0.010
0.036
-0.059
-0.094
-0.144
-0.280
0.246
0.135
-0.145
-0.232
-0.173
0.056
0.249
-0.085
-0.042
-0.119
0.057
-0.289
-0.417
0.586
0.383
-0.237
-0.019
0.016
-0.256
-0.125
0.217
-0.054
-0.133
0.201
-0.037
-0.038
0.185
-0.002
-0.243
-0.225
-0.111
-0.111
0.144
-0.046
0.028
0.022
0.033
-0.122
-0.102
0.022
0.277
-0.070
-0.066
-0.072
-0.097
-0.134
-0.133
0.267
0.218
-0.269
0.098
0.039
-0.132
-0.104
0.033
-0.030
0.045
-0.235
0.048
0.038
-0.081
-0.110
-0.012
0.140
-0.097
0.100
0.070
-0.087
-0.067
0.019
0.157
-0.086
-0.134
-0.150
0.214
-0.294
0.172
0.092
0.298
0.079
-0.306
-0.123
-0.060
0.023
-0.003
0.000
-0.044
-0.059
0.140
0.066
0.096
0.033
-0.202
-0.091
-0.162
-0.082
0.172
-0.038
0.027
0.026
-0.038
0.081
-0.186
0.047
0.212
-0.036
-0.508
0.022
0.472
-0.167
-0.474
0.178
0.202
-0.118
-0.019
0.137
-0.032
-0.079
-0.259
-0.051
0.153
-0.010
0.013
-0.073
-0.135
-0.036
-0.044
0.251
0.001
0.193
-0.200
-0.374
-0.209
0.082
0.300
0.158
-0.143
-0.130
0.190
-0.071
0.125
-0.017
-0.115
-0.023
-0.091
-0.012
-0.093
-0.050
0.084
-0.045
-0.275
0.007
0.232
0.035
-0.120
-0.244
-0.071
0.023
0.084
0.208
-0.172
-0.141
0.056
0.052
0.033
0.047
-0.129
-0.027
0.135
-0.158
0.046
-0.138
-0.049
-0.118
-0.051
0.098
0.161
-0.154
-0.143
0.269
-0.029
-0.310
-0.415
0.458
0.493
-0.303
-0.375
0.285
-0.007
-0.209
-0.006
0.075
-0.420
0.261
0.464
-0.086
-0.276
-0.178
-0.036
0.029
0.027
-0.014
-0.031
0.131
0.072
-0.081
-0.065
0.008
-0.184
0.120
-0.066
-0.092
0.073
0.236
-0.069
-0.151
-0.027
-0.005
-0.005
-0.183
0.297
-0.037
-0.005
-0.071
-0.072
-0.018
0.019
-0.105
-0.042
0.008
-0.094
-0.018
-0.011
-0.200
0.108
0.269
0.099
-0.406
-0.436
0.229
0.498
-0.073
0.133
-0.219
0.002
-0.033
-0.087
-0.073
0.043
0.065
-0.176
0.137
0.097
-0.054
-0.153
-0.150
0.016
-0.040
0.003
0.175
-0.062
-0.236
-0.043
0.003
0.025
-0.129
-0.051
0.114
0.209
-0.159
-0.177
-0.077
-0.016
0.015
-0.095
-0.008
0.219
-0.103
-0.192
0.312
0.057
-0.112
0.007
-0.190
-0.028
0.006
-0.009
0.054
-0.109
0.042
-0.374
0.245
0.353
-0.188
-0.055
-0.371
0.067
0.068
-0.118
0.225
-0.038
-0.031
-0.112
0.182
-0.271
0.157
0.029
-0.027
0.065
-0.130
-0.054
-0.121
-0.013
0.070
-0.057
-0.059
0.052
-0.001
-0.091
0.131
-0.058
-0.111
-0.124
-0.066
0.096
0.003
0.070
0.141
-0.111
-0.171
0.238
0.138
-0.224
-0.241
0.246
0.033
-0.091
-0.037
-0.083
0.064
0.242
-0.026
-0.395
-0.145
0.045
0.029
-0.003
-0.041
0.110
0.032
-0.180
-0.126
-0.088
-0.094
0.139
-0.273
0.485
0.440
-0.118
-0.476
-0.252
-0.109
0.192
-0.049
0.157
0.063
0.038
-0.064
-0.127
-0.197
-0.202
0.207
-0.085
-0.278
0.209
0.371
0.011
-0.330
-0.099
-0.151
-0.110
0.199
0.026
0.080
0.057
-0.220
-0.053
-0.025
-0.006
0.168
-0.030
-0.169
-0.211
-0.013
-0.025
0.120
0.239
-0.280
-0.004
-0.014
-0.029
-0.061
-0.031
0.003
-0.009
-0.018
-0.020
-0.020
-0.115
-0.318
0.434
0.315
-0.184
-0.231
-0.223
-0.014
-0.016
0.016
0.132
-0.100
0.058
0.043
0.142
-0.108
-0.402
0.059
0.376
-0.091
-0.149
-0.170
0.065
0.133
-0.141
0.060
0.078
-0.037
0.013
-0.100
-0.192
-0.060
0.291
-0.009
-0.052
-0.110
-0.178
0.110
-0.110
-0.130
0.197
-0.033
-0.057
0.034
-0.167
0.022
-0.076
0.056
0.008
-0.247
-0.021
0.281
-0.092
0.160
-0.112
-0.142
-0.111
0.113
-0.153
-0.248
0.353
0.270
-0.050
-0.364
-0.160
-0.057
-0.001
0.197
0.005
-0.172
-0.132
-0.057
0.034
-0.031
-0.042
0.016
-0.025
0.000
-0.140
-0.180
0.239
0.150
-0.089
-0.298
0.053
0.032
-0.182
0.155
0.237
-0.036
-0.186
-0.184
-0.010
-0.049
-0.109
0.014
0.082
-0.055
0.099
0.002
-0.027
-0.225
-0.027
0.023
-0.102
-0.164
0.302
-0.365
0.218
0.236
-0.206
0.239
-0.032
-0.232
-0.382
0.048
0.252
0.075
-0.102
-0.057
-0.023
-0.233
0.221
0.280
-0.132
-0.276
-0.136
-0.044
-0.071
-0.135
0.181
0.219
-0.071
-0.062
-0.189
-0.166
0.240
-0.179
0.223
0.022
-0.235
-0.181
-0.239
-0.411
0.645
0.336
-0.184
0.055
-0.110
-0.215
-0.188
0.033
0.119
0.142
-0.004
-0.130
-0.081
0.161
-0.044
-0.049
-0.214
-0.137
-0.025
0.103
0.094
0.050
0.008
-0.037
-0.162
-0.269
-0.054
0.019
0.149
0.211
-0.042
-0.201
-0.243
-0.141
0.081
0.096
0.089
-0.171
-0.143
-0.139
0.295
0.119
-0.215
-0.199
-0.043
0.044
0.038
-0.001
-0.118
-0.040
-0.043
0.176
-0.212
0.181
-0.100
-0.388
-0.090
0.441
0.103
-0.216
-0.180
0.155
0.056
-0.136
-0.032
-0.141
0.082
-0.003
0.040
-0.010
-0.013
-0.037
0.089
-0.018
-0.192
-0.009
0.113
0.019
-0.095
-0.157
0.096
0.122
-0.317
-0.058
0.161
-0.046
0.072
0.056
-0.284
-0.164
0.026
0.089
0.390
-0.064
-0.118
-0.335
-0.399
0.093
0.563
0.404
-0.172
-0.373
-0.187
-0.019
0.062
0.052
0.070
-0.065
-0.006
-0.065
-0.080
-0.026
-0.017
-0.145
0.068
-0.118
-0.000
0.003
0.080
-0.094
-0.196
0.038
0.053
-0.103
-0.062
0.074
0.019
0.049
-0.128
-0.044
0.287
-0.072
-0.055
-0.113
-0.274
0.083
0.426
-0.131
-0.158
0.194
-0.102
-0.220
-0.245
0.153
-0.033
-0.145
0.126
0.073
-0.092
-0.186
-0.125
0.067
-0.055
0.049
0.006
-0.031
0.023
-0.060
-0.034
-0.058
-0.030
-0.051
0.048
-0.120
-0.126
0.020
-0.085
0.309
0.051
-0.240
-0.080
-0.019
-0.119
0.035
-0.100
-0.148
0.312
0.300
-0.192
-0.110
-0.216
-0.163
-0.189
0.061
0.300
-0.165
-0.315
0.353
0.110
-0.045
-0.218
-0.146
-0.149
0.243
0.004
-0.321
0.102
0.258
0.060
-0.291
-0.131
0.037
-0.186
-0.062
0.328
0.022
-0.176
-0.121
-0.012
0.260
0.024
-0.286
0.173
-0.068
0.031
0.046
-0.083
-0.121
0.087
0.192
-0.099
-0.145
-0.092
0.148
-0.214
-0.050
0.111
-0.017
-0.165
-0.109
0.026
0.548
0.183
-0.327
-0.246
-0.111
-0.050
0.017
0.216
-0.062
0.016
-0.061
-0.417
-0.156
0.529
0.098
-0.180
-0.107
-0.185
-0.065
-0.032
-0.051
0.299
0.033
0.154
-0.012
-0.060
-0.177
-0.071
-0.070
0.087
0.128
0.092
-0.006
0.056
-0.067
-0.113
0.057
0.055
0.019
-0.052
-0.361
0.016
0.144
0.033
-0.015
-0.179
0.077
-0.225
0.177
0.385
-0.174
-0.291
0.025
-0.095
0.049
0.095
-0.036
-0.060
0.011
-0.268
-0.116
0.417
-0.203
-0.263
0.456
-0.108
-0.293
-0.205
-0.074
0.308
-0.016
0.076
-0.063
-0.050
-0.024
-0.026
0.052
-0.032
-0.131
-0.270
0.333
-0.006
-0.186
-0.088
0.056
-0.029
-0.064
-0.069
-0.084
-0.288
0.315
0.384
-0.090
-0.216
-0.257
-0.094
0.263
-0.088
0.190
0.045
-0.158
-0.010
-0.078
-0.153
0.123
0.097
-0.151
0.087
0.080
0.027
0.008
-0.117
-0.196
-0.095
0.034
-0.030
-0.052
0.017
-0.020
0.012
-0.067
0.004
-0.047
-0.139
0.102
-0.012
-0.023
-0.065
-0.102
-0.065
-0.045
-0.021
0.200
0.131
0.104
-0.367
-0.154
0.246
0.115
-0.352
-0.104
0.262
0.053
0.022
-0.040
-0.096
-0.070
0.006
-0.004
0.042
-0.157
0.135
0.046
-0.185
-0.076
-0.070
-0.199
0.308
0.388
-0.060
-0.297
-0.246
-0.065
0.182
0.018
0.051
-0.000
-0.086
-0.133
-0.170
0.150
-0.063
-0.065
-0.149
0.344
0.008
-0.192
-0.023
-0.070
0.134
-0.028
0.029
-0.111
-0.099
0.068
-0.188
0.156
0.156
-0.124
-0.107
0.014
0.113
-0.142
-0.288
-0.086
0.206
0.107
-0.045
-0.058
-0.060
-0.007
-0.294
-0.091
0.210
0.228
-0.001
0.039
-0.293
0.074
0.090
-0.120
-0.395
0.385
0.302
-0.014
-0.195
-0.077
-0.079
-0.211
-0.120
0.112
0.161
-0.041
-0.356
-0.117
0.371
0.198
-0.187
-0.254
0.058
-0.110
-0.248
0.199
0.347
0.017
-0.193
-0.167
-0.078
0.274
0.099
-0.041
-0.099
-0.059
0.020
-0.048
-0.041
0.042
-0.168
-0.078
0.055
0.149
-0.044
-0.130
0.001
-0.072
0.062
-0.078
-0.090
-0.108
0.372
-0.141
-0.176
0.009
-0.042
0.174
-0.083
-0.172
-0.170
0.335
-0.045
-0.125
0.232
-0.109
-0.143
0.066
-0.153
0.041
0.030
-0.008
-0.007
-0.048
0.284
-0.029
-0.277
-0.126
-0.062
-0.050
-0.010
0.013
0.086
-0.125
0.013
-0.306
-0.030
0.719
-0.093
-0.199
-0.267
-0.146
0.346
0.150
-0.112
-0.028
-0.021
0.031
0.016
-0.060
-0.153
-0.027
-0.003
-0.010
0.077
-0.053
-0.091
0.035
-0.192
-0.077
0.116
0.012
0.156
-0.040
-0.222
0.012
0.264
0.120
-0.151
-0.129
0.061
0.033
-0.295
-0.223
0.348
0.233
-0.276
-0.410
0.065
-0.115
0.271
0.201
-0.061
-0.247
-0.115
0.181
0.096
-0.070
-0.151
-0.276
0.056
0.471
-0.238
-0.205
0.154
-0.057
-0.121
-0.058
0.127
-0.045
0.065
0.031
-0.091
-0.049
0.137
0.115
-0.301
-0.036
0.024
0.006
0.023
0.020
0.030
0.040
-0.216
0.056
0.223
0.194
-0.256
-0.124
-0.034
-0.126
-0.067
-0.004
0.061
0.019
-0.184
0.039
0.003
-0.051
0.148
-0.011
-0.237
-0.188
0.077
-0.093
0.265
-0.041
-0.030
0.010
-0.024
-0.159
0.057
0.095
-0.060
-0.074
-0.161
-0.006
0.013
-0.069
0.087
-0.026
-0.082
-0.102
-0.056
-0.164
0.248
0.066
-0.070
-0.186
0.086
0.094
0.047
-0.045
-0.448
0.216
0.370
-0.184
0.007
-0.147
0.036
0.117
-0.240
-0.239
-0.101
0.104
0.248
-0.018
-0.125
-0.058
-0.140
-0.096
0.092
0.138
-0.034
-0.188
-0.063
-0.238
0.277
0.553
-0.216
-0.527
-0.352
0.452
0.250
-0.097
-0.136
-0.097
0.044
-0.054
0.017
-0.044
0.102
0.124
-0.020
-0.036
-0.222
-0.102
0.021
-0.024
-0.016
-0.004
-0.051
-0.024
0.008
0.164
-0.072
-0.024
-0.147
-0.093
-0.346
-0.143
0.617
0.270
-0.152
-0.315
-0.139
-0.070
-0.059
0.033
-0.088
0.183
0.304
-0.177
-0.064
-0.047
-0.019
-0.028
-0.130
-0.010
0.160
-0.149
-0.094
-0.048
0.387
0.218
-0.358
-0.185
0.025
0.137
-0.018
0.022
-0.045
0.029
0.041
0.083
-0.265
-0.157
0.264
0.129
-0.108
-0.109
-0.025
-0.059
-0.121
-0.375
0.175
0.273
0.211
-0.261
-0.073
-0.067
-0.166
0.140
0.014
-0.163
0.014
-0.102
0.008
0.013
0.043
-0.149
-0.264
0.212
0.033
0.021
-0.048
-0.155
-0.230
-0.124
0.599
0.161
-0.193
-0.146
-0.081
-0.073
-0.100
0.241
-0.033
-0.033
0.082
0.035
-0.132
-0.048
-0.014
-0.048
0.128
-0.146
-0.017
0.135
-0.076
-0.148
-0.015
0.060
0.021
0.154
-0.011
-0.457
0.158
0.372
-0.061
-0.195
-0.298
-0.235
0.308
0.043
0.084
-0.347
-0.073
0.085
0.089
0.216
-0.348
-0.145
-0.048
-0.074
0.156
0.049
-0.002
-0.074
0.150
-0.026
-0.135
-0.214
-0.065
0.157
0.054
-0.117
0.002
-0.073
-0.123
-0.201
-0.169
0.590
0.076
-0.161
-0.075
-0.168
-0.111
-0.144
0.061
0.029
-0.080
0.248
0.092
-0.099
-0.249
-0.087
0.001
0.051
-0.117
0.033
-0.055
-0.063
0.015
0.042
-0.010
0.186
-0.040
-0.029
0.046
-0.150
-0.136
0.009
-0.030
0.079
-0.039
0.008
-0.040
-0.158
0.034
-0.028
-0.319
-0.061
0.396
0.045
-0.138
-0.146
-0.218
-0.495
0.232
0.557
-0.249
-0.292
0.366
0.181
-0.213
-0.286
0.183
0.036
-0.179
-0.319
0.141
0.282
-0.077
-0.120
-0.144
0.117
0.087
-0.089
-0.011
-0.100
-0.132
0.150
0.172
-0.216
-0.145
0.018
0.012
-0.001
0.004
-0.053
0.094
0.045
-0.131
-0.170
0.114
0.040
-0.103
-0.201
0.012
0.116
0.468
-0.265
-0.262
-0.149
-0.014
0.161
-0.149
-0.122
0.457
-0.027
-0.223
-0.267
-0.074
0.196
-0.012
-0.035
0.002
-0.100
0.001
0.068
0.102
-0.006
-0.216
-0.043
-0.136
-0.035
0.104
0.069
-0.020
-0.182
-0.142
-0.132
0.063
0.033
-0.107
0.007
0.062
-0.035
0.080
-0.293
-0.154
0.607
-0.091
-0.345
-0.156
-0.158
0.112
0.154
-0.114
0.283
0.013
-0.180
-0.086
-0.040
-0.339
-0.128
0.320
0.206
0.015
-0.180
-0.113
-0.100
-0.105
0.012
0.051
0.058
0.048
-0.254
0.116
0.083
-0.211
0.148
0.074
-0.146
-0.118
-0.094
-0.058
0.084
0.053
-0.083
-0.045
-0.035
-0.100
0.058
0.009
-0.030
0.004
-0.304
-0.012
0.322
-0.169
-0.322
0.092
0.393
-0.009
-0.125
-0.114
-0.152
0.042
0.160
-0.120
-0.066
-0.021
0.024
-0.102
0.034
0.102
0.012
-0.011
-0.089
-0.050
-0.160
-0.138
0.111
-0.393
0.225
0.392
0.017
0.036
-0.043
-0.312
-0.292
0.072
0.049
0.095
-0.008
0.098
0.042
-0.077
-0.056
-0.051
-0.026
-0.102
-0.013
0.013
-0.184
-0.133
0.317
0.051
-0.018
-0.055
-0.276
-0.006
0.026
0.032
0.094
0.011
-0.065
-0.022
-0.025
-0.391
0.221
0.292
-0.147
0.021
-0.088
0.123
-0.053
-0.069
0.049
0.071
-0.371
0.148
0.261
-0.001
-0.093
-0.117
-0.261
-0.241
0.182
0.078
-0.015
0.021
-0.312
0.097
0.389
-0.109
-0.206
-0.105
-0.213
0.081
0.050
0.099
0.008
-0.010
-0.015
0.054
-0.230
-0.068
0.047
-0.071
-0.075
-0.115
0.046
0.133
-0.105
-0.409
0.268
0.351
-0.144
0.119
-0.064
-0.057
-0.090
0.026
-0.176
0.124
0.142
0.057
-0.115
-0.143
0.030
-0.083
0.157
-0.249
0.015
0.209
-0.099
-0.191
-0.189
0.133
0.135
-0.014
-0.166
-0.017
-0.104
0.002
0.101
0.095
-0.168
-0.102
0.015
-0.009
-0.101
-0.043
0.189
-0.092
-0.111
0.081
-0.069
0.001
-0.055
0.156
0.205
-0.035
-0.208
-0.145
-0.055
-0.002
0.138
-0.027
-0.058
-0.054
-0.132
-0.005
0.082
0.171
-0.000
-0.274
-0.273
0.028
0.175
-0.086
-0.011
0.023
0.071
0.043
-0.024
0.052
-0.225
0.055
0.227
-0.165
-0.344
-0.124
0.314
0.234
-0.031
-0.136
0.047
-0.057
0.044
-0.059
-0.077
0.014
-0.208
0.146
-0.137
-0.135
0.344
-0.003
-0.333
-0.276
0.330
0.013
-0.071
-0.035
-0.075
-0.230
0.105
0.128
0.040
-0.124
-0.238
0.104
0.055
-0.084
-0.030
-0.223
-0.119
0.303
0.009
-0.121
-0.198
0.228
0.110
0.125
-0.316
-0.068
-0.044
-0.035
-0.078
0.146
0.047
0.018
-0.089
-0.385
-0.292
0.704
0.350
-0.403
-0.326
-0.037
0.062
-0.018
-0.086
-0.019
-0.016
-0.071
0.083
0.172
-0.052
-0.022
-0.073
-0.150
-0.218
-0.046
0.112
0.108
-0.196
0.177
0.096
-0.163
0.063
0.324
-0.173
-0.160
-0.009
-0.081
-0.086
0.021
0.029
0.030
0.049
-0.051
-0.101
-0.105
-0.094
-0.010
-0.176
0.026
0.056
-0.134
-0.088
-0.197
-0.045
0.403
0.385
-0.137
-0.417
-0.159
-0.083
-0.089
0.129
0.323
0.306
-0.177
-0.383
0.059
0.129
0.015
-0.063
-0.059
-0.070
0.059
0.021
-0.026
-0.171
-0.212
-0.040
0.144
0.191
0.129
-0.175
-0.371
0.266
-0.052
-0.046
-0.118
0.180
-0.032
-0.148
0.173
-0.021
-0.407
0.167
0.217
-0.195
-0.114
0.106
-0.118
0.218
0.115
-0.151
-0.047
-0.160
-0.088
0.105
0.349
-0.154
-0.276
-0.029
-0.042
0.049
0.008
-0.058
-0.078
0.091
0.000
-0.233
0.157
0.079
-0.315
-0.049
0.360
0.002
-0.182
-0.156
-0.047
0.257
-0.069
0.080
0.019
-0.043
-0.113
-0.056
-0.044
-0.106
0.219
0.031
-0.456
0.333
0.237
-0.114
-0.110
-0.121
-0.064
0.098
0.048
-0.074
-0.058
0.084
-0.067
-0.028
-0.018
-0.013
-0.226
-0.068
0.342
-0.033
-0.015
-0.164
0.032
-0.216
-0.047
-0.082
0.076
0.109
0.059
-0.245
-0.198
0.269
-0.073
-0.103
-0.022
-0.014
-0.306
-0.510
0.516
0.562
-0.232
-0.042
-0.268
-0.098
0.120
0.080
-0.059
0.097
-0.049
-0.167
-0.060
0.078
-0.022
0.012
-0.143
-0.011
-0.213
0.037
-0.060
0.077
0.126
-0.238
0.073
0.033
-0.076
-0.061
-0.083
0.125
0.171
-0.100
-0.188
-0.064
-0.087
-0.047
0.192
0.157
-0.040
-0.186
0.027
-0.024
0.120
-0.160
-0.052
-0.157
-0.086
0.136
0.005
0.231
0.018
-0.204
-0.153
-0.026
0.053
0.046
0.084
-0.040
-0.016
-0.132
-0.100
-0.018
0.181
-0.204
-0.239
0.387
0.094
-0.218
-0.064
-0.006
-0.049
0.059
0.039
0.038
0.014
-0.113
0.041
0.173
0.004
-0.099
-0.121
-0.010
0.006
0.012
-0.024
-0.018
-0.230
0.244
0.086
-0.358
0.072
-0.094
0.216
0.140
-0.003
-0.620
-0.192
0.880
0.151
-0.266
-0.221
-0.177
0.333
-0.013
-0.183
-0.021
0.125
-0.167
0.121
-0.212
0.032
0.013
0.067
-0.092
-0.104
-0.101
0.090
0.034
-0.223
0.070
0.224
-0.118
-0.069
-0.201
0.227
0.021
0.059
-0.039
-0.096
0.007
0.004
-0.075
-0.057
0.076
0.102
-0.071
-0.068
0.020
0.038
0.150
-0.091
0.023
-0.255
-0.072
0.104
-0.154
0.155
0.278
-0.179
-0.292
-0.162
-0.007
0.251
0.037
-0.142
0.077
-0.035
-0.025
-0.084
-0.116
0.190
0.084
0.066
-0.155
-0.055
-0.063
-0.009
-0.082
-0.028
-0.061
0.074
-0.088
-0.047
-0.052
-0.007
0.132
0.033
-0.122
-0.100
-0.355
0.307
0.301
0.129
-0.096
-0.233
-0.206
-0.202
0.281
-0.011
-0.115
-0.035
0.135
0.072
-0.126
-0.076
0.069
-0.079
-0.182
0.186
0.135
-0.335
-0.213
0.281
0.094
-0.124
-0.108
0.031
-0.116
-0.187
0.440
0.139
-0.205
-0.242
0.019
0.006
-0.217
-0.029
0.070
-0.022
0.058
-0.085
-0.177
-0.009
0.058
-0.018
-0.152
0.076
-0.003
-0.143
0.011
0.126
-0.014
-0.157
-0.183
0.223
-0.133
0.144
0.135
-0.074
-0.002
-0.190
-0.136
0.201
-0.026
-0.364
0.613
0.265
-0.202
-0.301
-0.204
-0.059
0.047
0.127
-0.052
-0.048
0.040
0.086
-0.068
-0.071
-0.094
-0.034
0.018
-0.116
-0.192
0.003
0.284
-0.053
-0.258
-0.084
0.143
0.215
-0.214
-0.156
-0.113
0.073
0.074
0.084
-0.126
-0.215
-0.192
0.360
0.069
-0.054
-0.131
-0.516
0.027
0.420
0.156
-0.147
-0.245
-0.243
0.140
-0.098
0.037
0.044
-0.064
-0.042
0.055
-0.101
-0.236
0.196
0.101
0.190
-0.066
-0.226
-0.073
-0.020
0.025
-0.082
-0.112
0.085
0.163
-0.110
-0.104
-0.137
-0.152
0.044
0.215
0.021
-0.195
-0.027
-0.034
-0.268
-0.036
0.023
0.070
-0.116
-0.179
-0.038
0.406
-0.044
-0.328
0.092
0.212
-0.438
-0.096
0.235
0.125
-0.268
-0.266
0.273
0.179
0.194
-0.233
-0.205
-0.236
0.048
0.014
0.075
-0.058
0.084
-0.030
-0.017
-0.061
-0.025
-0.091
0.182
-0.029
-0.078
-0.075
0.002
0.005
0.041
-0.122
-0.124
0.172
-0.042
0.026
-0.041
-0.036
-0.124
-0.236
0.328
-0.079
-0.179
0.202
-0.142
-0.013
0.102
-0.086
-0.163
-0.165
0.195
0.154
0.086
-0.243
-0.295
0.363
-0.013
-0.106
-0.056
0.041
-0.330
-0.245
0.555
0.107
-0.136
-0.267
-0.161
-0.002
0.056
0.038
-0.083
-0.013
0.186
0.028
-0.006
-0.104
0.032
0.016
-0.276
0.016
0.234
0.010
-0.087
-0.090
-0.044
0.010
-0.017
-0.039
0.009
-0.056
-0.099
-0.059
-0.356
0.301
0.359
-0.081
-0.368
-0.397
0.383
0.256
-0.154
-0.194
-0.222
0.020
0.367
0.033
-0.063
-0.087
-0.077
-0.020
-0.141
0.208
0.141
-0.219
-0.076
0.059
-0.011
-0.191
-0.242
0.356
0.226
-0.339
-0.034
0.056
-0.206
0.164
0.074
-0.117
-0.053
-0.002
-0.042
0.018
-0.069
0.030
0.080
0.014
-0.095
-0.052
0.151
-0.082
-0.076
0.186
-0.065
-0.124
-0.145
-0.037
-0.099
0.153
-0.051
0.085
0.213
-0.060
-0.210
-0.469
0.198
0.418
0.047
-0.218
-0.154
0.095
-0.066
-0.119
0.039
0.023
-0.030
0.052
-0.168
-0.104
0.275
-0.124
-0.241
0.079
0.149
0.024
-0.168
0.085
-0.088
-0.155
0.162
-0.039
-0.423
0.551
0.150
-0.250
-0.193
-0.105
0.123
-0.033
-0.077
-0.289
0.110
0.249
0.379
-0.116
-0.206
-0.185
0.015
0.119
-0.238
0.036
0.174
-0.051
-0.196
-0.132
0.037
-0.068
0.042
-0.023
-0.174
0.058
-0.065
-0.206
-0.096
0.081
0.082
0.186
0.078
0.072
-0.251
-0.168
0.167
-0.143
-0.165
0.012
-0.022
0.143
0.232
-0.066
-0.318
-0.027
-0.100
-0.018
-0.104
-0.103
0.193
-0.155
-0.051
0.180
-0.040
-0.196
-0.163
-0.096
-0.067
0.217
0.120
0.192
-0.178
-0.199
-0.141
-0.110
-0.210
-0.048
0.414
0.217
-0.143
-0.229
-0.253
0.430
-0.114
-0.062
0.141
-0.144
0.038
-0.151
-0.134
0.063
0.025
-0.276
-0.289
0.291
0.480
-0.148
-0.197
-0.231
-0.005
-0.003
-0.018
0.131
0.086
0.000
-0.046
0.002
-0.074
-0.054
0.019
-0.026
-0.039
-0.182
-0.032
0.162
-0.346
-0.038
0.267
-0.169
0.004
0.011
-0.434
0.175
0.410
0.253
-0.263
-0.235
-0.155
0.018
0.010
-0.114
0.178
0.107
-0.135
0.053
-0.227
0.039
0.152
-0.117
-0.038
0.063
-0.060
-0.080
0.119
0.004
-0.024
0.047
-0.175
-0.158
0.386
0.123
-0.122
-0.230
-0.021
-0.169
-0.181
0.074
0.325
0.204
-0.135
-0.315
-0.247
0.145
0.254
0.024
-0.154
-0.146
0.111
0.014
-0.080
-0.151
-0.081
0.055
-0.038
0.010
0.008
-0.053
-0.036
-0.137
-0.025
0.039
-0.006
0.004
-0.037
0.008
-0.050
0.062
-0.324
-0.376
0.583
-0.168
0.267
0.238
-0.103
-0.167
-0.150
-0.140
-0.009
-0.098
0.117
-0.031
0.176
0.268
-0.174
-0.189
-0.058
-0.113
-0.117
-0.030
0.087
-0.095
-0.025
0.070
-0.132
-0.075
0.400
-0.001
-0.163
-0.074
-0.057
-0.010
-0.175
-0.263
0.375
0.460
-0.389
-0.061
0.292
-0.228
-0.267
-0.069
0.155
0.095
-0.113
-0.020
-0.177
-0.099
0.270
0.157
-0.200
-0.066
0.055
-0.132
-0.142
-0.020
0.006
0.177
-0.058
-0.039
-0.082
0.015
-0.005
0.075
-0.080
-0.189
-0.151
0.244
0.161
-0.161
-0.116
0.092
0.115
-0.116
-0.102
0.017
0.108
-0.107
-0.246
0.038
0.376
0.048
-0.449
-0.047
0.315
0.031
-0.164
-0.152
0.011
0.041
0.036
-0.052
0.000
-0.014
0.034
0.018
-0.051
0.035
-0.443
0.303
0.389
-0.246
-0.407
0.152
0.125
-0.211
-0.100
-0.042
0.088
0.426
-0.016
-0.214
-0.451
-0.021
0.556
0.103
-0.253
-0.196
-0.163
0.047
0.016
-0.028
-0.071
0.007
0.073
0.072
-0.012
-0.117
-0.196
-0.074
-0.002
0.138
0.075
-0.020
-0.118
-0.042
-0.042
-0.092
0.227
0.116
0.024
0.012
-0.475
-0.455
0.673
0.357
-0.151
-0.134
-0.240
-0.256
0.162
0.034
0.333
0.209
-0.272
-0.291
-0.051
-0.062
0.121
0.008
-0.088
-0.260
-0.356
0.219
0.443
-0.061
-0.237
-0.107
-0.066
-0.091
0.057
0.174
0.050
-0.408
0.190
0.107
-0.122
0.155
-0.199
-0.121
-0.081
-0.002
-0.027
0.114
-0.040
0.015
-0.010
0.043
-0.058
-0.066
-0.276
-0.067
0.371
-0.033
-0.277
-0.100
0.000
0.005
0.012
-0.087
-0.145
0.042
0.057
-0.068
-0.101
-0.027
0.004
-0.152
-0.148
0.196
0.229
-0.181
-0.196
0.009
0.066
-0.143
-0.104
0.222
-0.417
-0.030
0.363
0.043
-0.256
0.066
-0.152
0.004
0.033
-0.164
-0.088
-0.110
-0.210
0.600
0.170
-0.211
-0.327
-0.125
0.158
0.016
-0.033
-0.104
-0.136
0.080
-0.064
-0.000
-0.011
-0.038
-0.073
-0.124
-0.023
-0.039
0.035
0.042
0.134
-0.088
-0.196
0.100
0.102
-0.067
-0.191
-0.079
-0.081
-0.174
0.253
0.136
0.181
-0.146
-0.285
-0.133
-0.146
-0.041
-0.183
0.229
0.546
-0.070
-0.199
-0.231
-0.264
-0.035
0.289
0.135
-0.072
0.097
-0.140
-0.006
-0.012
-0.073
-0.032
-0.002
-0.005
0.140
-0.031
-0.139
-0.087
-0.037
-0.136
0.024
-0.093
-0.123
0.220
0.015
-0.170
0.263
-0.050
-0.154
0.024
0.018
-0.209
0.008
0.036
0.113
0.090
0.056
-0.087
0.005
-0.067
-0.453
0.389
0.175
0.077
0.021
-0.386
0.091
0.076
-0.014
0.183
-0.194
-0.135
0.134
0.259
-0.093
-0.178
-0.310
-0.333
0.325
0.067
-0.044
-0.006
-0.123
-0.171
0.214
0.141
-0.009
-0.027
-0.073
-0.102
-0.205
0.262
0.195
-0.098
-0.156
-0.085
0.070
0.036
-0.014
-0.065
-0.086
-0.132
0.172
-0.081
-0.307
0.183
0.402
-0.039
-0.271
-0.167
-0.054
0.066
0.180
0.067
-0.126
-0.167
0.135
0.056
-0.095
-0.176
0.184
0.084
0.064
0.027
-0.109
-0.310
-0.392
0.557
0.206
-0.127
0.028
-0.127
-0.059
-0.099
-0.113
-0.070
-0.029
-0.038
-0.048
-0.301
-0.088
0.440
0.227
-0.280
-0.197
-0.127
-0.116
-0.089
0.031
0.036
0.070
0.219
0.102
-0.099
-0.214
-0.159
-0.029
0.001
-0.045
-0.018
0.023
-0.061
-0.119
0.004
0.146
-0.140
-0.111
0.185
-0.077
-0.208
0.098
0.325
-0.164
-0.193
0.154
-0.046
-0.118
-0.071
-0.117
-0.015
0.004
-0.030
-0.262
0.139
0.251
-0.025
-0.071
-0.274
-0.016
0.100
-0.140
-0.222
-0.023
0.066
0.281
0.173
-0.265
-0.291
0.052
0.050
-0.039
-0.044
0.003
0.001
-0.416
0.199
0.574
0.068
-0.220
-0.173
-0.251
0.007
0.004
-0.181
0.126
0.302
-0.197
-0.291
0.186
0.330
-0.061
-0.192
-0.071
-0.162
0.083
0.090
0.135
0.050
0.006
-0.025
-0.016
0.073
-0.240
-0.130
0.188
-0.002
-0.073
-0.119
-0.278
0.143
0.089
-0.132
-0.045
-0.010
0.228
0.003
-0.061
-0.016
-0.070
0.209
0.095
-0.074
-0.336
-0.074
0.344
0.165
-0.212
-0.246
-0.032
0.120
-0.039
-0.089
-0.020
0.097
-0.020
-0.380
0.011
0.335
0.010
-0.176
-0.040
-0.016
0.132
-0.108
-0.310
-0.155
0.396
0.091
0.041
-0.083
-0.379
-0.236
0.390
0.246
-0.120
-0.190
-0.068
-0.016
-0.102
0.076
0.066
-0.042
-0.026
-0.118
0.152
-0.071
-0.074
-0.087
-0.088
-0.440
0.243
0.329
-0.116
-0.232
0.156
-0.100
-0.074
-0.052
0.008
-0.034
-0.290
-0.066
0.416
0.172
-0.129
-0.200
-0.124
-0.140
-0.100
0.224
0.198
-0.141
-0.132
0.011
-0.087
0.046
0.061
-0.348
-0.324
0.543
0.296
-0.177
-0.321
-0.133
-0.219
-0.016
0.170
0.167
-0.098
0.037
-0.087
-0.081
-0.102
-0.017
0.216
-0.029
-0.225
0.111
-0.039
0.129
-0.152
-0.104
0.270
-0.077
-0.254
0.102
0.001
-0.029
-0.079
0.102
0.004
-0.073
0.007
0.020
-0.027
-0.084
-0.114
0.188
-0.358
0.142
0.155
-0.090
-0.015
-0.007
-0.233
-0.228
0.234
0.186
-0.010
-0.162
-0.341
0.379
-0.109
-0.497
-0.087
0.531
0.204
-0.066
-0.355
-0.060
-0.009
0.069
0.138
-0.005
-0.001
-0.170
0.023
0.119
-0.011
-0.177
-0.026
0.246
0.036
-0.185
-0.215
-0.052
-0.102
0.065
0.055
0.023
0.245
-0.033
-0.066
0.056
-0.201
-0.081
-0.070
-0.064
0.049
0.073
-0.059
-0.122
0.008
0.222
0.031
-0.053
-0.153
-0.081
-0.085
-0.176
-0.153
0.103
0.048
-0.045
0.044
-0.105
-0.019
0.024
-0.026
-0.222
-0.034
0.210
-0.017
-0.171
-0.130
0.109
0.066
-0.046
-0.070
-0.183
0.074
0.316
-0.189
-0.188
-0.199
0.110
0.117
-0.121
-0.077
0.127
-0.062
-0.199
0.230
0.031
-0.370
-0.173
0.149
-0.088
0.172
-0.104
-0.202
0.014
-0.031
0.200
-0.127
0.027
0.036
-0.146
-0.225
0.100
0.026
-0.043
-0.126
-0.026
0.136
0.009
-0.031
-0.166
-0.025
0.004
-0.119
0.004
0.066
-0.051
-0.197
0.163
-0.047
-0.196
-0.189
0.300
0.004
-0.287
0.219
0.350
-0.001
-0.088
-0.244
-0.062
0.104
0.137
-0.070
-0.114
0.033
-0.019
0.077
-0.025
-0.015
-0.018
-0.094
-0.060
0.010
-0.138
-0.197
-0.049
0.196
-0.141
0.098
0.347
0.039
-0.230
-0.219
0.036
-0.166
-0.084
0.499
0.148
-0.164
-0.118
-0.113
0.028
-0.040
0.078
-0.081
-0.119
-0.088
0.198
0.098
-0.262
-0.177
0.324
-0.052
-0.326
0.202
-0.017
0.092
0.097
-0.078
-0.224
0.192
0.335
-0.248
-0.168
-0.072
0.012
-0.062
-0.003
0.185
0.296
-0.147
-0.195
-0.279
-0.075
0.070
0.076
-0.068
0.068
-0.036
-0.101
-0.093
0.102
-0.003
-0.144
-0.002
-0.111
0.068
-0.074
-0.025
-0.042
-0.015
-0.119
0.042
0.076
-0.046
0.090
-0.049
-0.379
-0.035
0.420
0.025
-0.198
-0.249
0.285
0.124
-0.069
0.132
-0.135
-0.292
-0.081
0.103
0.161
0.059
-0.040
-0.090
-0.378
-0.190
0.190
0.213
-0.071
-0.080
-0.073
-0.067
-0.014
-0.124
-0.059
0.131
0.183
-0.026
-0.079
-0.114
0.055
-0.056
-0.008
-0.188
0.060
0.152
-0.062
-0.114
-0.049
-0.079
-0.073
0.037
0.129
-0.004
-0.043
-0.060
0.042
-0.194
-0.174
0.349
-0.032
-0.475
0.102
0.503
-0.006
-0.461
-0.110
0.161
0.003
-0.133
0.006
-0.047
-0.019
-0.106
0.172
-0.063
-0.123
0.034
-0.149
0.004
-0.026
-0.212
0.064
0.264
0.038
-0.157
0.058
-0.075
-0.077
-0.193
0.412
0.013
-0.092
-0.197
-0.149
0.059
0.053
-0.135
0.101
-0.093
-0.002
-0.153
0.009
0.021
-0.150
0.121
-0.088
-0.001
0.091
-0.033
-0.149
0.037
-0.080
-0.126
0.050
0.099
-0.099
-0.364
0.146
0.318
0.044
-0.456
0.081
0.280
0.123
-0.289
-0.076
0.069
0.082
0.032
-0.126
-0.066
-0.087
-0.051
-0.000
0.073
-0.011
-0.163
0.028
0.018
-0.231
0.019
0.047
0.108
0.029
-0.036
-0.127
-0.086
-0.096
0.006
0.032
0.050
0.038
-0.082
-0.215
0.230
0.124
-0.359
0.293
0.017
-0.237
-0.074
0.186
0.087
-0.140
-0.025
-0.043
0.118
0.071
-0.024
-0.126
-0.081
0.147
-0.181
-0.091
0.352
-0.026
-0.192
-0.130
-0.003
0.069
-0.073
0.037
0.115
0.064
-0.154
0.004
-0.027
-0.054
-0.006
-0.019
-0.120
0.140
0.064
-0.075
-0.135
0.059
0.062
-0.028
-0.113
-0.044
0.187
0.156
0.001
-0.176
-0.131
-0.057
-0.120
0.063
-0.078
0.351
-0.002
-0.156
-0.144
-0.001
-0.008
0.030
-0.047
0.048
-0.075
0.156
-0.123
0.018
-0.101
-0.118
-0.021
-0.003
0.178
0.088
0.061
-0.044
-0.319
0.107
0.060
-0.046
0.173
0.089
-0.270
-0.062
0.187
-0.104
-0.177
0.029
0.018
0.010
-0.098
0.139
-0.166
-0.131
-0.001
0.015
0.050
-0.140
0.001
0.016
-0.001
-0.390
-0.047
0.492
0.327
-0.192
-0.138
0.024
-0.224
-0.081
-0.004
0.003
0.017
-0.100
-0.018
0.204
0.070
-0.108
-0.250
-0.108
-0.015
0.099
0.000
0.039
-0.051
-0.030
-0.029
0.084
0.152
-0.028
-0.373
-0.082
0.353
-0.133
-0.122
-0.115
-0.051
0.088
0.012
0.062
-0.097
-0.173
-0.019
0.114
-0.237
0.307
-0.109
-0.165
-0.074
0.224
0.044
-0.133
-0.110
0.025
0.004
-0.081
0.070
0.008
-0.171
-0.027
0.111
0.030
0.094
-0.084
-0.133
0.041
0.068
-0.301
0.056
0.204
-0.129
-0.009
0.136
-0.352
0.156
0.130
-0.012
-0.084
-0.379
-0.188
0.237
0.107
-0.183
-0.123
0.093
0.026
0.078
-0.044
-0.134
-0.042
-0.077
0.083
0.070
0.015
-0.185
-0.060
0.264
0.085
-0.364
-0.159
0.482
-0.040
-0.219
-0.164
0.079
-0.008
-0.115
0.104
0.053
0.033
-0.263
-0.092
0.004
0.141
-0.068
-0.189
-0.050
-0.120
-0.339
0.404
0.065
-0.138
0.153
0.019
-0.294
-0.006
0.048
-0.012
0.143
-0.010
-0.055
0.083
-0.189
-0.077
-0.033
-0.086
-0.067
-0.035
-0.078
0.016
0.008
-0.067
-0.038
-0.176
0.207
0.153
-0.148
0.087
-0.072
-0.195
-0.171
0.150
-0.025
-0.056
-0.008
-0.004
0.066
-0.159
-0.071
0.142
-0.042
-0.088
-0.027
-0.025
-0.145
-0.060
0.009
-0.065
0.190
0.086
-0.098
-0.027
-0.164
-0.254
-0.198
0.650
0.159
-0.562
-0.090
0.291
0.298
-0.291
-0.182
-0.041
-0.009
-0.001
0.024
0.175
-0.048
-0.145
0.030
-0.111
-0.040
-0.070
0.019
0.063
0.003
-0.147
-0.048
0.029
0.118
0.031
-0.065
-0.049
-0.050
0.072
-0.138
0.080
0.079
-0.166
-0.284
-0.178
0.419
0.460
-0.056
-0.317
-0.326
-0.037
-0.078
0.073
0.199
-0.195
0.071
0.052
-0.007
-0.208
-0.108
0.102
0.005
0.009
-0.270
0.132
0.117
0.014
0.080
-0.048
-0.076
0.009
0.013
-0.018
0.041
0.044
0.046
-0.063
-0.017
-0.108
0.050
-0.170
-0.166
0.176
-0.025
0.031
-0.034
-0.256
-0.299
0.558
0.049
-0.277
0.044
-0.108
0.067
-0.047
0.096
-0.014
0.060
-0.080
-0.093
0.023
-0.123
-0.149
0.213
0.164
-0.118
-0.131
-0.057
-0.112
-0.001
-0.167
0.311
0.231
-0.082
-0.136
-0.098
-0.087
0.145
0.062
-0.085
0.105
0.023
-0.207
0.044
0.057
-0.011
0.055
-0.020
-0.325
-0.179
0.107
-0.130
0.140
0.402
-0.187
-0.335
-0.019
0.022
-0.239
-0.105
0.343
0.172
-0.156
-0.034
0.030
-0.123
-0.043
0.111
0.017
-0.094
0.036
-0.010
0.134
-0.146
-0.129
0.406
-0.133
-0.115
-0.148
-0.158
-0.020
-0.010
0.074
-0.057
0.024
-0.087
0.009
-0.065
-0.268
-0.199
0.552
-0.221
-0.591
0.611
0.463
-0.343
-0.363
-0.140
-0.007
0.078
0.091
-0.169
0.135
0.116
-0.002
-0.074
-0.138
-0.215
-0.233
0.231
0.175
-0.032
-0.042
-0.035
-0.112
-0.097
0.033
-0.071
0.127
-0.093
0.023
-0.329
0.167
0.051
-0.152
0.114
0.021
-0.362
0.107
0.183
-0.003
-0.056
0.020
-0.033
-0.073
-0.041
-0.012
-0.016
-0.096
0.016
-0.046
0.027
-0.086
0.060
-0.278
-0.073
0.233
-0.034
-0.150
-0.112
-0.018
-0.177
-0.049
0.394
0.228
-0.189
-0.272
-0.133
0.091
0.004
-0.221
0.221
0.159
0.065
-0.151
-0.203
-0.028
0.055
0.071
-0.058
-0.078
0.181
-0.142
-0.063
-0.152
0.134
0.022
0.038
0.003
0.022
-0.236
0.040
0.155
-0.137
0.220
-0.060
-0.112
-0.006
-0.040
-0.111
-0.053
0.146
-0.221
0.200
0.321
-0.054
-0.219
-0.244
-0.034
0.134
-0.146
0.136
0.100
0.005
-0.074
-0.084
0.059
-0.072
-0.096
-0.059
0.390
0.077
-0.169
-0.129
-0.300
-0.140
0.270
0.159
-0.017
-0.092
0.064
-0.119
0.013
-0.022
0.011
-0.012
-0.074
-0.021
0.107
-0.119
-0.109
-0.038
-0.014
0.098
0.018
0.097
-0.031
-0.060
-0.145
0.140
-0.114
-0.147
0.333
0.007
-0.193
0.051
0.235
-0.018
-0.219
-0.082
0.286
0.121
-0.206
-0.063
-0.077
-0.015
-0.175
-0.143
0.178
-0.017
-0.222
-0.148
0.074
-0.061
-0.101
-0.122
0.208
-0.137
0.069
0.037
-0.155
-0.137
-0.059
-0.057
0.113
-0.069
-0.087
0.364
0.077
-0.246
-0.136
0.076
-0.080
-0.120
0.084
-0.182
0.012
0.212
-0.103
0.112
-0.150
0.010
-0.004
-0.114
-0.062
0.113
-0.084
-0.093
-0.074
-0.093
0.042
0.014
-0.131
0.287
-0.036
-0.319
-0.373
0.320
0.228
0.004
-0.480
-0.047
0.347
0.033
-0.000
-0.064
-0.156
0.143
0.003
-0.071
-0.054
-0.073
-0.057
0.032
0.049
0.029
-0.094
-0.132
-0.047
-0.298
0.226
0.223
0.056
-0.217
-0.248
0.086
0.113
-0.003
-0.075
-0.067
-0.029
-0.116
0.047
0.084
0.003
-0.035
-0.127
-0.050
0.302
0.023
-0.228
-0.086
0.004
-0.090
-0.031
0.104
-0.036
-0.016
-0.146
-0.060
0.375
-0.069
-0.201
-0.100
0.200
-0.022
-0.187
0.115
0.056
-0.148
-0.122
0.109
0.106
-0.073
0.117
0.005
-0.216
-0.151
-0.208
0.326
0.055
-0.304
-0.060
0.328
-0.023
-0.223
-0.277
0.060
0.220
0.107
0.033
-0.193
-0.047
0.018
-0.163
-0.138
0.246
0.132
-0.062
-0.062
-0.077
-0.165
-0.075
0.084
-0.100
-0.063
0.156
-0.038
-0.057
-0.182
0.126
-0.104
-0.007
0.210
-0.063
-0.148
-0.078
-0.065
-0.015
0.010
0.422
0.053
-0.252
-0.177
0.047
0.129
-0.051
-0.131
0.084
0.033
-0.064
0.052
0.063
0.023
-0.119
-0.275
0.219
0.143
-0.042
-0.344
-0.069
0.253
-0.095
-0.146
0.072
0.041
-0.020
-0.053
-0.177
-0.082
0.168
0.098
-0.137
0.122
0.007
-0.049
0.037
-0.032
-0.032
-0.042
-0.061
0.004
0.045
-0.057
0.041
-0.172
0.165
-0.022
-0.016
-0.100
-0.197
-0.100
-0.123
0.583
0.271
-0.120
-0.361
-0.090
0.023
0.004
0.025
0.042
-0.090
0.094
0.057
-0.209
0.071
-0.197
-0.013
0.147
-0.059
-0.132
0.200
0.018
-0.160
-0.047
0.160
-0.078
-0.208
-0.103
-0.132
0.243
0.278
-0.229
-0.150
0.013
-0.109
0.007
0.083
-0.079
0.041
-0.047
-0.124
-0.024
-0.002
0.046
0.061
-0.061
-0.101
-0.086
0.032
0.062
0.068
-0.006
-0.093
0.046
-0.372
-0.063
0.305
0.619
0.034
-0.451
-0.485
-0.186
0.233
0.162
-0.061
-0.224
0.210
0.091
-0.009
-0.219
-0.080
-0.127
0.062
0.087
-0.085
-0.019
0.021
-0.026
-0.181
-0.202
0.287
0.271
-0.029
-0.288
-0.052
-0.124
0.132
0.248
-0.093
-0.241
-0.053
0.001
0.146
0.167
-0.079
-0.096
-0.179
-0.155
-0.063
-0.062
0.193
-0.003
-0.136
0.163
-0.056
0.104
-0.097
-0.182
-0.146
0.163
0.099
-0.038
0.010
-0.013
0.006
-0.249
-0.109
0.354
-0.022
-0.205
-0.243
0.352
0.315
-0.119
-0.286
-0.233
-0.015
0.086
0.063
0.074
-0.225
-0.074
-0.018
0.109
-0.087
-0.174
0.226
-0.034
-0.109
-0.250
0.074
0.111
-0.033
-0.020
-0.052
0.003
-0.142
-0.024
0.221
-0.109
-0.335
0.081
0.229
-0.142
0.076
-0.086
-0.073
-0.205
0.159
0.091
-0.031
-0.009
-0.111
-0.012
0.149
0.077
-0.017
-0.078
-0.139
0.038
-0.033
-0.132
-0.067
-0.172
0.013
-0.024
0.022
0.010
0.275
0.047
-0.140
-0.124
-0.044
0.047
-0.041
-0.061
0.012
0.067
0.035
-0.050
0.135
-0.239
-0.267
-0.219
0.469
0.118
-0.294
-0.131
-0.033
0.097
-0.002
-0.186
-0.161
0.349
0.028
-0.141
-0.473
0.102
0.395
0.053
-0.178
-0.152
-0.093
-0.162
0.011
0.093
0.072
0.149
0.032
-0.066
-0.429
0.335
0.179
-0.114
-0.162
-0.106
0.010
0.034
-0.037
0.015
-0.027
0.010
-0.082
-0.057
0.038
0.047
-0.077
-0.008
-0.057
0.164
-0.017
-0.037
-0.045
-0.024
-0.036
-0.064
-0.077
-0.198
0.297
0.159
-0.170
-0.358
-0.082
0.471
-0.131
-0.230
-0.223
0.157
-0.032
0.099
0.046
-0.266
-0.221
0.238
0.127
-0.040
0.005
-0.073
-0.096
-0.125
-0.122
-0.025
0.274
0.150
-0.183
-0.228
0.077
-0.233
0.016
0.301
0.032
-0.069
-0.142
-0.102
0.075
0.040
0.129
-0.076
-0.158
-0.049
0.142
0.105
0.013
-0.312
-0.030
0.311
0.123
-0.126
-0.338
-0.049
0.056
0.096
-0.159
0.081
-0.031
-0.029
-0.145
-0.080
0.107
-0.033
-0.240
0.046
0.034
-0.034
0.036
0.099
0.083
-0.122
-0.142
-0.078
-0.086
0.115
0.074
-0.056
-0.202
-0.126
-0.115
0.517
0.165
-0.241
-0.254
0.028
-0.069
-0.021
0.010
-0.004
-0.282
0.287
0.262
-0.190
-0.239
-0.263
-0.123
0.351
0.045
-0.154
0.037
0.024
-0.088
-0.242
0.004
0.163
-0.012
0.017
-0.202
0.076
0.073
-0.162
-0.113
0.084
-0.024
0.065
0.005
-0.122
0.086
-0.018
-0.036
0.152
-0.048
-0.051
-0.137
0.023
-0.036
0.023
0.151
-0.074
-0.049
-0.268
0.096
0.182
-0.054
-0.182
-0.249
-0.129
0.559
0.189
-0.339
-0.258
0.175
0.034
-0.015
-0.141
0.015
-0.088
-0.065
0.059
-0.066
0.022
-0.013
-0.028
-0.081
-0.123
-0.185
0.337
0.070
-0.022
-0.277
-0.086
0.166
0.218
-0.075
-0.109
-0.184
-0.150
0.120
0.059
-0.206
0.291
0.048
-0.109
0.045
-0.160
-0.032
-0.050
-0.027
-0.061
0.020
-0.032
0.022
0.268
-0.002
-0.161
-0.229
-0.010
0.159
0.017
-0.101
-0.023
-0.019
0.064
-0.116
-0.259
0.215
0.052
-0.173
0.137
-0.125
-0.115
-0.129
-0.168
0.365
0.149
0.034
-0.257
-0.168
-0.083
0.126
0.217
-0.029
-0.029
-0.131
-0.036
-0.192
0.136
0.013
-0.279
-0.106
0.064
0.297
0.068
-0.521
-0.031
0.324
0.176
-0.173
-0.082
-0.031
0.074
-0.045
0.064
-0.060
0.004
-0.071
0.132
0.085
-0.037
-0.056
-0.096
-0.001
-0.092
0.024
-0.020
-0.065
0.241
0.106
-0.123
-0.018
0.033
-0.152
-0.329
0.470
0.095
-0.001
-0.212
-0.373
0.137
-0.038
-0.060
0.124
-0.015
0.102
-0.119
-0.149
0.071
0.027
-0.062
0.160
0.010
-0.188
-0.257
0.268
0.067
-0.127
-0.080
-0.038
-0.021
-0.001
-0.174
0.009
-0.036
0.050
-0.184
-0.182
0.076
0.249
-0.218
0.322
0.250
-0.273
-0.362
-0.041
-0.074
0.175
-0.010
-0.034
-0.121
0.005
-0.028
-0.082
-0.021
0.072
-0.020
-0.291
0.099
-0.115
0.047
-0.018
-0.188
-0.075
0.108
-0.096
0.150
0.434
-0.205
-0.286
-0.057
-0.093
0.073
0.004
-0.280
-0.234
0.760
-0.083
-0.346
-0.024
-0.323
-0.039
0.388
-0.013
-0.063
-0.160
-0.308
-0.135
0.040
0.235
0.123
-0.101
-0.255
-0.135
0.019
-0.006
0.037
-0.031
0.017
0.005
-0.169
-0.101
0.304
-0.062
-0.049
-0.102
-0.043
0.187
-0.077
0.053
-0.040
-0.167
-0.247
-0.176
0.520
0.216
-0.030
-0.320
-0.301
0.125
0.114
-0.059
0.023
-0.066
-0.059
-0.054
-0.034
-0.115
0.041
0.128
-0.286
-0.156
0.026
-0.097
-0.258
0.237
0.587
-0.381
-0.438
0.162
0.181
-0.152
-0.131
0.225
-0.005
-0.120
0.004
-0.144
0.004
0.072
-0.172
-0.006
-0.127
-0.092
-0.019
0.068
-0.155
-0.182
0.138
0.136
-0.031
-0.014
-0.164
-0.031
0.091
0.024
-0.012
-0.003
-0.128
-0.113
0.081
0.122
-0.088
-0.270
-0.162
0.504
0.137
-0.334
-0.032
0.098
-0.084
-0.047
-0.005
-0.094
-0.010
0.108
0.148
-0.351
0.032
0.148
-0.201
-0.057
0.002
-0.063
-0.090
0.043
-0.081
0.007
0.120
-0.027
-0.066
-0.155
0.149
0.100
-0.098
-0.073
-0.100
0.002
0.158
-0.092
-0.412
0.060
0.370
0.052
-0.072
-0.269
-0.023
0.019
-0.003
0.137
-0.104
-0.011
-0.087
-0.044
0.018
-0.013
-0.062
0.114
0.052
-0.114
-0.029
-0.000
-0.071
0.002
-0.167
-0.045
0.297
-0.074
-0.076
-0.046
-0.094
0.146
-0.154
-0.024
-0.037
-0.183
-0.004
-0.120
0.148
-0.077
-0.332
0.168
0.272
-0.185
-0.344
-0.365
0.364
0.253
-0.160
-0.197
-0.214
0.092
0.143
-0.051
0.049
-0.051
-0.007
-0.181
-0.041
0.052
0.014
0.029
0.006
-0.039
-0.034
-0.174
0.116
0.002
-0.053
0.243
-0.206
-0.154
0.018
-0.124
-0.085
-0.140
0.101
0.151
-0.034
0.232
-0.040
-0.305
-0.216
-0.000
0.064
-0.269
0.155
0.086
-0.264
0.254
0.272
-0.068
-0.391
-0.230
0.331
0.145
-0.167
-0.027
-0.053
-0.450
-0.008
0.774
0.128
-0.349
-0.159
-0.057
-0.095
0.008
-0.104
0.017
0.190
-0.010
0.004
-0.133
-0.131
-0.096
-0.011
-0.128
-0.080
0.070
0.368
-0.034
-0.163
-0.210
0.139
0.045
-0.038
0.022
0.016
-0.069
0.006
0.059
-0.157
-0.205
0.371
-0.004
0.025
0.050
-0.318
0.132
0.027
-0.012
0.078
-0.188
-0.097
0.166
-0.002
-0.136
-0.076
-0.042
-0.006
-0.107
-0.130
0.107
-0.070
-0.031
-0.090
-0.183
0.284
0.004
-0.281
0.163
0.084
-0.198
0.053
0.020
-0.020
-0.014
-0.066
-0.203
0.112
0.020
-0.004
0.042
-0.063
-0.026
0.119
0.015
-0.171
-0.182
-0.156
0.205
-0.027
0.063
-0.125
-0.004
0.083
-0.073
-0.047
-0.315
-0.161
0.659
-0.239
0.076
0.268
-0.147
-0.175
-0.127
-0.098
-0.107
0.007
0.071
0.292
0.092
-0.287
-0.031
-0.022
-0.138
0.027
0.024
-0.006
-0.018
-0.043
-0.047
-0.009
-0.097
-0.148
-0.008
-0.042
0.091
0.207
0.052
-0.178
-0.186
-0.254
0.018
0.045
0.112
0.006
0.006
-0.003
0.037
-0.172
-0.005
0.167
0.073
-0.096
-0.134
-0.024
-0.032
-0.041
0.228
-0.121
0.018
0.150
-0.443
0.107
0.374
-0.221
-0.168
0.119
0.078
-0.140
-0.073
-0.203
0.194
0.173
-0.015
-0.143
0.024
0.091
-0.094
-0.231
0.057
0.211
0.085
-0.044
-0.314
-0.092
0.237
0.163
-0.135
-0.153
-0.055
-0.068
-0.090
-0.007
0.490
-0.234
-0.170
-0.006
-0.078
0.045
-0.062
-0.055
0.007
-0.095
-0.062
0.122
0.086
-0.313
0.301
0.101
-0.122
-0.163
-0.078
-0.006
0.054
0.016
0.028
0.068
-0.065
-0.017
-0.112
-0.096
0.033
0.115
-0.009
-0.129
0.165
-0.031
0.004
-0.090
-0.077
-0.128
0.038
0.020
-0.134
-0.141
-0.037
0.568
0.029
-0.351
-0.280
-0.048
0.004
0.104
0.027
-0.063
0.036
0.020
0.068
-0.134
-0.120
-0.072
0.141
-0.068
0.072
-0.011
-0.166
-0.072
-0.156
-0.080
0.338
0.152
-0.169
-0.256
-0.003
-0.177
0.044
0.257
0.123
0.058
0.039
-0.272
-0.050
0.056
-0.101
-0.225
0.065
0.178
0.261
-0.037
-0.173
-0.254
-0.099
0.115
0.073
-0.025
0.019
-0.002
-0.027
0.033
-0.192
-0.020
0.101
-0.032
-0.185
-0.062
0.089
-0.039
0.025
-0.010
-0.007
-0.074
0.011
-0.052
-0.104
0.114
-0.083
-0.041
-0.136
0.262
0.204
-0.113
-0.208
-0.049
-0.007
0.062
0.117
-0.165
-0.084
0.332
0.026
-0.195
-0.086
-0.072
0.006
0.106
-0.137
-0.354
0.354
0.249
-0.030
-0.225
-0.088
0.000
0.052
-0.013
-0.170
-0.112
0.162
0.152
-0.319
0.032
0.291
-0.043
-0.177
-0.148
0.021
-0.170
-0.177
0.184
0.422
-0.057
-0.224
0.003
-0.015
-0.007
-0.169
-0.001
0.190
-0.031
-0.247
0.011
0.145
0.194
0.032
-0.264
-0.188
-0.100
0.255
0.146
-0.093
-0.003
-0.152
-0.072
0.116
-0.107
-0.008
0.043
0.002
-0.134
0.045
-0.039
-0.177
-0.031
0.192
-0.117
0.276
-0.075
-0.429
-0.020
0.155
-0.038
-0.025
0.110
-0.028
-0.117
-0.195
-0.178
0.272
0.023
0.128
-0.388
-0.198
0.334
0.079
-0.186
-0.175
0.175
-0.043
-0.144
0.181
0.070
-0.132
0.029
-0.065
-0.079
-0.110
0.133
-0.117
-0.103
0.087
-0.046
0.020
-0.011
-0.161
-0.082
-0.151
0.102
-0.115
0.054
-0.002
-0.135
-0.026
-0.011
-0.012
-0.129
-0.309
0.300
0.284
-0.159
0.077
0.065
-0.120
-0.174
-0.029
0.046
0.074
-0.067
-0.031
-0.074
-0.028
-0.015
-0.080
0.245
-0.066
-0.214
0.071
0.029
-0.117
0.108
-0.008
-0.085
-0.029
-0.035
0.001
-0.102
-0.134
0.111
0.091
0.116
-0.286
0.011
0.014
-0.112
-0.005
0.028
0.031
0.047
-0.102
-0.064
0.007
-0.072
0.093
-0.004
-0.077
-0.016
0.072
-0.018
-0.108
-0.121
0.000
0.038
0.124
-0.150
-0.178
0.074
-0.006
0.318
-0.367
0.109
0.078
-0.059
-0.000
-0.298
-0.031
0.295
0.318
-0.402
-0.369
0.595
0.258
-0.237
-0.329
-0.011
-0.052
0.004
-0.044
-0.039
0.150
0.168
-0.222
-0.162
-0.077
-0.065
-0.105
0.010
0.070
0.045
-0.074
-0.017
-0.224
-0.224
-0.210
0.332
0.462
0.074
-0.256
-0.203
-0.142
0.044
0.099
0.094
-0.049
-0.081
0.048
0.097
-0.167
-0.231
-0.103
0.431
0.155
0.079
-0.305
-0.144
-0.095
-0.022
0.019
-0.035
-0.006
0.126
-0.119
-0.055
0.082
-0.069
0.052
-0.003
-0.256
-0.154
0.236
0.248
-0.033
-0.229
-0.215
-0.239
0.138
0.374
-0.011
-0.209
-0.070
-0.121
-0.021
0.026
0.053
-0.064
-0.007
-0.001
-0.017
-0.160
0.091
-0.031
-0.184
-0.124
0.041
0.286
0.029
-0.157
0.013
-0.018
-0.020
-0.022
-0.005
0.121
-0.186
-0.020
-0.176
0.109
0.290
-0.106
-0.224
-0.062
-0.071
-0.130
0.169
0.119
-0.322
-0.070
0.061
0.033
-0.212
-0.008
0.267
-0.080
-0.173
-0.153
0.136
0.061
0.009
-0.120
-0.030
0.085
0.054
0.016
-0.104
-0.021
-0.441
0.093
0.608
-0.078
-0.174
-0.133
-0.308
0.147
0.054
-0.088
0.152
-0.018
-0.126
0.025
-0.113
-0.130
0.296
0.202
-0.039
-0.306
-0.270
-0.034
-0.027
0.067
0.303
0.233
-0.367
-0.312
0.355
0.245
-0.150
-0.242
-0.171
0.101
0.018
0.003
-0.071
0.014
0.236
-0.123
-0.156
-0.075
-0.067
-0.224
-0.136
0.447
0.165
-0.156
-0.204
0.027
-0.140
0.185
0.039
-0.064
0.061
0.073
-0.249
-0.178
0.294
0.019
0.077
-0.146
-0.129
0.156
0.081
-0.130
-0.214
-0.061
-0.108
0.100
0.198
0.154
-0.244
-0.169
0.039
-0.057
-0.112
-0.017
0.039
0.089
-0.124
0.090
0.101
-0.073
-0.152
-0.024
-0.058
0.071
-0.089
-0.103
0.044
0.014
0.032
-0.068
-0.061
-0.078
-0.134
0.192
0.292
-0.246
-0.342
0.005
0.187
0.012
0.133
-0.018
-0.165
0.003
0.103
0.036
-0.193
-0.073
-0.374
0.052
0.393
-0.107
0.052
-0.065
-0.133
0.008
0.190
-0.006
-0.144
-0.021
0.094
0.022
-0.106
-0.108
0.088
-0.017
0.032
0.023
-0.036
-0.078
-0.192
-0.034
0.221
0.005
-0.124
-0.078
-0.171
0.050
0.058
-0.025
-0.172
-0.013
0.274
0.074
-0.169
-0.190
-0.083
0.060
0.080
-0.051
-0.040
0.116
-0.029
-0.148
-0.109
0.140
0.004
-0.076
-0.152
-0.143
-0.112
0.128
0.206
0.137
-0.075
-0.170
-0.101
-0.032
-0.008
0.064
-0.012
-0.144
-0.020
-0.240
-0.077
0.461
-0.068
-0.123
-0.474
0.001
0.621
0.064
-0.290
-0.205
-0.187
0.038
-0.143
-0.064
0.397
-0.003
-0.099
-0.083
-0.080
-0.019
-0.141
-0.066
0.221
0.035
-0.209
-0.077
0.079
0.012
-0.195
0.082
0.044
0.065
-0.059
-0.223
0.034
0.350
-0.077
-0.232
-0.027
0.017
-0.008
-0.016
-0.040
-0.082
-0.063
-0.137
0.224
0.189
0.065
0.039
-0.089
-0.129
-0.141
0.011
-0.077
0.063
0.078
-0.110
0.031
0.217
-0.087
-0.269
-0.155
0.185
0.155
-0.138
-0.215
-0.009
0.138
0.004
-0.064
0.126
0.049
-0.093
-0.127
0.038
0.194
-0.117
0.231
0.064
-0.245
-0.306
0.313
0.015
-0.056
-0.069
-0.229
0.258
0.165
-0.036
-0.171
-0.309
0.068
0.160
0.008
-0.102
-0.087
-0.031
-0.025
-0.022
0.075
-0.055
-0.101
0.028
0.032
-0.095
-0.088
-0.083
0.162
-0.020
-0.122
-0.020
-0.052
-0.295
0.008
0.346
0.032
-0.219
-0.143
0.145
-0.142
0.000
0.273
-0.004
-0.091
-0.036
-0.062
-0.119
-0.048
0.013
-0.095
0.057
0.210
-0.096
-0.343
0.074
0.319
0.082
-0.213
-0.161
-0.164
-0.049
0.003
-0.046
-0.023
-0.091
0.083
0.146
-0.192
-0.182
-0.030
-0.007
-0.045
-0.049
-0.002
-0.057
0.019
-0.038
0.044
-0.046
-0.137
0.027
0.041
-0.010
0.148
-0.115
-0.185
-0.190
-0.007
0.077
0.059
0.010
-0.021
-0.089
-0.006
-0.082
0.180
0.024
-0.170
-0.087
-0.419
0.292
0.574
-0.100
-0.212
-0.272
-0.102
-0.059
0.099
0.162
-0.125
-0.006
-0.089
-0.044
-0.049
-0.041
0.036
-0.139
-0.031
-0.084
-0.021
-0.058
0.018
0.013
-0.030
-0.027
-0.071
-0.186
0.097
0.102
-0.180
-0.011
0.050
-0.026
-0.069
-0.274
0.202
0.081
-0.067
-0.068
-0.059
-0.363
0.138
0.069
0.356
0.046
-0.191
-0.223
-0.131
-0.038
-0.128
0.215
0.069
-0.163
0.151
-0.088
-0.144
-0.079
0.045
-0.125
-0.064
-0.065
-0.170
0.107
0.229
-0.201
-0.228
-0.139
0.206
0.087
-0.265
0.326
0.110
-0.092
-0.139
-0.093
-0.039
-0.033
-0.004
0.048
0.082
-0.080
-0.137
0.123
-0.111
-0.021
-0.054
0.005
-0.112
-0.125
0.002
0.226
-0.084
-0.226
-0.025
0.069
0.008
0.061
-0.002
-0.010
-0.031
0.006
-0.109
-0.208
-0.007
-0.091
0.170
0.254
-0.189
-0.295
-0.093
-0.291
0.238
0.273
-0.133
0.104
0.016
0.094
-0.067
0.027
-0.103
-0.203
0.315
-0.152
-0.007
0.102
-0.008
0.043
0.061
-0.086
-0.057
-0.127
-0.010
-0.070
0.149
0.028
-0.030
0.055
-0.099
-0.089
-0.025
-0.152
0.009
0.113
0.097
-0.031
-0.114
-0.108
-0.030
-0.107
0.073
0.134
0.000
-0.177
-0.137
0.144
0.276
-0.129
-0.205
-0.190
-0.013
0.420
-0.005
-0.086
-0.080
-0.081
0.165
0.120
-0.048
-0.049
-0.012
-0.004
-0.085
0.014
0.035
-0.074
-0.064
0.234
-0.169
-0.265
0.021
-0.103
0.188
0.020
0.029
-0.028
-0.199
0.063
0.170
-0.048
-0.256
-0.376
0.309
0.130
-0.073
-0.042
-0.071
-0.061
-0.123
0.076
0.027
-0.025
-0.175
-0.144
0.245
0.132
-0.043
-0.074
-0.112
0.029
-0.104
0.018
0.089
-0.080
0.060
-0.006
-0.019
-0.138
0.021
-0.000
-0.278
0.038
0.394
-0.079
-0.155
-0.116
0.070
-0.102
-0.039
-0.099
0.035
-0.032
0.001
0.207
-0.208
-0.211
0.300
0.075
-0.103
-0.183
-0.121
-0.223
0.172
0.052
-0.071
-0.065
0.323
0.092
-0.161
-0.426
-0.130
0.378
0.034
0.033
-0.116
-0.143
-0.086
-0.085
0.170
0.191
-0.116
-0.054
-0.100
-0.089
-0.124
0.176
0.093
-0.014
-0.123
-0.043
0.007
0.051
-0.041
-0.040
-0.081
0.069
-0.068
-0.049
-0.055
0.196
0.059
-0.185
-0.232
0.126
0.500
0.020
-0.236
-0.026
-0.067
-0.238
-0.015
0.069
0.032
0.139
-0.065
-0.075
-0.054
-0.026
-0.042
-0.019
-0.154
-0.056
0.082
0.177
-0.061
-0.051
-0.009
0.034
-0.083
-0.237
0.026
0.219
-0.161
0.030
0.264
-0.208
-0.241
0.206
0.067
-0.125
-0.110
-0.216
0.056
0.240
0.084
0.125
-0.001
-0.218
-0.154
0.142
0.049
-0.125
-0.068
-0.097
0.261
0.117
-0.152
0.043
-0.196
-0.142
0.237
0.297
-0.021
-0.404
-0.117
-0.038
0.008
0.034
-0.004
-0.138
0.102
0.023
-0.076
-0.040
0.032
-0.185
-0.126
0.111
0.084
0.012
-0.158
0.001
0.055
-0.133
-0.239
0.213
0.065
-0.045
-0.076
-0.023
-0.089
0.227
-0.080
-0.118
-0.059
-0.016
-0.058
0.100
0.136
-0.033
0.063
-0.281
-0.049
0.119
0.017
-0.164
-0.108
-0.059
0.140
0.012
-0.084
-0.232
0.124
0.186
-0.087
-0.047
-0.149
-0.047
0.025
0.031
-0.008
0.012
-0.074
-0.084
0.013
-0.095
0.036
0.094
-0.087
-0.103
-0.084
-0.040
0.050
0.145
-0.078
-0.307
0.108
0.155
0.285
-0.188
-0.387
-0.054
0.240
0.033
-0.213
-0.068
0.049
-0.028
-0.077
0.031
-0.055
0.055
-0.050
-0.187
0.134
0.170
-0.378
0.092
0.196
-0.288
0.009
0.485
0.042
-0.226
-0.326
0.131
-0.005
-0.019
0.212
0.008
-0.024
-0.018
-0.009
-0.137
0.093
-0.064
-0.023
0.080
-0.112
-0.025
-0.079
-0.226
0.032
0.100
-0.012
-0.024
-0.025
-0.170
0.028
-0.036
-0.144
0.053
0.122
-0.106
-0.030
0.045
-0.299
-0.154
0.441
0.188
-0.147
-0.199
-0.151
-0.063
0.018
0.015
0.154
0.059
0.063
-0.078
-0.213
-0.215
0.334
0.071
-0.162
-0.260
0.211
0.081
-0.022
0.012
-0.084
-0.207
0.047
0.299
-0.061
-0.024
-0.025
0.039
-0.166
-0.193
-0.036
-0.036
0.076
0.050
0.098
-0.052
-0.087
-0.185
-0.099
-0.073
-0.132
0.152
0.089
0.198
-0.146
-0.245
0.048
0.256
-0.055
-0.096
0.066
-0.014
-0.055
0.033
-0.023
-0.335
0.165
0.247
-0.014
-0.200
-0.108
0.119
-0.091
-0.092
0.120
0.158
-0.066
-0.237
-0.215
0.200
0.204
-0.115
-0.175
0.053
0.019
-0.051
-0.010
0.044
0.080
-0.059
-0.050
0.050
0.134
0.018
-0.122
-0.077
-0.394
-0.343
0.754
0.551
-0.120
-0.472
-0.400
0.040
0.207
-0.160
-0.076
0.099
-0.042
0.020
-0.038
-0.213
0.118
0.080
0.115
-0.231
-0.057
0.210
0.090
-0.090
-0.091
0.033
-0.083
-0.079
0.098
0.195
-0.119
-0.300
-0.055
-0.026
0.077
-0.025
-0.159
-0.041
0.158
-0.106
-0.147
0.018
0.030
-0.053
-0.063
-0.026
-0.010
0.117
-0.122
0.074
0.088
-0.047
-0.170
0.025
-0.033
0.017
-0.186
-0.367
0.674
0.320
-0.054
-0.309
-0.106
0.089
-0.175
-0.059
0.070
-0.012
0.037
-0.084
-0.080
0.287
-0.100
-0.193
-0.143
-0.066
-0.048
0.065
-0.032
0.119
-0.181
-0.063
0.043
-0.064
0.016
0.067
0.012
0.073
-0.126
-0.097
-0.126
0.201
0.063
-0.164
-0.039
-0.096
-0.304
-0.194
0.390
0.282
0.031
-0.065
-0.256
-0.153
-0.062
0.052
-0.047
0.085
0.101
-0.077
-0.054
-0.151
-0.184
0.100
-0.005
-0.107
-0.107
0.105
-0.117
0.002
-0.006
0.028
0.035
-0.001
-0.191
-0.115
-0.015
0.054
0.052
-0.095
-0.219
0.026
0.093
0.029
-0.086
-0.094
-0.246
-0.095
0.017
0.117
0.076
-0.075
0.038
-0.068
-0.113
-0.065
0.215
0.019
-0.184
-0.166
-0.085
0.256
0.100
-0.113
-0.399
0.083
0.406
-0.078
-0.389
-0.016
-0.010
0.026
0.050
-0.027
-0.115
0.065
-0.038
-0.061
0.004
-0.008
-0.050
-0.102
-0.181
0.094
0.002
-0.078
-0.030
0.058
-0.160
0.188
-0.086
-0.143
0.032
0.088
0.053
-0.100
-0.134
0.166
0.099
-0.297
-0.067
-0.116
0.065
-0.021
-0.018
-0.139
0.162
0.018
-0.323
-0.253
0.755
0.151
-0.309
-0.174
-0.048
-0.042
0.118
-0.032
0.133
-0.015
-0.055
-0.030
-0.129
-0.044
-0.039
0.048
0.066
-0.041
-0.232
0.005
-0.054
-0.001
0.037
0.141
-0.383
-0.339
0.240
0.088
-0.121
-0.012
-0.046
-0.016
-0.037
-0.011
-0.055
0.066
0.013
-0.082
-0.024
-0.063
-0.115
0.082
0.061
-0.105
-0.044
0.001
-0.054
0.307
-0.021
-0.211
-0.145
-0.072
0.137
0.143
0.074
-0.354
-0.328
0.607
0.452
-0.311
-0.360
-0.072
-0.203
-0.093
0.384
0.028
-0.025
-0.121
-0.068
-0.047
-0.059
0.031
-0.059
0.160
-0.058
0.022
-0.030
-0.076
0.032
0.139
-0.050
-0.062
-0.042
-0.080
0.103
0.078
-0.179
0.099
0.121
-0.066
-0.022
-0.157
0.084
-0.063
0.022
0.048
0.006
-0.032
-0.033
-0.156
0.073
-0.139
0.257
0.090
-0.099
0.055
-0.209
-0.065
0.166
-0.244
-0.011
0.107
0.020
0.060
0.009
-0.106
-0.083
-0.223
-0.106
0.297
0.002
-0.026
-0.079
-0.008
-0.183
0.018
0.066
0.013
-0.017
0.010
0.080
0.011
-0.077
-0.286
0.163
0.095
0.014
-0.049
-0.067
-0.115
0.105
0.054
-0.307
0.160
0.163
-0.288
0.003
0.118
-0.041
-0.240
0.065
0.261
-0.171
-0.234
-0.025
-0.042
-0.101
0.116
0.085
-0.115
-0.164
-0.066
0.007
0.015
-0.105
0.046
-0.031
-0.068
-0.138
0.159
-0.063
-0.018
0.160
0.190
-0.031
-0.191
-0.170
-0.023
0.049
-0.060
0.063
0.123
0.005
-0.088
-0.214
0.290
-0.042
-0.250
0.080
0.014
-0.274
0.214
0.038
-0.034
0.113
0.044
-0.202
-0.088
0.034
-0.061
0.021
-0.002
-0.098
0.086
0.035
-0.497
-0.081
0.369
0.142
0.116
-0.149
-0.146
-0.171
-0.043
0.102
0.047
-0.008
0.119
-0.098
0.022
-0.011
0.131
-0.319
0.076
0.171
-0.135
-0.188
-0.043
-0.096
-0.066
0.385
0.026
-0.138
-0.040
-0.118
0.069
-0.102
-0.042
0.149
0.050
-0.057
-0.003
0.054
-0.090
-0.354
0.032
0.272
-0.053
-0.126
0.082
-0.026
-0.130
-0.150
-0.216
0.015
0.494
0.089
-0.193
-0.226
-0.135
0.266
0.062
-0.020
-0.083
-0.177
0.195
0.066
-0.124
-0.066
-0.134
-0.037
0.017
0.128
-0.164
0.065
0.176
-0.127
-0.052
-0.051
-0.189
-0.078
-0.183
0.288
0.193
-0.043
-0.192
-0.136
-0.070
0.130
-0.019
-0.176
0.030
0.119
0.022
-0.027
-0.284
0.014
0.222
0.098
-0.050
-0.139
-0.306
0.088
0.099
0.196
-0.087
-0.043
-0.207
-0.252
0.158
0.042
-0.083
-0.043
0.271
-0.097
-0.031
-0.089
-0.031
-0.016
-0.123
0.056
-0.084
0.156
-0.081
-0.040
-0.015
-0.037
-0.009
0.121
-0.111
-0.079
-0.060
0.128
-0.124
0.029
0.026
-0.098
-0.128
-0.000
0.075
-0.204
-0.237
0.246
0.191
-0.175
-0.014
-0.293
0.460
0.194
-0.349
-0.344
-0.294
0.378
0.282
-0.067
-0.083
-0.105
-0.191
0.174
-0.090
-0.113
0.026
0.069
0.015
-0.036
-0.033
-0.033
0.121
-0.064
-0.056
-0.015
-0.038
-0.042
-0.013
-0.128
0.146
0.071
-0.306
-0.077
0.352
0.139
-0.301
-0.194
0.242
-0.068
-0.264
-0.055
-0.087
0.029
0.355
-0.061
-0.275
-0.067
0.063
0.146
-0.133
-0.113
-0.040
0.093
0.040
-0.262
-0.152
0.298
0.147
-0.194
-0.060
-0.183
-0.022
0.250
0.072
-0.046
-0.157
-0.129
0.018
0.011
0.054
0.097
0.025
-0.160
-0.181
0.243
-0.120
-0.172
-0.038
-0.076
-0.162
0.036
0.109
0.140
-0.080
-0.028
-0.061
-0.143
-0.078
-0.006
-0.021
-0.121
-0.027
0.025
0.245
-0.167
-0.056
0.031
-0.168
-0.043
0.049
-0.013
0.010
-0.132
-0.181
0.060
0.129
0.064
-0.107
0.059
0.089
-0.126
-0.062
-0.031
0.021
-0.086
-0.034
0.000
-0.015
-0.079
0.150
0.029
-0.126
-0.137
0.021
-0.025
-0.144
-0.075
0.089
-0.164
0.198
0.246
-0.096
-0.092
-0.079
-0.086
-0.087
0.051
-0.132
-0.080
0.267
-0.085
0.134
-0.194
-0.048
-0.083
0.085
0.142
0.021
-0.517
-0.046
0.557
0.047
-0.262
-0.290
-0.052
-0.120
0.129
0.254
0.131
-0.198
-0.323
0.052
0.018
0.028
0.151
-0.068
-0.105
-0.118
-0.091
0.173
0.013
0.046
0.029
-0.061
-0.053
-0.048
-0.083
0.004
0.069
-0.056
-0.096
0.031
0.042
-0.095
-0.160
0.347
0.082
-0.479
0.122
0.200
-0.145
-0.166
0.074
0.052
-0.121
-0.062
0.059
-0.097
0.075
0.015
-0.177
-0.026
-0.167
0.122
0.290
-0.185
-0.090
-0.120
-0.055
-0.100
-0.190
0.239
0.383
-0.049
-0.148
-0.067
-0.071
-0.085
-0.036
0.136
-0.058
-0.082
-0.047
-0.046
0.121
0.050
-0.141
-0.168
0.044
0.141
0.031
-0.209
-0.159
-0.072
0.055
-0.136
-0.080
0.240
0.045
-0.177
-0.189
0.040
0.122
0.088
-0.114
-0.299
0.127
0.172
0.031
-0.176
-0.044
0.039
-0.098
-0.026
0.270
0.282
-0.274
-0.224
0.068
0.062
-0.105
-0.100
0.212
0.080
0.011
-0.058
-0.217
-0.090
0.134
-0.021
-0.191
-0.077
0.066
-0.072
-0.131
-0.019
0.003
-0.151
0.127
-0.021
0.260
-0.226
-0.173
0.258
0.135
-0.339
-0.131
-0.026
0.367
0.133
-0.195
0.037
-0.112
-0.162
0.070
-0.048
0.060
-0.039
-0.021
0.058
-0.093
-0.130
-0.067
-0.023
0.040
0.042
-0.031
-0.108
-0.126
0.024
0.129
-0.007
0.033
0.028
-0.116
-0.223
0.156
-0.034
-0.054
0.106
-0.050
-0.083
-0.225
0.074
0.117
-0.243
0.020
-0.019
0.038
0.148
-0.023
-0.155
-0.222
0.106
-0.076
-0.255
0.184
0.388
-0.058
-0.165
-0.066
-0.125
-0.023
-0.011
0.004
0.067
0.007
-0.060
-0.117
0.067
-0.008
-0.080
-0.098
-0.075
-0.085
-0.041
-0.040
0.081
-0.097
-0.005
0.200
-0.201
-0.073
-0.061
-0.014
0.067
-0.067
-0.064
0.087
0.046
-0.189
0.038
0.110
-0.336
0.120
0.436
0.063
-0.193
-0.121
-0.104
-0.162
-0.050
0.025
0.228
0.212
0.048
-0.129
-0.216
0.012
-0.068
-0.278
0.173
0.274
-0.112
-0.207
-0.104
-0.210
0.040
-0.051
0.015
0.097
0.005
0.054
0.076
0.015
-0.055
-0.156
-0.136
-0.089
0.257
0.064
0.012
0.026
0.042
-0.057
-0.133
-0.026
0.171
-0.005
-0.217
-0.211
0.230
0.119
-0.140
-0.087
-0.049
-0.069
-0.285
0.216
0.364
0.179
-0.233
-0.572
-0.114
0.460
0.208
-0.169
-0.038
-0.030
0.011
-0.056
0.004
0.234
-0.120
-0.268
0.185
0.086
-0.037
-0.070
-0.232
-0.100
0.128
-0.069
0.073
-0.000
-0.161
-0.230
0.213
-0.085
0.067
-0.121
0.095
-0.056
-0.120
-0.020
0.018
0.052
-0.093
-0.253
0.160
-0.053
0.106
0.011
-0.218
0.092
0.124
-0.059
-0.010
-0.166
-0.247
0.174
0.420
-0.157
-0.134
0.187
0.007
-0.239
-0.165
-0.003
0.282
-0.223
-0.189
0.270
-0.148
0.046
0.164
-0.011
-0.208
-0.179
0.023
0.067
-0.097
0.084
0.113
-0.109
0.095
0.069
-0.289
-0.123
0.047
-0.034
-0.053
-0.059
-0.106
0.050
-0.031
-0.012
-0.083
0.008
-0.060
-0.020
-0.095
-0.119
-0.030
0.055
0.176
-0.116
0.153
-0.096
0.079
-0.033
0.075
0.065
-0.274
-0.187
0.116
0.199
-0.124
-0.005
0.179
-0.396
0.390
-0.152
-0.281
0.248
0.111
-0.050
-0.355
-0.200
0.327
0.095
-0.058
-0.038
-0.007
-0.072
0.043
0.079
-0.145
-0.070
-0.358
0.018
0.276
0.111
-0.036
-0.071
-0.196
-0.046
-0.047
0.055
0.111
0.050
-0.196
-0.131
0.112
-0.119
-0.218
-0.064
0.861
0.139
-0.517
-0.230
-0.129
-0.067
0.021
0.078
0.114
0.064
-0.093
-0.057
0.002
-0.080
0.027
-0.110
-0.082
0.228
-0.015
-0.087
-0.121
-0.168
0.376
0.047
-0.017
-0.138
-0.056
-0.094
-0.100
0.223
0.015
-0.132
-0.132
0.097
-0.053
-0.183
-0.153
0.122
0.092
-0.011
-0.063
-0.152
0.137
0.071
-0.137
-0.080
-0.113
-0.020
0.299
-0.216
0.205
0.063
-0.069
-0.153
-0.033
-0.027
-0.104
0.010
-0.047
0.046
0.035
-0.198
0.013
0.031
-0.105
-0.025
0.158
-0.039
-0.071
-0.251
0.076
-0.005
0.197
-0.174
0.273
-0.017
-0.121
0.068
-0.150
-0.062
-0.018
-0.116
-0.005
0.096
0.029
0.070
-0.048
-0.085
0.006
-0.094
-0.014
-0.117
0.133
0.170
-0.192
-0.197
0.157
-0.050
-0.031
-0.003
-0.076
-0.106
-0.153
0.252
0.279
-0.104
-0.152
-0.052
-0.098
0.009
-0.174
0.082
-0.098
-0.033
0.073
-0.064
0.343
-0.056
-0.172
-0.278
-0.095
0.001
0.154
0.134
-0.046
-0.102
-0.093
0.034
-0.001
-0.088
0.128
0.099
-0.069
-0.176
-0.126
0.023
-0.144
0.012
0.122
0.074
-0.372
-0.450
0.411
0.939
-0.203
-0.500
-0.260
-0.048
0.037
0.154
0.088
0.101
-0.104
-0.057
0.013
-0.047
-0.160
-0.258
-0.151
-0.054
0.326
-0.016
-0.110
-0.088
0.017
-0.215
0.042
0.275
-0.033
-0.109
0.043
-0.288
0.184
0.082
-0.119
-0.210
-0.270
0.196
0.376
0.078
-0.448
-0.100
-0.071
-0.028
0.027
0.056
0.010
0.066
-0.024
-0.030
0.028
-0.112
-0.017
-0.024
0.036
-0.024
-0.074
-0.015
0.000
0.101
-0.045
0.030
0.005
-0.128
-0.072
-0.205
0.147
0.071
-0.541
0.783
0.315
-0.263
-0.271
-0.325
-0.046
0.062
0.057
0.014
0.049
0.277
-0.218
-0.140
-0.045
-0.131
-0.276
0.175
0.104
-0.000
-0.121
0.002
0.024
-0.039
-0.051
-0.011
0.063
-0.067
-0.097
0.185
0.168
-0.156
-0.091
-0.044
0.098
-0.214
-0.158
-0.258
0.021
0.466
-0.070
0.179
0.096
-0.312
-0.326
0.062
0.249
-0.077
-0.125
0.234
0.072
-0.075
-0.126
-0.106
-0.265
0.081
0.359
-0.029
-0.264
-0.186
0.011
0.048
-0.083
0.002
-0.092
-0.015
-0.094
0.029
0.063
-0.081
-0.012
0.039
0.027
-0.266
0.000
0.086
0.166
-0.115
-0.126
-0.217
0.122
0.345
-0.093
-0.268
0.049
0.111
0.039
-0.079
-0.252
-0.263
0.106
0.180
-0.276
0.178
0.236
0.020
-0.100
-0.265
-0.100
-0.019
0.102
0.083
-0.023
0.067
0.046
0.060
-0.018
-0.095
-0.300
0.054
0.430
-0.022
-0.358
-0.223
0.191
-0.026
-0.014
-0.068
0.243
-0.003
-0.246
-0.007
-0.030
0.007
-0.090
0.071
0.187
0.184
-0.318
-0.151
0.037
0.099
-0.255
-0.230
0.332
0.192
0.041
-0.275
0.060
0.098
0.038
-0.088
-0.068
0.052
-0.006
-0.046
-0.035
-0.031
0.081
-0.030
-0.191
0.221
0.067
-0.081
-0.502
0.310
0.256
-0.075
-0.456
0.032
0.312
-0.010
-0.013
-0.099
0.011
-0.098
-0.037
0.001
-0.081
0.048
-0.027
0.073
-0.148
0.030
0.120
-0.075
-0.102
-0.141
-0.051
-0.085
0.074
-0.014
-0.058
-0.142
-0.065
0.377
-0.156
0.147
0.138
-0.105
-0.252
-0.003
-0.024
0.032
0.030
0.002
-0.083
-0.022
-0.201
-0.020
-0.071
-0.062
0.125
-0.107
0.154
-0.186
0.062
-0.060
-0.245
-0.096
0.043
0.062
0.225
0.068
-0.129
0.069
-0.135
0.010
-0.066
0.139
-0.049
-0.098
0.009
-0.005
-0.096
-0.036
0.048
-0.166
-0.044
0.037
0.025
0.184
-0.020
-0.154
-0.404
0.186
0.173
0.110
0.028
-0.080
-0.075
-0.059
-0.082
0.007
0.030
0.040
-0.068
-0.059
0.302
-0.240
-0.196
0.082
0.033
-0.058
-0.040
0.096
-0.049
0.007
0.046
-0.027
-0.096
0.014
0.043
-0.181
-0.092
0.128
0.043
-0.073
-0.034
0.011
-0.061
-0.130
-0.015
-0.014
0.119
0.009
-0.211
-0.105
0.169
-0.069
-0.277
0.007
0.286
0.387
-0.154
-0.304
-0.214
0.011
0.072
-0.048
0.227
-0.022
-0.020
-0.082
-0.029
-0.049
-0.158
-0.115
-0.275
0.240
0.279
0.015
-0.283
-0.222
-0.045
-0.104
0.029
0.258
0.041
-0.139
-0.031
-0.025
0.054
-0.150
-0.032
-0.101
-0.077
0.162
-0.048
-0.155
-0.007
0.036
0.034
-0.045
-0.140
0.168
-0.255
-0.278
0.247
-0.162
0.401
0.237
-0.237
-0.270
-0.157
-0.025
-0.066
0.049
0.208
-0.141
0.060
0.006
0.039
-0.211
-0.009
-0.015
0.004
-0.056
-0.088
0.070
0.077
-0.017
-0.163
0.122
0.077
0.044
-0.234
-0.089
0.217
0.048
-0.215
-0.118
0.019
0.050
-0.051
-0.010
0.102
-0.276
-0.104
0.406
0.025
-0.132
-0.195
-0.042
-0.126
-0.125
0.274
0.340
-0.265
-0.303
0.204
-0.069
-0.111
0.025
-0.099
-0.079
0.250
-0.049
-0.068
-0.353
0.235
-0.011
-0.115
-0.115
0.309
-0.012
-0.197
-0.141
-0.145
-0.007
0.059
0.270
-0.050
-0.047
-0.092
0.023
-0.116
-0.365
0.168
0.339
0.270
0.180
-0.203
-0.414
-0.149
0.002
0.054
0.076
-0.071
0.072
-0.016
-0.062
-0.074
-0.078
0.052
-0.034
-0.013
-0.112
-0.259
0.055
0.209
-0.135
-0.133
0.307
0.098
-0.084
-0.179
-0.135
-0.222
0.009
0.404
0.091
-0.025
-0.250
-0.046
0.160
0.061
-0.216
-0.026
0.019
0.031
0.077
0.003
-0.055
-0.129
-0.154
0.116
0.106
-0.097
-0.114
0.029
0.020
-0.153
0.085
0.415
-0.109
-0.401
-0.122
0.070
0.086
-0.311
0.204
0.222
0.106
-0.273
-0.169
-0.142
0.117
0.204
0.065
-0.128
-0.180
-0.095
0.034
0.164
-0.057
0.041
0.115
-0.093
-0.064
-0.137
-0.142
-0.049
0.249
0.165
-0.171
-0.082
-0.119
-0.023
-0.044
0.015
0.034
-0.051
-0.112
-0.144
-0.087
0.022
0.041
0.198
-0.144
-0.408
0.016
0.224
0.084
-0.088
-0.364
-0.252
0.388
0.236
-0.121
-0.122
-0.109
-0.015
0.075
-0.061
-0.092
-0.097
0.200
0.100
-0.067
-0.221
-0.298
0.039
0.167
0.138
-0.112
-0.145
-0.065
0.040
0.157
-0.009
-0.078
-0.149
-0.041
0.318
-0.044
-0.032
-0.053
-0.133
-0.064
-0.114
-0.118
0.220
0.221
-0.034
-0.257
-0.152
-0.084
0.004
0.102
0.103
-0.001
-0.007
-0.158
-0.067
0.022
-0.088
-0.096
0.252
0.017
-0.164
-0.082
0.032
0.126
0.081
-0.012
-0.034
-0.100
-0.019
0.027
-0.024
-0.019
0.095
0.022
-0.565
0.414
0.304
-0.251
0.044
-0.140
-0.132
-0.131
0.092
0.018
0.092
0.022
-0.100
-0.069
0.236
0.065
-0.034
-0.223
-0.060
0.174
-0.233
0.109
0.243
-0.139
-0.147
-0.097
-0.012
-0.001
0.053
0.024
-0.005
-0.071
-0.062
-0.163
0.142
0.044
0.006
-0.185
-0.053
0.066
0.207
-0.127
-0.016
-0.093
-0.030
0.282
0.022
0.083
-0.040
-0.139
-0.169
-0.094
0.135
-0.092
0.050
0.092
-0.202
-0.175
0.131
0.206
-0.081
-0.137
-0.220
-0.041
0.193
-0.009
-0.113
-0.058
-0.075
0.193
0.026
-0.107
-0.345
0.215
0.053
-0.211
0.177
-0.050
-0.090
-0.064
-0.098
0.027
0.204
0.064
-0.177
-0.037
0.152
-0.147
0.042
-0.126
-0.070
0.121
0.022
-0.135
-0.042
0.000
-0.122
-0.078
0.044
0.134
0.059
0.002
0.149
-0.149
-0.069
-0.087
0.126
-0.038
0.005
-0.033
-0.434
0.116
0.200
-0.009
-0.014
-0.114
-0.099
-0.235
-0.153
-0.025
0.197
0.032
-0.020
0.110
0.021
-0.245
-0.213
-0.020
0.015
0.112
0.043
-0.104
0.010
0.044
-0.005
-0.217
-0.044
0.007
-0.148
-0.010
-0.249
0.372
0.084
-0.088
-0.010
-0.162
-0.130
0.090
0.038
0.056
0.103
-0.153
-0.025
0.271
0.042
-0.097
-0.190
-0.178
-0.045
0.073
0.083
-0.091
-0.047
-0.012
-0.167
-0.040
0.054
0.119
-0.149
-0.250
0.143
0.265
-0.126
-0.187
-0.127
-0.164
-0.388
0.274
0.619
0.086
-0.218
-0.284
-0.164
0.065
-0.010
0.095
-0.005
-0.119
-0.079
0.044
-0.002
0.143
-0.101
-0.157
-0.163
0.205
0.032
-0.058
0.063
-0.011
-0.113
-0.140
-0.060
-0.171
0.119
0.306
0.018
-0.092
-0.027
-0.090
-0.086
-0.091
0.047
0.118
-0.140
-0.207
0.198
0.216
0.023
-0.281
-0.091
-0.130
0.028
-0.022
0.043
-0.053
-0.120
-0.091
0.256
0.057
-0.117
-0.024
-0.042
0.007
-0.184
-0.043
0.004
0.213
-0.065
-0.187
0.486
-0.209
-0.184
-0.108
0.060
0.053
-0.172
0.000
0.116
0.023
-0.045
0.052
-0.188
-0.099
-0.064
0.039
0.145
-0.193
-0.101
-0.082
0.242
0.141
0.018
-0.148
-0.312
-0.161
0.343
0.169
0.068
-0.225
-0.184
0.102
0.003
-0.102
0.179
-0.048
-0.122
-0.113
-0.101
0.085
0.040
0.051
-0.094
-0.074
-0.023
-0.033
0.022
-0.011
-0.002
0.104
-0.115
-0.079
-0.030
0.180
0.008
-0.197
-0.125
-0.074
-0.011
0.054
0.201
-0.051
-0.046
0.023
-0.057
-0.067
-0.053
-0.255
-0.060
0.457
-0.102
-0.153
-0.131
-0.041
-0.064
-0.111
0.250
0.022
-0.129
-0.205
-0.054
0.182
-0.282
0.179
0.094
-0.067
-0.145
0.020
-0.077
-0.084
0.059
-0.313
0.180
0.303
-0.077
-0.230
-0.280
-0.112
0.309
0.117
-0.134
-0.089
-0.242
0.108
0.074
0.107
-0.006
-0.001
-0.148
-0.171
-0.073
-0.022
0.035
0.009
-0.108
0.153
0.228
-0.121
-0.062
-0.197
-0.092
-0.047
-0.039
0.117
-0.119
-0.014
0.078
0.013
-0.125
-0.226
0.065
0.219
-0.023
-0.084
-0.120
-0.173
0.082
0.259
-0.140
-0.154
-0.002
-0.022
-0.077
-0.117
-0.081
0.412
-0.061
-0.058
0.052
-0.193
-0.228
-0.086
-0.098
0.358
0.001
-0.337
0.080
0.273
0.078
-0.104
-0.035
-0.113
-0.228
0.006
0.158
0.004
0.013
0.057
0.112
-0.112
-0.211
0.028
-0.029
-0.172
-0.095
0.402
0.025
-0.124
-0.268
0.148
0.016
0.025
0.001
-0.149
-0.165
0.192
-0.106
-0.260
0.248
0.144
-0.137
-0.028
-0.149
-0.291
0.116
0.269
0.130
0.045
-0.212
-0.192
0.116
-0.065
-0.173
-0.272
0.519
0.022
-0.045
-0.136
-0.067
0.021
-0.031
0.021
-0.060
0.141
-0.050
-0.059
0.079
-0.020
-0.121
-0.078
-0.084
0.117
0.047
-0.085
-0.198
0.147
-0.061
-0.073
0.047
-0.005
-0.069
-0.134
-0.064
-0.014
-0.261
0.219
0.366
0.036
-0.382
-0.081
0.015
0.015
0.061
-0.011
-0.140
-0.099
0.129
0.083
0.003
-0.093
-0.111
-0.164
-0.018
0.148
-0.142
-0.026
-0.005
0.251
-0.137
-0.245
-0.155
-0.103
0.269
0.082
-0.082
-0.050
-0.109
-0.066
0.109
0.067
-0.111
-0.106
-0.089
-0.042
-0.028
0.055
0.048
-0.093
0.041
-0.026
0.050
-0.007
-0.031
-0.048
0.013
0.005
0.014
-0.067
-0.058
0.159
0.088
-0.258
-0.002
0.116
-0.127
-0.163
-0.115
0.001
0.074
0.088
-0.232
0.118
0.129
0.116
-0.087
-0.114
-0.101
-0.097
0.010
0.026
-0.021
-0.048
-0.231
0.075
0.101
-0.097
0.154
-0.081
0.153
0.159
-0.226
-0.119
-0.119
0.096
0.287
0.034
-0.174
-0.004
-0.053
-0.083
0.087
0.086
-0.119
-0.157
0.023
0.055
-0.091
0.060
-0.028
-0.129
-0.182
0.320
0.252
-0.070
-0.254
-0.090
0.059
0.061
-0.060
0.012
-0.013
-0.131
-0.124
0.127
0.193
0.017
-0.117
-0.188
-0.089
-0.014
0.020
0.065
0.038
0.076
0.060
-0.091
-0.087
-0.085
-0.127
0.004
0.145
-0.158
-0.045
0.217
-0.088
-0.212
-0.122
0.002
0.203
0.013
-0.012
-0.063
-0.089
-0.005
-0.042
-0.035
0.108
-0.038
-0.018
-0.011
-0.091
-0.037
-0.080
-0.205
0.045
-0.050
-0.284
0.277
0.062
0.018
-0.058
-0.014
-0.030
-0.147
-0.257
0.226
0.186
0.265
-0.136
-0.200
-0.104
-0.036
-0.185
0.271
0.295
0.038
-0.226
-0.180
-0.116
-0.126
0.136
0.266
-0.042
-0.072
-0.178
0.106
-0.090
-0.363
0.142
0.255
-0.012
-0.126
-0.047
-0.184
-0.158
0.020
0.111
0.003
-0.079
-0.078
0.112
0.126
-0.059
-0.111
-0.096
-0.119
0.026
0.257
0.020
-0.107
-0.009
0.070
-0.043
0.012
-0.041
-0.224
0.232
0.076
-0.053
-0.152
-0.160
0.071
0.250
-0.197
0.150
0.016
-0.203
-0.168
-0.118
0.186
0.130
-0.099
0.010
-0.133
0.084
-0.044
-0.048
-0.089
-0.063
0.054
-0.037
-0.152
0.062
0.312
-0.103
-0.214
0.007
-0.060
-0.172
-0.029
0.004
0.047
0.102
0.026
-0.122
-0.158
-0.069
-0.132
0.018
0.087
-0.010
-0.044
-0.022
-0.014
-0.085
-0.193
0.146
-0.008
0.139
-0.025
0.027
-0.167
-0.061
0.004
-0.078
-0.080
-0.164
0.253
0.013
-0.426
0.319
0.093
-0.145
-0.098
0.001
0.034
-0.069
-0.027
-0.054
0.053
0.045
0.009
-0.026
0.111
-0.054
-0.179
-0.257
0.091
0.223
-0.074
-0.143
-0.124
0.001
-0.103
-0.010
0.062
-0.032
-0.067
0.192
-0.044
-0.069
-0.097
-0.063
0.082
-0.086
-0.098
-0.025
0.102
0.059
-0.018
-0.021
0.048
-0.004
-0.214
-0.263
0.412
0.154
-0.212
-0.162
-0.065
-0.071
-0.156
0.286
0.150
-0.110
-0.172
-0.181
0.130
-0.003
0.036
0.049
-0.065
-0.106
-0.052
0.054
0.018
-0.104
0.005
0.285
0.115
-0.195
-0.081
-0.132
-0.132
-0.089
-0.285
0.194
0.531
0.001
-0.276
-0.415
-0.072
0.418
0.017
-0.093
-0.032
-0.189
-0.006
-0.149
0.166
0.241
0.020
-0.362
-0.122
-0.180
-0.067
0.321
0.065
-0.105
-0.146
-0.141
0.066
0.043
-0.085
0.022
-0.089
-0.009
0.047
0.000
-0.118
0.063
0.078
-0.064
-0.167
-0.089
0.199
0.011
-0.096
-0.069
-0.037
-0.069
0.039
0.108
0.048
-0.002
-0.111
-0.003
-0.066
-0.036
-0.079
-0.167
0.174
0.121
-0.121
-0.117
-0.223
-0.084
0.246
0.032
0.043
-0.125
-0.191
-0.043
-0.050
0.162
-0.309
0.190
-0.021
0.111
-0.011
-0.273
-0.135
-0.034
-0.004
0.285
-0.011
-0.066
0.048
-0.076
0.059
0.114
-0.110
-0.143
-0.078
0.016
0.080
-0.114
-0.126
0.145
0.205
-0.270
-0.133
0.017
0.039
-0.101
-0.099
-0.019
0.078
0.040
0.049
-0.066
-0.087
-0.031
-0.070
-0.177
-0.020
0.128
0.047
-0.103
0.020
-0.216
0.097
0.121
-0.104
-0.023
-0.164
0.186
0.037
-0.377
0.115
0.233
-0.019
0.120
-0.237
-0.059
-0.029
-0.103
0.118
0.244
-0.246
0.066
-0.012
-0.068
-0.009
-0.186
-0.199
0.579
0.039
-0.155
-0.169
0.017
-0.099
0.004
-0.190
0.084
0.157
-0.037
-0.094
-0.133
-0.090
0.014
-0.051
-0.020
0.117
-0.073
-0.113
0.018
0.054
-0.132
-0.022
0.103
0.083
0.056
-0.170
-0.165
0.076
0.064
-0.060
-0.104
0.084
0.111
-0.052
-0.123
-0.022
0.082
-0.121
-0.169
-0.046
0.029
-0.041
0.073
-0.028
-0.080
-0.050
0.402
-0.010
-0.146
-0.303
0.074
-0.073
0.012
0.105
-0.029
0.109
0.005
0.021
-0.032
-0.143
-0.112
-0.045
0.112
0.079
-0.112
-0.152
0.048
0.093
0.119
-0.150
-0.053
-0.153
0.009
-0.025
0.017
-0.155
-0.061
0.200
0.141
-0.143
-0.252
-0.030
0.186
-0.024
-0.099
-0.074
0.184
0.091
-0.196
-0.191
0.090
0.061
-0.014
-0.066
-0.249
0.188
0.153
-0.135
-0.023
0.001
-0.046
-0.144
0.020
-0.060
0.005
0.107
0.039
-0.151
-0.059
0.164
0.018
-0.015
-0.059
-0.296
-0.115
0.294
-0.001
0.038
-0.038
-0.074
-0.138
-0.020
-0.101
-0.007
0.143
0.081
-0.018
-0.145
-0.120
-0.087
-0.016
-0.190
-0.021
0.421
-0.063
0.009
-0.153
-0.176
0.127
-0.116
-0.102
-0.031
-0.049
0.003
0.063
-0.001
-0.076
-0.045
-0.072
-0.080
0.008
0.044
0.006
-0.074
-0.127
-0.007
0.055
-0.010
-0.001
0.017
-0.030
-0.048
0.023
-0.133
-0.451
0.195
0.783
0.076
-0.351
-0.244
-0.210
-0.368
0.036
0.210
0.289
0.130
-0.015
-0.110
-0.130
0.039
-0.020
-0.071
-0.037
0.094
-0.096
0.039
-0.002
-0.155
0.038
-0.039
0.044
-0.071
-0.035
-0.036
0.031
0.018
-0.206
-0.288
0.089
0.349
-0.194
-0.080
0.341
0.065
-0.243
-0.105
-0.093
0.058
0.073
-0.196
0.139
0.079
-0.190
-0.000
0.062
-0.029
-0.038
-0.233
-0.090
0.247
0.135
-0.054
0.010
-0.113
0.099
0.143
-0.109
-0.135
-0.042
0.053
0.024
0.063
0.004
-0.162
-0.085
0.020
0.004
-0.254
0.245
0.019
-0.263
-0.138
0.346
-0.091
-0.234
-0.205
0.204
0.329
-0.208
-0.192
-0.146
0.281
-0.105
-0.066
-0.015
-0.141
0.066
0.019
0.009
-0.140
0.073
0.019
-0.023
-0.025
-0.085
0.132
-0.159
-0.035
-0.004
0.092
0.183
-0.147
-0.236
0.032
-0.047
0.018
0.087
0.263
-0.116
-0.212
-0.124
0.017
0.017
0.064
-0.071
-0.036
0.025
0.053
-0.254
0.060
0.194
0.012
-0.145
-0.071
-0.242
0.099
0.153
-0.086
0.100
-0.216
-0.258
0.363
0.092
-0.037
-0.022
-0.052
-0.188
-0.117
-0.078
0.203
0.157
-0.168
-0.029
-0.034
-0.132
-0.123
0.110
0.055
0.120
-0.031
-0.178
0.065
-0.083
-0.168
-0.035
0.118
-0.067
0.116
0.060
-0.039
0.059
-0.208
-0.041
0.117
-0.098
0.047
-0.067
-0.170
-0.027
0.197
0.229
-0.079
-0.084
-0.117
-0.067
0.088
-0.197
-0.224
0.064
0.093
0.013
0.006
-0.051
-0.110
-0.037
-0.140
0.000
-0.053
0.053
-0.022
-0.064
-0.149
-0.191
0.331
0.038
-0.081
0.107
0.139
-0.198
-0.197
-0.146
0.095
0.030
0.061
-0.099
-0.103
0.086
-0.004
0.013
-0.059
-0.320
-0.132
0.119
0.032
0.035
-0.107
-0.025
-0.073
-0.100
-0.235
0.278
0.297
-0.141
-0.202
-0.040
-0.053
-0.123
-0.257
0.316
0.069
-0.129
0.193
0.081
-0.036
-0.192
-0.234
-0.047
0.303
0.023
-0.131
0.202
-0.079
-0.089
-0.062
-0.083
0.034
-0.208
-0.004
-0.058
0.010
-0.025
-0.031
0.013
0.045
-0.036
-0.110
-0.040
-0.012
0.103
-0.062
-0.143
-0.033
0.030
0.090
-0.025
-0.054
-0.026
-0.140
-0.022
0.284
-0.029
-0.037
-0.152
-0.027
-0.162
-0.035
0.025
0.056
-0.088
-0.098
0.136
-0.010
-0.113
0.085
-0.122
-0.230
0.027
0.338
-0.062
-0.110
-0.012
0.137
0.066
0.019
-0.045
-0.093
-0.039
-0.016
0.150
0.225
-0.210
-0.237
-0.035
-0.123
-0.071
-0.014
-0.002
-0.177
0.000
0.257
-0.159
-0.146
-0.021
0.007
0.086
-0.140
0.008
0.108
-0.262
-0.140
0.301
0.009
-0.239
0.095
-0.008
-0.093
-0.022
0.017
-0.004
-0.064
0.012
-0.180
-0.046
0.245
0.160
-0.228
-0.240
0.063
0.065
0.103
0.121
-0.178
-0.083
-0.082
0.036
-0.050
0.063
-0.105
-0.094
-0.117
0.086
-0.005
0.059
-0.044
-0.105
0.062
-0.045
-0.092
-0.282
-0.108
0.392
0.265
-0.087
-0.194
-0.147
0.044
0.010
-0.054
-0.002
0.017
-0.028
-0.039
-0.019
0.066
-0.094
-0.030
0.025
-0.007
-0.107
0.100
0.025
-0.263
-0.259
0.447
0.271
-0.219
-0.119
-0.089
-0.104
-0.000
0.028
-0.058
-0.286
0.235
0.371
-0.005
-0.258
-0.290
0.144
-0.117
-0.024
-0.017
0.070
0.106
-0.188
-0.013
0.099
-0.057
0.035
0.033
0.001
-0.108
-0.140
0.037
-0.060
0.222
0.013
-0.059
-0.052
-0.168
0.049
0.125
-0.049
-0.052
-0.039
0.129
0.017
-0.198
0.023
-0.025
0.027
0.081
-0.052
-0.115
-0.001
0.121
-0.171
0.058
-0.040
-0.035
-0.177
-0.219
0.380
-0.153
-0.017
0.161
-0.251
-0.090
0.068
0.146
-0.168
-0.077
-0.060
-0.095
0.014
0.117
0.131
0.003
-0.198
-0.150
0.126
-0.078
-0.065
0.000
0.216
-0.093
-0.105
-0.203
0.074
0.103
-0.117
-0.102
0.036
0.032
0.065
0.073
-0.042
-0.021
-0.177
-0.181
-0.141
0.180
0.192
-0.138
-0.193
0.016
-0.138
0.423
-0.000
-0.324
-0.156
-0.011
0.038
0.013
-0.031
0.074
-0.092
-0.181
-0.058
0.302
-0.096
-0.256
-0.071
-0.108
0.015
0.058
0.090
0.078
-0.111
-0.205
0.231
0.245
-0.403
-0.209
0.538
-0.149
-0.172
-0.211
0.072
0.129
-0.054
-0.007
-0.074
-0.095
-0.158
0.039
0.124
-0.018
-0.171
-0.115
-0.160
0.134
0.176
-0.178
0.051
0.084
-0.212
-0.051
-0.025
-0.187
-0.230
0.159
0.291
0.139
-0.217
-0.164
-0.099
-0.104
0.017
0.218
-0.058
-0.085
-0.064
-0.078
-0.033
0.094
-0.028
-0.076
-0.038
0.057
0.154
0.214
-0.303
-0.078
-0.103
-0.114
-0.122
0.129
0.106
-0.003
-0.061
-0.002
-0.059
-0.116
-0.065
-0.086
0.022
-0.033
0.200
-0.107
-0.068
-0.193
-0.007
0.060
-0.005
0.029
-0.061
-0.034
-0.206
-0.129
0.324
0.077
-0.210
0.049
-0.059
-0.093
-0.044
-0.154
-0.141
0.346
0.189
-0.176
-0.044
-0.068
0.251
-0.251
-0.068
0.044
-0.119
-0.049
-0.061
0.175
-0.030
0.065
0.040
-0.250
-0.284
0.221
0.324
-0.185
-0.318
0.165
-0.143
0.111
0.089
-0.005
0.098
0.062
-0.202
-0.398
0.207
0.372
-0.140
-0.103
0.050
-0.033
-0.405
-0.045
0.393
0.059
-0.226
0.049
-0.070
-0.170
0.071
-0.056
-0.019
-0.210
0.182
0.194
-0.219
-0.313
0.287
-0.084
-0.179
-0.103
0.230
0.063
0.027
-0.118
0.032
-0.195
-0.029
0.033
0.094
-0.218
0.113
0.052
-0.150
-0.054
0.022
0.055
-0.012
-0.067
-0.068
-0.011
-0.028
-0.052
-0.139
0.089
0.232
-0.040
-0.187
-0.162
0.036
0.128
-0.076
-0.001
0.015
-0.219
0.047
0.089
0.043
0.048
-0.311
-0.075
0.039
-0.021
-0.001
0.019
-0.037
-0.052
-0.111
-0.225
-0.003
0.233
-0.007
-0.026
0.003
-0.205
-0.047
-0.060
-0.052
0.070
0.079
0.040
-0.140
-0.025
0.200
-0.043
-0.208
-0.110
0.118
0.074
0.084
-0.046
-0.019
-0.136
-0.055
-0.083
-0.007
0.252
0.058
-0.202
-0.100
-0.021
-0.138
-0.324
0.297
0.422
-0.110
-0.164
-0.140
-0.023
-0.089
-0.086
0.074
0.127
-0.211
-0.026
0.414
-0.077
-0.296
-0.235
0.152
-0.045
-0.196
0.093
0.168
-0.129
-0.030
0.055
-0.049
-0.124
0.003
0.012
-0.035
-0.296
0.033
0.492
0.146
-0.180
-0.272
-0.083
0.000
-0.039
-0.035
0.116
0.069
-0.081
-0.162
0.083
-0.073
-0.084
-0.072
0.051
0.017
-0.131
-0.329
0.059
0.315
0.106
0.048
-0.082
-0.040
-0.189
-0.384
0.128
0.458
0.032
-0.087
-0.141
-0.138
-0.041
-0.026
0.056
-0.109
-0.145
0.015
0.051
0.075
-0.130
-0.132
-0.089
-0.041
0.146
0.204
0.006
-0.195
-0.266
-0.039
-0.007
0.060
0.165
0.037
0.038
-0.157
-0.165
-0.024
-0.007
0.044
0.099
-0.123
