-0.020
-0.006
0.141
-0.013
-0.010
-0.014
0.004
-0.065
0.008
0.024
0.037
-0.022
-0.008
0.022
-0.045
0.003
0.124
-0.067
0.023
-0.025
0.024
0.008
0.027
0.041
0.004
-0.027
0.021
0.030
0.049
-0.028
0.021
0.040
0.013
0.011
-0.010
-0.015
0.035
0.031
0.049
0.013
0.061
0.100
0.005
0.027
-0.020
-0.026
-0.031
0.026
0.011
0.073
0.072
-0.045
-0.022
-0.053
0.018
0.036
0.014
-0.082
0.104
-0.018
0.103
0.069
-0.028
-0.033
-0.024
0.138
0.024
0.017
0.093
0.014
-0.001
-0.005
0.002
-0.009
0.042
0.020
0.108
-0.033
0.033
0.017
-0.012
-0.004
0.061
-0.011
-0.008
0.020
-0.015
-0.006
-0.010
0.065
0.034
0.028
0.024
-0.006
0.036
-0.011
-0.015
0.057
0.121
-0.033
-0.064
0.011
-0.040
0.125
0.049
-0.052
0.018
0.067
0.050
-0.118
0.021
0.016
0.044
-0.018
-0.044
0.081
0.010
-0.035
-0.058
0.057
0.002
-0.073
-0.014
0.147
-0.004
-0.044
-0.025
-0.015
0.013
0.125
-0.002
0.007
0.015
0.035
-0.046
0.092
-0.005
-0.082
0.065
-0.046
0.028
0.036
0.017
0.016
-0.079
0.127
0.038
0.002
0.052
0.017
0.020
0.005
0.024
-0.037
-0.034
0.065
0.009
0.023
0.041
0.045
0.000
0.024
0.005
-0.058
-0.011
0.082
-0.007
0.009
0.010
0.038
-0.005
0.085
0.022
-0.071
0.004
0.076
0.040
0.082
-0.051
-0.007
0.056
-0.060
-0.086
0.104
-0.021
0.000
0.041
-0.005
0.106
-0.023
0.061
-0.070
0.033
-0.015
0.081
0.054
0.070
-0.009
-0.034
0.003
0.015
0.040
-0.072
0.068
0.059
-0.094
0.053
0.065
0.109
0.051
0.057
-0.073
-0.079
0.005
-0.039
0.096
0.111
0.001
-0.093
0.024
0.037
0.082
0.003
-0.043
-0.062
0.064
0.110
-0.050
0.057
0.049
0.053
-0.085
-0.002
-0.022
0.044
-0.063
0.093
0.044
0.101
-0.035
0.011
0.089
0.070
-0.107
0.001
-0.046
0.151
0.103
-0.004
0.075
-0.040
0.065
0.087
0.000
-0.018
0.007
0.101
-0.027
-0.014
-0.028
-0.049
0.016
-0.018
0.133
0.002
0.088
0.013
0.034
0.008
-0.087
0.103
-0.004
0.023
-0.077
0.108
-0.035
0.022
0.084
0.025
-0.022
-0.021
0.018
-0.037
0.051
0.137
0.063
-0.086
0.011
0.005
0.098
0.035
-0.031
0.035
-0.023
0.034
0.006
0.086
0.208
0.067
-0.062
-0.031
0.035
-0.031
0.049
-0.046
-0.046
0.071
-0.016
-0.052
-0.075
0.041
0.004
0.025
0.061
0.014
0.050
-0.024
0.057
-0.043
-0.018
-0.053
0.030
0.025
0.050
0.029
-0.056
-0.065
0.010
0.131
0.048
-0.093
0.065
-0.052
-0.004
0.046
0.004
-0.029
0.030
0.039
0.096
0.051
0.014
-0.012
0.007
0.010
0.028
0.071
-0.034
0.057
0.027
0.066
0.057
0.051
-0.034
-0.055
0.099
-0.002
0.019
-0.001
0.098
-0.052
-0.029
0.013
0.011
0.101
0.021
-0.028
0.015
0.006
0.053
-0.014
-0.069
-0.031
0.054
0.043
-0.077
0.106
-0.065
0.027
0.061
-0.002
0.143
-0.002
-0.052
-0.017
0.048
0.003
0.076
-0.028
0.060
0.051
-0.029
0.091
0.004
0.046
-0.018
0.069
0.072
0.035
0.012
-0.026
-0.088
0.122
0.100
-0.042
0.046
-0.051
0.109
0.041
-0.041
0.064
-0.006
-0.022
-0.013
0.008
-0.007
0.099
0.043
0.030
-0.019
-0.056
0.074
0.009
0.059
-0.018
0.041
-0.044
-0.022
-0.040
0.038
0.078
0.059
0.101
-0.055
0.102
-0.067
-0.055
0.008
0.053
0.039
-0.053
0.114
0.071
0.090
-0.054
-0.075
-0.004
0.078
0.031
0.016
0.041
-0.008
0.030
0.013
0.033
0.076
0.045
0.016
0.073
0.025
0.026
0.071
-0.001
0.073
0.068
-0.046
0.024
-0.011
0.026
-0.037
0.032
0.008
0.002
-0.010
0.069
0.094
-0.058
-0.024
-0.010
0.191
-0.034
0.045
-0.013
-0.003
0.009
0.019
0.065
0.025
0.082
-0.028
-0.067
0.022
-0.004
0.036
-0.026
-0.044
0.106
0.017
-0.066
-0.009
0.069
0.091
0.094
-0.047
0.072
-0.046
0.043
0.027
0.002
0.093
-0.035
0.027
-0.028
0.074
0.045
-0.022
-0.016
0.057
0.006
-0.033
0.052
0.010
0.043
0.039
0.068
0.040
0.010
-0.066
-0.007
0.036
0.036
0.087
-0.033
0.001
0.022
0.026
-0.027
0.017
0.010
0.164
-0.047
0.011
-0.097
0.061
0.077
-0.095
0.054
0.055
-0.008
0.014
0.049
0.064
0.029
-0.018
0.028
0.028
0.070
-0.037
0.004
0.019
0.033
0.093
-0.037
0.074
-0.008
0.083
-0.029
-0.040
0.002
0.014
0.051
0.067
0.057
-0.001
-0.010
0.001
-0.065
0.042
0.187
0.026
-0.028
0.051
0.043
0.037
-0.029
0.036
0.053
0.159
-0.043
0.041
0.001
0.019
-0.015
0.072
0.035
0.002
0.029
0.054
0.005
0.011
0.007
-0.074
0.029
0.027
-0.033
0.055
0.063
-0.018
-0.022
0.019
0.057
0.099
0.062
-0.003
-0.075
0.053
-0.016
0.013
0.013
-0.046
0.019
0.108
0.084
-0.058
0.113
0.025
-0.054
0.018
-0.018
0.014
0.170
0.046
-0.027
-0.057
0.060
-0.004
-0.029
0.075
0.054
-0.102
0.018
-0.024
-0.032
-0.016
0.157
0.061
0.034
-0.044
0.084
0.093
0.007
-0.080
0.043
0.035
0.049
0.047
0.054
-0.056
-0.040
-0.044
0.036
0.052
-0.061
-0.044
0.110
0.045
0.041
0.008
0.001
0.018
0.004
0.002
0.062
0.097
0.066
0.033
0.005
-0.075
0.068
0.081
0.046
-0.008
-0.042
-0.033
0.075
0.019
-0.010
0.044
0.005
0.055
-0.096
0.016
0.076
0.019
-0.043
-0.050
0.086
-0.001
0.081
0.053
-0.070
0.118
0.037
-0.060
0.009
0.108
0.016
0.004
0.011
0.127
0.087
0.024
0.007
-0.059
-0.017
0.060
0.085
-0.015
0.093
-0.108
-0.019
0.040
0.100
-0.005
0.017
0.034
-0.055
-0.044
-0.036
0.041
0.056
0.095
0.047
0.009
0.009
-0.073
-0.073
0.042
0.082
0.035
-0.027
0.029
0.022
0.015
0.009
-0.013
-0.065
0.034
0.120
0.073
-0.039
0.016
-0.044
-0.061
0.071
0.052
-0.047
-0.038
0.030
0.129
-0.041
0.065
-0.022
0.043
-0.037
-0.054
-0.008
0.059
0.042
0.007
0.006
0.021
-0.018
0.014
-0.012
-0.041
0.075
0.075
-0.056
0.027
0.031
-0.033
0.015
-0.006
0.078
-0.025
-0.001
0.084
0.043
-0.097
-0.034
0.009
0.011
0.013
0.043
0.034
0.022
0.051
0.052
0.045
-0.100
0.115
-0.011
0.047
0.030
-0.073
-0.032
0.125
0.088
0.065
0.065
-0.044
-0.006
0.029
0.027
0.058
0.030
0.015
0.009
0.005
0.048
-0.050
-0.072
0.088
0.080
0.084
-0.075
-0.022
-0.053
0.087
-0.032
0.059
0.077
0.050
0.025
0.062
-0.070
0.018
0.023
0.033
0.107
0.078
0.013
-0.022
-0.073
-0.014
0.028
0.057
-0.061
0.128
-0.011
0.043
-0.101
0.192
0.032
-0.087
-0.004
-0.012
-0.010
0.134
0.075
-0.046
-0.134
0.020
0.082
0.043
-0.008
0.026
0.075
-0.001
-0.033
0.010
0.090
0.050
0.084
-0.017
-0.057
-0.022
-0.039
-0.027
0.061
-0.002
0.002
0.013
0.044
-0.002
-0.002
-0.057
0.055
-0.019
-0.004
-0.006
-0.027
0.054
0.037
0.025
-0.034
-0.072
0.034
0.112
-0.024
-0.001
-0.074
0.012
0.030
0.036
0.076
0.049
-0.046
0.031
0.007
0.040
0.099
-0.005
-0.017
0.056
-0.047
-0.039
0.099
0.003
0.017
-0.017
-0.013
0.028
-0.011
0.012
0.072
-0.051
0.029
0.002
0.063
-0.003
-0.050
0.030
0.041
0.042
-0.014
0.060
-0.059
-0.022
0.010
-0.029
0.070
0.041
0.050
-0.031
0.017
0.050
0.039
-0.068
0.067
-0.005
-0.043
0.074
0.006
0.044
-0.029
-0.000
0.089
0.057
0.041
0.002
0.042
-0.005
0.100
0.032
0.022
0.015
-0.044
-0.022
-0.024
0.039
0.061
0.007
0.073
0.004
0.063
-0.055
-0.026
0.020
0.024
-0.032
0.067
0.050
-0.056
0.003
0.018
0.002
-0.051
0.027
0.072
0.084
-0.023
0.028
-0.021
-0.049
0.033
0.010
0.007
0.122
0.035
0.038
-0.046
0.095
0.076
-0.035
0.031
-0.023
0.072
-0.065
0.067
-0.007
0.071
0.029
0.037
0.005
-0.019
-0.076
-0.016
0.077
0.008
0.087
0.014
-0.066
-0.001
-0.044
0.159
-0.046
-0.007
-0.014
-0.041
-0.004
0.077
0.058
0.052
0.046
0.035
-0.053
0.031
0.094
0.059
0.025
-0.013
-0.044
0.052
0.109
0.033
-0.127
0.026
0.033
0.020
-0.041
0.030
-0.016
-0.075
0.009
-0.024
0.066
0.000
-0.038
0.058
-0.064
0.012
0.063
-0.089
0.077
0.074
0.109
-0.010
0.084
-0.030
-0.009
-0.066
0.120
-0.010
0.076
-0.006
0.081
0.044
-0.096
0.039
-0.039
-0.013
0.087
0.061
-0.035
-0.063
0.009
0.013
0.020
-0.063
-0.005
0.058
0.037
-0.039
0.059
0.046
-0.007
-0.094
-0.031
0.037
0.033
0.083
0.024
0.042
0.000
-0.033
0.064
0.007
0.000
-0.007
0.036
0.087
-0.060
0.067
-0.062
0.077
-0.158
0.081
0.105
0.033
-0.017
-0.006
0.048
-0.079
-0.013
0.086
0.077
-0.052
0.050
0.083
-0.062
-0.041
0.026
0.067
0.057
-0.026
-0.012
0.037
0.016
0.018
-0.060
-0.004
0.063
0.015
0.025
0.050
0.004
-0.003
0.072
0.080
0.089
0.090
-0.047
-0.071
0.011
0.081
-0.018
0.044
0.042
-0.043
-0.025
0.067
0.097
0.071
-0.031
-0.074
-0.023
0.003
0.059
-0.017
-0.048
0.084
-0.034
0.105
0.036
-0.025
-0.010
0.071
0.040
0.024
-0.052
-0.089
0.034
0.117
0.089
-0.098
-0.007
0.068
0.023
0.057
-0.007
0.058
-0.060
0.032
0.146
0.132
-0.073
-0.058
0.037
0.049
0.016
0.010
0.074
-0.031
-0.058
0.058
-0.039
0.036
0.088
0.051
0.009
-0.062
-0.064
0.023
0.013
0.038
0.014
0.054
0.077
-0.008
-0.029
-0.093
0.051
-0.006
-0.046
-0.019
0.046
0.011
0.099
0.003
-0.069
0.014
0.149
-0.041
-0.034
0.056
-0.002
0.004
-0.006
0.009
0.043
0.065
0.125
-0.032
-0.054
0.047
0.048
-0.050
0.032
0.028
-0.021
0.009
-0.029
0.022
0.068
-0.090
-0.008
0.081
0.032
0.041
0.020
-0.044
-0.100
0.062
0.077
-0.020
0.016
-0.101
0.132
-0.025
0.052
0.113
0.018
-0.050
-0.021
0.027
-0.049
0.078
0.023
0.045
0.059
-0.087
-0.035
0.051
0.101
0.004
0.069
-0.085
-0.073
0.016
-0.017
0.060
0.042
0.088
-0.052
0.107
-0.032
0.023
-0.054
0.013
0.123
0.049
0.043
0.084
-0.092
0.044
0.043
-0.008
-0.067
0.000
0.053
0.048
-0.008
-0.046
0.066
0.073
-0.054
0.036
0.039
0.070
0.007
0.057
-0.045
0.044
0.067
-0.042
0.038
0.085
-0.042
0.024
-0.015
-0.002
0.059
0.088
0.036
0.018
0.084
-0.014
-0.048
0.062
-0.018
0.010
-0.006
0.028
0.136
0.004
-0.100
-0.004
0.110
0.036
0.087
-0.005
-0.027
0.020
0.078
-0.107
0.043
0.021
0.064
0.087
0.020
-0.030
-0.091
0.039
-0.032
0.025
0.058
0.008
0.010
0.030
0.046
0.015
-0.067
0.000
0.088
-0.072
0.043
0.046
-0.008
0.125
-0.001
0.017
0.008
0.055
-0.011
0.174
0.091
-0.136
0.043
0.009
0.023
0.049
-0.043
0.087
0.011
0.002
-0.071
0.052
0.022
0.091
0.024
0.031
-0.080
0.034
-0.049
-0.047
0.017
0.068
0.144
0.002
0.028
-0.082
0.006
0.036
0.015
0.101
-0.053
0.008
-0.012
-0.013
-0.066
0.067
-0.014
0.064
0.025
0.077
0.100
-0.083
-0.073
0.114
-0.037
-0.006
0.047
-0.034
0.009
-0.010
0.030
-0.008
-0.013
0.036
0.024
0.031
-0.001
0.125
-0.004
0.005
-0.015
0.046
0.058
-0.029
0.020
0.029
0.023
0.045
-0.022
-0.036
-0.031
-0.030
0.110
0.083
-0.093
0.024
0.089
0.092
0.066
0.029
-0.110
0.033
0.091
-0.100
-0.009
-0.012
0.025
-0.001
0.015
-0.097
-0.134
0.048
0.016
0.019
0.009
0.040
0.056
-0.020
0.079
0.049
0.033
0.025
0.003
0.052
0.041
0.073
0.001
0.047
-0.055
0.022
-0.037
0.076
0.065
-0.021
0.093
-0.015
0.069
-0.033
0.070
0.048
0.043
-0.036
0.084
0.065
0.072
-0.036
-0.013
0.033
-0.006
-0.007
-0.043
-0.059
0.032
0.120
0.039
0.025
0.055
-0.006
-0.020
0.029
0.042
-0.005
0.079
0.012
-0.027
0.130
0.116
0.021
-0.051
-0.057
0.055
0.034
0.101
0.029
-0.001
-0.024
0.012
0.006
0.056
0.027
-0.131
0.006
0.062
0.042
0.055
-0.021
0.094
0.021
-0.107
0.016
0.064
0.098
0.044
0.061
-0.101
0.036
-0.082
-0.025
0.149
0.052
0.081
0.065
-0.126
0.027
-0.043
0.033
0.166
-0.013
0.009
0.003
0.037
0.038
-0.012
-0.002
-0.035
0.086
0.028
0.034
-0.044
-0.017
0.017
0.032
0.021
-0.065
0.057
0.068
0.003
0.110
0.023
0.023
-0.077
0.067
-0.039
0.022
-0.023
0.031
0.119
0.019
-0.019
-0.112
0.024
0.114
-0.034
0.045
-0.035
0.058
0.097
0.007
0.000
0.153
-0.002
-0.069
-0.003
0.053
0.023
-0.060
0.043
0.047
0.055
0.004
0.041
0.034
0.015
-0.024
0.061
-0.011
0.084
0.079
0.012
-0.030
0.003
0.052
-0.009
-0.017
-0.010
0.054
-0.045
0.041
-0.082
0.007
0.116
0.043
-0.068
0.104
-0.052
0.067
-0.021
0.068
-0.054
0.101
-0.052
0.030
0.043
0.056
0.028
0.075
0.122
-0.109
-0.004
-0.046
-0.106
0.000
0.026
0.005
0.064
0.071
-0.018
-0.009
-0.022
0.009
-0.047
0.099
0.041
-0.030
0.016
-0.000
0.079
-0.019
-0.043
0.099
0.059
0.030
0.008
0.064
0.008
0.007
0.035
0.040
-0.056
-0.030
0.009
0.035
0.057
-0.034
-0.006
-0.062
0.028
0.079
-0.042
0.078
0.071
0.010
0.099
-0.036
-0.079
-0.040
-0.036
0.069
0.098
0.156
-0.036
-0.133
0.013
0.044
-0.014
0.048
0.048
0.030
0.040
0.025
-0.056
0.056
0.045
0.058
0.031
-0.093
0.022
0.022
0.096
0.056
0.005
0.053
0.025
0.037
-0.046
0.031
-0.031
0.056
-0.037
0.146
0.075
-0.061
-0.073
0.041
-0.017
0.029
-0.065
0.111
0.041
0.041
0.004
-0.046
0.066
-0.009
0.001
-0.011
0.112
-0.003
0.071
-0.129
-0.032
-0.081
0.076
0.073
0.027
0.039
0.005
0.044
0.021
0.101
-0.139
0.017
0.113
-0.022
0.017
-0.006
0.085
-0.036
-0.028
-0.040
0.029
0.063
0.085
0.043
-0.092
0.016
0.053
-0.089
-0.017
-0.002
0.050
0.061
0.034
0.038
-0.009
0.033
0.071
-0.018
0.002
-0.086
0.093
0.027
-0.034
0.005
-0.070
0.010
-0.026
0.071
0.081
0.049
0.071
-0.045
0.140
0.001
-0.039
-0.015
-0.065
0.041
0.057
-0.023
0.003
0.028
-0.098
0.043
0.008
0.006
0.004
0.000
0.091
0.071
-0.002
-0.065
-0.108
0.095
0.038
0.080
0.114
-0.051
0.027
0.051
0.047
0.017
-0.052
-0.045
0.097
0.052
-0.023
0.043
-0.059
0.057
0.007
-0.050
0.130
0.049
0.013
-0.028
0.003
0.021
-0.009
0.013
-0.095
-0.032
-0.013
0.126
0.027
0.011
-0.001
0.045
0.084
0.010
-0.059
0.040
-0.011
0.033
0.044
-0.037
0.082
0.004
0.099
0.002
-0.033
-0.007
-0.028
0.087
0.050
0.090
-0.085
-0.056
0.042
0.065
-0.020
-0.034
-0.054
0.015
0.106
-0.012
-0.011
0.030
0.083
-0.108
0.148
-0.052
-0.004
0.030
0.033
0.092
0.046
-0.007
-0.035
0.023
-0.005
-0.003
0.025
-0.050
-0.033
-0.003
0.088
-0.007
0.047
0.041
-0.001
0.059
0.059
0.010
-0.021
-0.005
0.012
-0.040
0.057
0.103
0.069
-0.007
0.062
-0.001
-0.118
0.024
-0.018
0.103
-0.008
-0.020
0.055
-0.034
0.003
0.019
0.029
0.038
-0.001
0.016
0.009
0.026
0.064
0.018
0.051
-0.046
0.027
-0.064
0.002
0.023
0.013
0.120
0.011
-0.007
-0.031
-0.012
0.119
-0.029
0.060
-0.013
0.051
0.003
0.103
-0.048
-0.041
-0.077
0.078
0.079
-0.037
0.003
0.002
0.079
-0.008
0.077
0.044
-0.034
0.048
0.032
0.023
0.032
0.015
-0.038
-0.008
0.101
-0.018
0.029
-0.012
-0.012
-0.056
0.035
0.006
0.009
0.063
-0.070
-0.027
0.049
0.043
0.046
-0.041
0.003
0.060
0.082
0.005
0.010
-0.023
-0.022
0.078
0.027
0.034
-0.042
0.003
0.133
0.016
0.055
0.020
0.122
-0.008
0.009
-0.035
-0.039
0.002
0.037
0.046
0.004
0.033
-0.080
-0.048
0.093
0.103
0.064
-0.021
-0.060
-0.056
-0.049
0.047
0.136
-0.046
0.028
0.053
-0.029
-0.011
-0.061
0.044
-0.012
0.067
0.075
0.069
-0.071
-0.018
0.067
0.007
0.098
-0.041
0.106
-0.057
0.023
0.065
0.029
0.090
-0.065
0.018
-0.040
0.010
0.074
-0.047
0.038
0.072
0.098
-0.016
0.026
-0.007
-0.021
0.083
0.083
-0.041
-0.006
-0.031
0.040
-0.008
-0.049
0.015
0.019
-0.020
0.033
0.093
-0.007
-0.044
0.014
0.038
0.060
0.005
0.123
0.084
0.096
0.004
-0.071
-0.062
0.047
0.085
0.046
0.025
-0.050
0.019
-0.027
-0.050
0.046
0.012
-0.030
0.053
0.042
-0.041
-0.081
0.019
0.055
0.050
-0.020
0.065
-0.020
0.049
-0.034
-0.052
0.116
0.031
-0.007
-0.002
-0.017
0.076
0.076
0.046
-0.069
-0.002
-0.038
0.082
0.044
-0.009
0.055
0.052
-0.039
-0.003
0.119
-0.041
-0.046
0.104
0.001
-0.019
0.042
0.037
-0.037
-0.024
0.059
-0.003
-0.008
0.066
0.023
0.013
0.032
-0.034
0.088
-0.017
0.064
-0.046
-0.002
-0.040
0.047
-0.020
-0.006
-0.011
0.056
-0.007
0.004
-0.054
0.031
0.132
-0.030
-0.016
0.158
-0.108
0.049
0.025
0.068
0.003
-0.071
0.027
-0.011
0.060
0.014
-0.047
0.013
0.019
0.094
0.015
0.021
-0.013
-0.019
0.088
0.010
-0.035
0.007
0.022
0.012
0.090
0.054
0.059
0.060
-0.008
0.047
-0.093
0.039
0.023
0.040
0.022
0.096
0.011
0.042
0.013
-0.045
-0.068
0.063
0.052
0.053
-0.022
0.026
-0.009
0.061
-0.062
-0.102
0.087
0.093
0.045
-0.029
0.116
-0.057
0.036
0.020
-0.015
0.025
0.014
0.042
0.002
0.005
-0.005
0.030
0.115
-0.033
0.018
-0.011
-0.010
0.056
-0.025
0.022
0.030
0.060
0.038
-0.073
0.047
0.061
0.016
0.108
0.011
0.015
0.077
0.033
-0.047
-0.014
0.046
0.067
0.039
-0.066
0.012
0.085
0.105
0.057
-0.079
-0.063
0.082
0.102
-0.016
-0.018
0.018
-0.046
0.064
0.034
-0.057
0.019
-0.049
0.035
-0.049
-0.011
0.079
0.114
0.033
-0.035
0.061
0.074
0.039
-0.011
-0.031
0.063
-0.024
0.019
0.074
0.051
-0.026
-0.030
-0.022
-0.068
0.088
0.006
0.075
-0.042
0.098
-0.000
0.016
-0.062
-0.001
0.050
0.064
0.039
-0.028
0.060
0.010
0.106
-0.006
0.069
-0.065
0.051
-0.029
-0.034
0.009
0.137
0.030
0.009
0.034
-0.009
0.055
-0.022
0.049
-0.053
-0.003
-0.006
-0.012
0.061
0.088
-0.054
0.081
0.009
-0.032
-0.014
0.058
0.084
-0.024
0.037
0.110
-0.031
-0.031
0.017
0.006
0.033
0.109
0.027
-0.033
0.007
0.006
0.068
0.110
-0.084
-0.045
-0.046
0.048
0.040
0.056
0.015
0.035
0.164
-0.115
-0.042
0.007
-0.027
-0.016
0.040
0.032
0.057
0.039
0.087
0.053
-0.033
-0.076
0.009
0.065
0.027
0.080
-0.029
0.063
-0.017
-0.065
0.061
-0.029
0.044
0.129
-0.022
-0.021
0.081
-0.059
-0.009
0.075
0.027
0.064
0.078
-0.003
-0.044
-0.018
-0.029
0.058
0.057
0.041
-0.019
-0.023
0.062
-0.022
-0.050
0.121
0.067
-0.007
-0.132
0.029
0.075
-0.074
-0.036
0.001
-0.016
0.101
0.060
0.023
-0.026
0.053
-0.008
0.003
-0.044
0.000
0.092
0.013
-0.014
0.011
-0.026
0.051
-0.069
-0.016
0.088
-0.026
0.017
0.055
0.065
0.053
-0.044
-0.071
0.066
0.091
-0.030
-0.073
0.006
-0.122
-0.020
0.077
0.025
0.084
0.107
0.003
-0.009
0.099
0.040
-0.062
0.002
-0.027
0.049
-0.017
0.138
0.077
-0.017
-0.083
0.020
0.010
-0.024
-0.028
0.019
-0.002
-0.014
-0.116
-0.048
-0.006
0.057
0.040
0.051
0.078
-0.003
0.055
0.021
-0.087
0.001
0.136
0.013
-0.015
0.067
0.039
-0.004
0.043
-0.033
-0.021
0.135
-0.070
0.081
-0.013
0.022
-0.003
0.028
-0.001
-0.001
0.057
0.012
0.064
0.039
-0.027
-0.059
0.041
-0.033
0.080
0.067
-0.011
0.080
0.019
0.022
-0.023
0.004
0.072
0.073
0.075
-0.023
0.069
0.006
-0.004
0.012
-0.005
-0.001
0.049
0.015
0.040
-0.064
0.109
0.049
-0.049
-0.094
0.081
0.057
0.040
-0.015
-0.003
0.026
0.013
0.159
0.057
0.011
0.009
-0.030
0.053
-0.019
0.110
0.016
-0.051
0.019
0.043
0.052
-0.063
0.026
0.137
-0.002
-0.082
-0.028
0.006
-0.031
0.052
0.071
-0.079
-0.032
-0.032
0.123
0.035
0.034
0.019
0.031
0.040
-0.020
0.030
-0.036
0.125
0.103
-0.056
-0.056
0.072
0.126
0.092
-0.022
0.009
-0.024
0.040
-0.055
0.029
0.052
0.006
0.098
0.009
0.011
0.003
0.033
-0.033
0.072
-0.014
-0.033
0.135
0.020
0.037
-0.061
-0.067
0.038
0.052
-0.036
-0.001
0.006
0.008
0.001
0.122
0.071
-0.062
0.060
0.025
0.013
-0.068
0.011
0.016
0.105
-0.036
-0.008
-0.030
0.021
-0.008
0.081
0.065
0.054
-0.037
-0.055
0.086
0.084
0.084
0.029
0.009
-0.030
0.072
-0.007
0.053
0.031
0.071
-0.071
-0.010
0.120
-0.059
0.068
0.008
0.083
-0.040
-0.023
-0.005
0.025
0.063
0.044
0.014
0.013
0.069
-0.010
0.010
0.003
0.039
-0.028
-0.080
-0.025
0.178
0.027
0.038
-0.098
-0.012
0.023
0.015
0.030
-0.045
-0.008
0.056
0.056
0.020
0.027
-0.015
0.040
0.042
0.007
0.040
0.020
0.070
0.006
0.071
-0.007
-0.004
-0.015
-0.006
0.073
0.038
0.000
-0.028
0.049
-0.015
0.022
-0.027
0.056
0.081
0.052
0.058
0.007
-0.027
0.083
0.027
0.024
-0.007
-0.016
-0.002
0.005
0.166
0.034
0.067
-0.046
-0.046
0.017
0.041
0.134
-0.019
-0.012
0.058
0.021
0.038
0.038
0.015
-0.007
-0.054
0.017
0.026
0.039
0.072
-0.021
0.006
0.029
0.071
0.020
-0.007
-0.019
0.047
0.040
0.034
0.042
0.019
-0.008
-0.030
0.084
-0.111
0.053
-0.008
0.150
0.058
-0.001
-0.049
0.035
0.050
0.102
0.018
-0.019
-0.060
-0.015
0.113
0.032
0.020
0.094
0.056
0.001
-0.101
-0.028
0.075
-0.006
-0.009
-0.063
0.099
-0.029
0.079
-0.022
0.040
-0.033
0.053
0.087
-0.046
-0.017
0.091
-0.071
-0.014
0.135
0.075
-0.004
-0.019
0.016
0.015
-0.004
-0.038
-0.023
0.025
0.035
0.003
-0.015
0.049
-0.077
0.107
-0.035
0.013
0.016
0.059
-0.017
0.065
0.043
0.017
0.057
-0.026
0.042
0.042
0.067
-0.007
-0.058
-0.105
0.034
-0.035
-0.016
0.167
0.031
-0.032
-0.024
0.066
-0.015
0.099
0.090
-0.031
-0.105
0.067
-0.015
0.049
-0.029
0.015
-0.015
0.037
0.068
0.031
0.009
0.092
-0.031
-0.049
0.059
0.060
0.012
0.049
-0.021
-0.015
0.090
-0.022
-0.030
0.021
0.041
0.075
-0.038
0.057
0.088
-0.026
-0.058
0.020
0.053
-0.052
-0.050
0.065
-0.027
0.048
0.015
-0.029
-0.004
0.065
0.031
0.115
0.008
0.066
-0.033
-0.069
-0.016
0.069
0.009
-0.029
0.015
0.016
0.061
0.045
-0.025
-0.007
-0.092
0.007
0.085
0.112
0.044
-0.098
-0.084
0.075
-0.003
0.016
0.058
0.015
-0.035
0.027
0.037
0.044
0.017
0.023
0.060
0.043
-0.075
0.032
0.037
0.001
0.009
0.001
0.024
0.024
0.057
0.004
-0.016
0.004
0.116
-0.050
-0.015
-0.034
0.065
-0.025
0.095
-0.029
0.046
-0.032
0.024
0.080
0.026
0.019
-0.032
0.034
-0.006
0.034
-0.008
0.106
0.009
0.075
0.039
-0.015
0.085
-0.023
0.007
0.012
0.057
0.102
-0.015
-0.065
0.018
0.089
-0.018
-0.005
0.011
-0.006
0.003
0.043
0.051
0.041
-0.016
0.104
0.047
-0.106
0.064
0.004
0.024
-0.008
0.166
-0.001
-0.010
-0.021
0.084
0.008
0.141
0.038
-0.054
0.037
-0.081
0.030
0.085
0.022
0.009
0.098
-0.048
-0.028
-0.013
0.098
-0.003
0.074
0.056
0.057
0.005
-0.029
-0.047
0.040
0.055
0.019
0.011
-0.041
0.004
0.014
0.120
0.003
-0.003
-0.143
-0.072
0.073
0.042
-0.006
0.032
0.073
-0.022
0.053
-0.019
-0.024
-0.083
0.060
0.069
0.053
-0.046
-0.014
0.107
0.141
0.061
-0.026
0.016
-0.036
0.058
-0.114
0.014
0.085
0.027
0.075
-0.050
0.069
-0.001
0.013
0.002
-0.020
-0.032
0.036
0.058
-0.027
0.048
-0.075
0.033
0.122
-0.011
0.048
0.006
-0.020
-0.073
0.036
0.146
0.014
-0.004
-0.010
0.080
-0.071
0.050
0.060
0.063
0.018
0.026
0.020
-0.039
0.019
0.053
0.005
0.035
-0.067
0.082
0.030
0.032
-0.039
0.038
-0.000
0.064
0.044
0.036
-0.009
0.033
0.076
-0.051
0.004
0.099
0.085
0.005
0.016
0.038
0.010
-0.028
-0.062
-0.005
0.107
0.089
0.022
-0.021
-0.070
0.109
0.066
0.019
-0.045
0.144
0.097
0.011
-0.024
-0.045
0.072
-0.047
-0.067
-0.037
0.021
0.052
0.036
0.083
0.076
-0.062
-0.012
0.007
-0.019
0.058
0.055
0.009
0.037
0.060
0.058
0.005
-0.004
0.041
-0.021
-0.049
0.081
0.039
-0.034
0.013
0.010
0.019
-0.044
0.057
0.034
0.150
-0.093
-0.020
0.011
-0.042
0.032
0.043
-0.062
0.038
0.026
0.101
0.009
-0.007
-0.013
0.039
0.020
-0.036
0.088
0.106
0.079
-0.039
-0.060
0.123
-0.007
0.059
0.077
-0.063
-0.019
0.010
0.010
0.118
-0.026
0.023
0.007
0.075
0.043
-0.055
-0.005
-0.007
0.076
0.005
0.017
-0.061
0.005
-0.053
0.034
0.011
0.015
0.042
-0.007
0.073
0.034
0.024
0.109
-0.079
-0.132
0.053
0.051
-0.043
0.051
0.041
0.108
-0.011
0.025
-0.041
0.023
0.023
0.021
0.124
0.075
-0.015
0.011
-0.094
0.081
0.029
0.072
0.030
0.051
-0.072
0.029
0.012
-0.049
-0.023
0.005
0.052
-0.032
-0.001
-0.028
0.064
0.098
-0.015
0.028
-0.015
0.003
0.084
0.023
-0.057
0.040
-0.023
0.027
-0.018
0.004
0.079
-0.011
-0.056
0.046
0.011
0.087
0.010
0.003
-0.085
-0.035
0.012
0.035
0.072
0.044
0.055
0.010
0.034
-0.042
-0.069
0.004
0.073
0.072
0.005
0.021
0.026
0.020
0.004
0.008
0.100
0.011
0.026
0.023
0.074
0.028
-0.055
-0.009
0.048
0.029
-0.020
0.061
0.078
-0.058
0.055
0.017
-0.019
-0.008
0.097
0.022
0.021
-0.035
-0.054
0.043
0.094
0.030
0.049
-0.072
0.161
0.028
-0.036
-0.034
0.015
0.119
0.038
-0.007
-0.013
0.035
0.066
-0.006
-0.018
0.023
-0.006
0.093
-0.005
0.023
0.037
-0.015
0.031
0.017
0.098
0.073
0.039
0.052
0.003
-0.021
0.097
0.026
-0.066
0.011
-0.040
0.135
-0.002
0.008
0.008
0.013
0.058
0.071
-0.058
-0.023
-0.009
-0.034
0.036
-0.040
0.047
0.050
-0.027
0.080
0.116
0.017
-0.103
0.025
-0.104
-0.020
0.126
0.026
0.056
0.004
0.034
0.037
0.102
-0.027
-0.079
0.011
0.039
-0.018
0.028
-0.025
0.031
0.064
0.048
-0.006
-0.022
0.056
0.120
-0.014
-0.055
-0.002
0.096
-0.049
0.027
-0.061
0.038
-0.080
-0.018
0.037
0.000
0.074
-0.012
-0.002
-0.029
0.015
0.134
-0.074
-0.017
0.089
-0.050
0.065
-0.012
-0.054
-0.058
0.096
0.056
0.031
-0.010
-0.017
0.043
0.042
0.009
-0.036
-0.013
0.112
0.003
-0.100
0.064
-0.035
0.054
-0.003
0.001
0.082
-0.001
-0.035
0.021
-0.002
0.128
-0.074
-0.047
0.102
0.029
-0.025
0.097
-0.028
-0.001
-0.030
0.080
-0.008
-0.037
0.047
0.027
-0.036
0.071
0.056
0.036
0.031
0.101
0.005
-0.035
-0.040
0.097
0.031
-0.073
0.101
-0.040
-0.028
-0.007
0.070
-0.022
0.027
0.001
0.074
0.037
0.014
0.021
-0.008
-0.000
0.072
-0.046
0.087
-0.042
0.046
-0.033
0.041
0.036
0.075
-0.028
-0.006
0.022
0.025
0.001
-0.015
0.014
0.052
0.043
0.041
-0.025
0.034
0.036
0.048
0.050
-0.073
0.031
-0.005
0.062
0.044
0.011
-0.008
0.043
0.067
-0.070
0.064
0.034
-0.030
0.042
0.052
0.044
0.060
0.011
-0.071
0.056
0.025
0.064
0.050
-0.116
0.042
0.053
-0.023
-0.043
0.091
0.060
0.029
0.014
-0.002
0.059
-0.027
-0.097
0.071
-0.011
-0.058
0.028
-0.027
0.026
0.021
-0.028
0.008
0.013
-0.039
0.027
0.054
-0.005
0.043
0.065
0.020
-0.014
0.011
0.115
-0.036
-0.005
0.033
0.073
-0.016
-0.043
0.106
0.001
-0.008
0.068
-0.027
-0.063
-0.029
0.008
0.043
0.073
0.109
0.018
-0.055
-0.040
0.017
0.107
-0.085
-0.071
0.069
0.001
0.068
-0.026
0.025
-0.039
-0.057
0.164
-0.010
0.009
-0.003
-0.039
-0.005
0.079
0.120
-0.050
0.072
0.045
0.026
-0.033
0.081
0.015
0.013
-0.054
-0.062
0.042
0.021
-0.004
0.009
0.053
0.130
-0.048
-0.019
-0.033
0.047
0.009
0.052
0.077
0.094
-0.115
-0.102
0.142
-0.014
0.008
0.023
-0.029
0.047
0.008
-0.051
0.049
0.105
0.030
0.150
-0.055
-0.053
0.052
-0.047
-0.049
0.090
-0.005
0.057
0.014
0.049
0.096
-0.104
-0.046
0.045
0.042
-0.033
0.039
0.191
0.020
-0.008
-0.040
0.030
-0.062
0.042
0.045
-0.060
-0.034
-0.033
0.079
0.028
0.082
0.015
0.015
-0.037
0.009
0.066
0.044
0.029
-0.094
0.041
0.018
-0.011
0.061
0.084
0.003
0.046
0.003
-0.095
-0.037
0.119
0.004
0.073
0.041
-0.029
-0.001
0.077
0.033
-0.014
-0.023
-0.005
0.049
0.016
-0.020
0.012
0.032
0.032
0.006
0.026
0.077
-0.006
-0.057
0.022
0.042
0.072
0.001
0.021
0.057
0.013
0.038
-0.031
-0.040
0.107
0.061
-0.011
-0.005
-0.022
0.036
-0.036
0.026
-0.051
0.016
0.067
0.042
-0.033
0.112
-0.037
-0.052
0.046
0.106
0.026
-0.034
0.091
-0.033
-0.055
0.034
0.038
-0.033
0.161
0.040
-0.006
-0.064
0.008
0.030
0.038
0.066
0.008
0.039
0.066
0.025
-0.060
0.037
0.004
0.101
-0.030
-0.063
-0.021
-0.050
0.079
0.077
-0.010
0.069
-0.056
0.051
-0.016
0.009
0.047
-0.091
-0.005
0.021
0.071
-0.019
0.088
-0.014
-0.026
-0.041
0.066
-0.005
0.125
-0.014
0.054
0.086
-0.010
-0.021
0.050
-0.059
0.097
-0.015
0.094
0.059
0.028
-0.012
-0.038
-0.015
0.030
0.036
-0.054
0.013
-0.035
0.092
0.082
0.094
-0.133
-0.005
0.013
0.052
0.141
0.002
-0.008
-0.027
-0.033
0.096
0.048
0.026
-0.003
0.075
0.014
-0.025
-0.033
0.026
0.074
0.019
0.034
-0.012
-0.013
0.075
-0.040
-0.005
0.026
0.028
-0.006
0.021
0.062
0.064
0.106
0.008
-0.090
-0.033
0.051
0.034
-0.072
0.194
0.062
0.028
-0.090
0.063
0.023
0.048
0.104
-0.009
0.113
0.104
-0.013
-0.063
-0.052
0.150
-0.007
0.027
-0.024
0.012
0.066
-0.014
0.012
-0.038
-0.009
0.068
0.059
-0.045
-0.011
0.097
0.070
0.041
0.035
0.020
0.082
-0.032
0.079
-0.061
-0.076
0.061
0.006
0.062
0.047
-0.023
0.024
0.054
0.019
0.024
0.120
-0.080
0.001
-0.004
0.055
0.001
0.090
0.066
-0.029
-0.005
-0.044
0.077
0.091
0.062
0.003
-0.042
0.008
0.071
0.104
0.033
-0.001
-0.028
0.000
0.115
0.034
-0.024
0.042
-0.029
0.068
0.057
-0.077
0.023
-0.022
0.054
0.081
-0.031
-0.004
-0.059
-0.001
0.023
0.083
0.099
-0.039
0.062
-0.095
0.075
-0.014
-0.000
-0.025
0.073
0.024
-0.021
0.020
-0.073
0.059
0.026
0.073
0.042
0.038
0.032
0.053
0.071
-0.038
0.083
0.035
-0.016
0.042
-0.001
0.026
0.018
0.019
-0.061
0.028
-0.031
0.127
0.074
0.052
-0.009
0.034
0.022
-0.054
0.020
-0.026
0.073
0.028
-0.045
-0.031
0.049
0.010
0.033
0.000
0.103
-0.011
-0.055
0.079
0.034
-0.010
0.024
-0.011
-0.037
0.056
0.063
-0.010
0.015
-0.053
0.029
0.081
0.030
0.026
0.034
0.099
0.007
0.018
0.084
-0.030
0.018
0.075
-0.057
-0.000
0.043
-0.007
0.094
-0.025
0.082
-0.030
-0.028
-0.008
0.084
0.045
-0.041
-0.031
-0.084
0.025
0.113
-0.010
0.004
0.010
0.053
0.050
-0.017
0.004
0.020
0.104
-0.017
-0.042
0.046
-0.009
0.057
-0.018
0.080
0.069
0.000
0.007
-0.042
0.089
-0.000
0.061
-0.033
0.063
0.028
-0.024
-0.036
0.001
0.036
0.034
0.001
0.059
0.033
-0.014
0.046
0.009
0.074
0.016
-0.051
-0.048
-0.074
0.160
-0.063
-0.059
0.082
0.028
-0.005
-0.069
0.079
0.021
0.034
0.006
0.039
0.090
-0.004
-0.036
-0.000
-0.065
0.035
0.055
-0.011
0.069
0.077
0.004
0.013
-0.113
0.020
0.070
0.113
0.019
0.061
0.021
0.027
-0.073
0.019
0.018
-0.027
0.109
0.085
0.002
-0.044
0.055
-0.017
0.050
-0.077
-0.027
0.011
-0.015
0.026
-0.108
0.126
0.017
0.144
-0.064
0.054
0.048
0.058
-0.079
0.023
0.080
-0.046
-0.110
-0.033
0.128
0.028
0.024
-0.023
0.053
0.038
-0.078
0.054
-0.029
0.100
0.053
-0.007
-0.002
0.029
-0.024
0.034
0.066
-0.018
0.035
-0.003
0.032
-0.013
0.057
0.054
0.072
0.031
0.019
-0.000
0.041
-0.007
-0.077
0.047
-0.006
0.002
0.088
0.061
0.044
-0.115
-0.010
0.029
0.060
-0.070
0.024
0.043
0.089
0.009
-0.006
-0.042
0.039
0.058
-0.011
0.040
0.002
-0.001
0.003
0.012
0.033
0.042
-0.020
0.071
0.002
0.050
-0.014
-0.011
0.041
0.083
-0.011
0.067
0.033
-0.045
0.027
0.157
-0.096
-0.053
0.073
0.016
0.069
0.073
-0.020
-0.059
-0.074
0.042
-0.063
0.017
0.135
0.059
0.015
0.033
0.053
0.038
-0.012
-0.042
0.037
0.009
-0.000
0.116
0.126
-0.029
0.024
0.024
0.034
-0.017
0.038
-0.056
0.007
0.017
-0.048
0.036
0.103
-0.016
0.009
0.100
0.067
0.055
-0.040
-0.000
0.092
0.072
0.090
0.017
-0.019
-0.049
-0.060
-0.001
0.108
0.092
-0.000
-0.042
-0.057
0.038
0.003
0.027
0.083
-0.045
-0.039
0.082
0.025
0.049
-0.028
0.052
0.021
-0.035
0.081
0.062
0.092
-0.050
-0.150
0.057
0.056
0.055
-0.010
-0.047
0.049
-0.002
0.052
0.021
0.088
0.053
0.000
-0.016
-0.051
0.041
0.119
0.045
-0.006
0.044
0.009
0.052
-0.054
0.029
0.074
-0.040
0.022
0.032
0.045
-0.005
-0.123
0.083
0.034
-0.049
-0.025
0.112
0.022
0.031
0.059
-0.024
-0.008
0.045
-0.013
0.004
0.009
0.045
0.035
0.100
-0.024
-0.082
0.009
0.038
0.083
0.064
-0.012
0.065
0.098
-0.114
0.071
0.007
0.032
-0.013
0.082
-0.030
0.090
0.030
-0.011
0.094
-0.038
-0.067
0.051
0.011
-0.048
0.089
-0.005
0.033
0.010
0.036
0.035
-0.065
0.206
-0.002
0.007
0.075
0.030
0.084
-0.053
-0.051
-0.022
0.066
0.093
-0.013
0.015
0.070
0.014
-0.028
0.019
0.002
0.055
0.000
-0.024
-0.032
-0.053
0.064
-0.005
0.046
0.031
-0.103
0.049
0.087
-0.012
-0.090
0.055
0.121
-0.077
-0.008
-0.008
0.066
0.122
-0.002
-0.049
-0.051
0.061
0.000
-0.092
0.071
0.012
0.090
0.014
-0.001
0.001
-0.023
0.049
0.032
-0.028
0.063
-0.026
0.086
-0.009
0.023
0.013
-0.034
-0.033
0.014
-0.010
0.005
-0.029
-0.066
0.040
-0.036
-0.023
0.087
0.113
0.053
-0.059
-0.054
0.025
-0.031
0.005
0.134
0.058
0.048
-0.042
0.057
0.003
-0.016
0.042
0.087
0.041
0.059
0.037
-0.072
-0.002
0.094
-0.020
-0.094
0.008
0.088
0.076
0.109
-0.014
-0.059
-0.086
0.018
0.055
0.068
0.021
0.103
-0.103
-0.034
0.109
-0.010
-0.042
0.051
-0.001
0.033
0.079
0.022
0.085
0.057
0.052
-0.020
-0.025
-0.044
0.155
0.035
-0.082
0.062
-0.038
-0.042
0.005
0.083
0.150
-0.068
-0.004
0.001
-0.041
0.067
0.068
0.078
-0.033
0.048
0.070
0.003
-0.091
0.013
0.071
0.035
-0.001
0.074
-0.051
0.047
0.028
0.027
0.055
0.010
-0.049
-0.003
0.065
0.014
-0.041
0.048
0.099
0.051
-0.020
0.046
-0.026
0.098
0.014
0.003
-0.085
0.017
0.012
0.025
0.050
-0.021
0.020
-0.006
0.033
0.007
0.011
-0.012
0.118
0.026
-0.007
-0.024
-0.020
0.105
-0.024
0.052
0.020
-0.005
0.087
-0.034
-0.009
0.076
0.019
-0.014
0.035
-0.025
-0.057
0.027
0.079
0.109
0.031
0.007
0.042
0.014
-0.070
-0.083
0.050
0.009
-0.008
0.043
-0.051
0.004
0.046
0.054
0.100
-0.020
0.072
0.012
-0.054
0.093
0.046
0.013
0.025
-0.089
-0.032
0.067
0.089
-0.028
-0.015
0.042
0.083
-0.114
0.027
0.007
0.099
-0.007
-0.033
-0.054
0.100
0.017
0.033
-0.020
0.055
0.004
-0.041
0.073
0.012
-0.016
-0.089
0.057
0.086
-0.050
-0.046
0.019
0.021
0.002
-0.015
-0.018
0.057
0.032
-0.000
-0.047
-0.029
0.132
0.021
0.036
0.076
-0.081
0.018
0.097
-0.036
0.009
0.126
-0.056
0.016
0.093
-0.037
0.080
0.020
0.066
-0.057
-0.003
0.022
0.071
0.003
-0.043
0.050
-0.080
0.042
0.074
0.118
0.015
-0.024
0.011
-0.043
-0.016
-0.047
0.057
0.113
0.031
-0.060
0.025
0.004
0.060
0.021
0.053
-0.050
-0.029
0.061
-0.040
0.033
0.027
0.031
-0.032
0.039
0.037
0.008
0.012
-0.025
0.107
0.011
-0.078
0.068
-0.017
0.100
0.041
0.002
-0.036
-0.101
-0.019
0.130
-0.038
0.018
0.010
0.088
0.090
0.061
-0.043
0.057
-0.033
0.027
0.036
0.054
-0.016
-0.028
0.126
-0.011
-0.006
-0.010
0.056
0.025
-0.073
0.058
0.012
-0.009
0.062
-0.045
-0.013
0.117
0.135
-0.113
0.056
0.058
0.036
-0.061
-0.018
-0.023
0.044
-0.055
0.085
0.112
0.016
-0.017
0.033
0.045
0.000
-0.050
0.001
-0.023
0.080
0.039
0.110
0.008
-0.018
0.004
0.031
-0.070
0.032
0.112
0.096
0.004
0.026
0.062
0.032
-0.011
0.062
0.078
-0.048
0.002
0.006
0.113
0.005
0.092
0.097
0.047
-0.020
-0.092
-0.008
-0.020
0.117
0.087
0.059
0.054
0.012
-0.020
-0.017
0.041
0.084
0.029
0.028
-0.016
-0.008
0.058
-0.031
0.025
0.045
0.017
0.049
0.059
-0.001
-0.106
0.036
0.014
0.059
-0.012
0.096
0.082
-0.017
0.008
-0.002
0.028
-0.008
-0.064
0.036
-0.019
0.002
0.022
0.106
0.139
0.004
-0.105
0.073
0.001
-0.001
0.005
0.141
0.078
0.022
-0.041
-0.095
-0.054
0.040
0.141
0.002
0.023
-0.003
-0.055
0.073
-0.040
0.105
0.009
-0.040
0.040
0.018
-0.059
0.048
0.054
0.128
-0.080
0.037
0.038
-0.110
0.098
-0.035
-0.017
-0.006
-0.009
0.084
0.067
0.063
-0.060
0.030
-0.019
0.027
-0.111
0.019
0.078
0.103
0.080
-0.071
-0.045
-0.023
0.053
0.084
0.053
-0.007
-0.096
0.071
0.011
0.095
0.002
0.013
-0.005
0.034
-0.032
0.075
0.011
-0.039
0.028
0.078
-0.003
0.033
0.043
0.021
-0.001
0.065
0.031
-0.011
-0.054
0.037
0.081
0.032
0.043
0.000
0.046
-0.008
0.005
-0.029
-0.023
0.091
-0.032
0.026
0.067
0.052
-0.003
-0.015
-0.005
-0.011
0.131
0.049
0.027
-0.024
-0.090
0.111
0.016
0.081
0.057
-0.032
0.084
0.000
-0.058
0.157
-0.054
-0.092
0.070
0.078
0.053
-0.005
0.002
0.073
0.057
-0.007
-0.058
0.016
0.068
0.082
0.031
0.014
-0.070
-0.027
0.079
0.061
0.006
0.005
0.012
-0.012
-0.024
-0.085
0.045
0.002
0.005
0.026
0.045
0.103
0.008
0.040
-0.037
0.116
-0.006
-0.006
0.072
-0.038
0.079
0.032
0.035
0.076
0.037
-0.123
-0.022
0.067
0.079
0.061
-0.003
0.034
0.064
-0.080
0.022
0.067
0.035
0.035
0.006
0.008
0.050
-0.011
0.006
-0.061
0.046
-0.023
-0.034
-0.000
0.043
-0.044
-0.067
-0.015
-0.014
0.085
0.017
-0.021
0.070
-0.005
-0.001
-0.001
0.063
-0.041
0.038
-0.071
0.035
0.003
0.072
-0.018
-0.065
-0.015
0.097
0.067
-0.054
0.001
0.043
-0.031
0.041
0.011
0.137
-0.044
0.163
-0.028
0.037
0.069
-0.017
0.013
-0.001
0.002
-0.013
-0.021
0.085
-0.058
0.051
-0.086
0.020
0.082
-0.056
-0.036
-0.011
0.002
0.116
-0.057
-0.032
0.072
0.008
-0.052
0.038
0.024
0.031
-0.001
0.017
0.076
-0.017
-0.004
-0.062
0.128
0.056
-0.011
0.015
-0.032
0.066
2.743
-0.119
-0.560
1.259
1.563
1.417
0.935
0.124
-0.399
-0.760
-0.835
-0.689
-0.429
-0.234
-0.114
0.049
0.170
0.186
0.297
0.304
0.134
0.177
0.043
-0.067
0.039
-0.032
-0.001
0.044
0.056
0.063
0.145
0.221
0.183
0.260
0.121
0.205
0.261
0.225
0.222
0.141
0.191
0.319
0.167
0.208
0.211
0.229
0.176
0.148
0.172
0.188
0.169
0.091
0.124
0.194
0.092
0.058
0.085
0.137
0.030
0.014
0.033
0.060
-0.011
0.102
-0.008
-0.084
-0.032
0.001
-0.067
0.013
-0.087
-0.119
0.003
-0.151
-0.073
-0.017
-0.008
-0.227
-0.123
-0.067
-0.023
-0.029
-0.129
-0.137
-0.063
-0.052
-0.043
0.086
-0.080
-0.146
-0.066
-0.036
0.004
-0.035
-0.007
-0.049
0.033
-0.036
-0.009
0.007
0.070
-0.010
-0.022
0.092
-0.012
0.099
0.057
0.028
-0.139
0.012
0.122
0.143
-0.024
0.104
-0.017
0.006
0.002
0.071
-0.016
0.068
0.156
-0.061
-0.003
0.085
-0.019
0.047
0.046
0.008
0.075
0.000
0.022
0.042
0.041
0.004
-0.039
0.005
0.139
0.014
0.065
-0.004
-0.036
0.057
-0.038
0.122
0.051
-0.026
-0.036
0.129
0.006
0.049
0.028
0.082
0.066
0.015
0.027
0.018
0.029
0.069
0.049
0.017
0.002
0.078
0.066
0.026
-0.028
-0.046
0.055
0.059
-0.028
-0.069
0.072
0.040
0.068
-0.004
0.043
-0.037
-0.050
0.042
0.018
0.081
0.194
-0.033
-0.104
-0.136
0.007
0.103
-0.055
-0.052
-0.025
0.056
0.079
-0.046
-0.006
0.003
-0.025
-0.043
0.027
-0.025
-0.028
-0.043
0.060
0.011
0.041
-0.001
0.065
-0.090
-0.013
-0.056
0.043
0.099
0.028
-0.035
-0.054
0.064
-0.050
-0.019
0.090
-0.090
-0.014
0.034
0.001
0.029
0.050
0.051
-0.082
-0.013
0.004
0.007
0.125
0.159
-0.017
-0.053
-0.001
-0.014
0.071
0.076
-0.045
-0.023
0.058
-0.051
0.020
0.101
-0.015
-0.083
0.125
0.014
0.019
0.135
0.053
0.055
0.108
0.032
0.029
-0.039
0.055
0.125
0.091
0.001
-0.032
0.065
-0.044
0.017
-0.058
0.025
0.104
0.033
0.020
0.028
0.017
0.011
-0.078
0.055
0.063
0.013
-0.022
-0.058
0.004
0.104
0.055
0.039
-0.035
-0.033
0.016
0.011
0.027
-0.120
0.083
0.029
0.030
-0.023
-0.018
-0.024
0.115
-0.011
-0.036
-0.020
0.022
0.090
0.004
-0.050
-0.012
-0.060
-0.038
-0.011
0.056
0.015
-0.001
-0.021
0.103
0.065
0.039
-0.044
-0.034
0.043
0.038
0.093
0.027
0.037
-0.000
-0.016
0.079
0.070
0.062
-0.026
0.054
-0.003
0.100
0.004
0.021
0.057
0.015
-0.016
0.067
0.051
0.097
-0.017
0.100
-0.021
0.037
-0.035
0.105
-0.005
0.057
0.023
0.075
0.019
0.034
-0.025
-0.056
-0.031
-0.033
0.087
0.062
-0.064
0.035
0.004
0.094
0.044
0.014
0.014
-0.020
0.036
-0.027
-0.048
0.012
0.044
0.081
0.047
-0.012
0.029
0.008
0.010
-0.006
0.014
0.098
-0.027
-0.029
0.065
-0.047
0.069
0.033
0.112
-0.056
-0.027
-0.001
0.037
0.115
0.011
-0.051
-0.043
0.099
0.073
-0.009
-0.022
0.001
-0.073
0.040
0.085
-0.056
0.007
0.017
-0.019
0.035
0.039
0.035
-0.009
-0.044
-0.000
-0.010
0.057
0.031
-0.008
-0.028
0.031
0.089
-0.028
-0.010
0.026
0.062
0.050
0.015
0.053
-0.002
0.042
0.047
-0.090
0.030
0.044
0.053
-0.071
0.061
0.000
-0.030
-0.067
0.017
0.093
0.086
-0.050
0.020
0.046
0.084
-0.078
0.005
0.014
0.144
-0.050
-0.028
-0.006
0.052
0.086
-0.041
0.022
-0.092
0.041
-0.000
0.184
-0.065
-0.003
0.030
-0.034
0.016
0.030
0.056
0.055
0.076
-0.000
-0.010
0.059
0.028
0.046
0.084
-0.079
0.036
-0.023
0.046
-0.014
-0.020
0.066
0.016
0.003
-0.010
-0.009
-0.011
0.076
-0.067
0.091
-0.013
0.019
-0.059
0.018
0.042
0.003
0.054
-0.048
0.108
-0.021
0.098
-0.026
-0.043
-0.002
0.030
-0.017
-0.005
0.088
0.025
0.014
0.050
0.005
0.029
0.009
-0.001
0.019
0.057
0.054
0.041
-0.005
0.033
0.029
0.051
-0.078
0.046
-0.015
0.077
-0.013
0.076
-0.055
-0.006
-0.045
-0.031
-0.013
-0.105
0.112
0.040
0.036
0.077
0.124
-0.036
0.038
-0.026
0.089
-0.036
-0.035
0.006
-0.044
0.079
0.004
0.116
-0.016
-0.087
-0.006
0.029
0.070
-0.011
-0.055
0.034
0.002
0.080
0.055
-0.044
-0.012
0.128
-0.008
-0.000
0.064
0.079
-0.073
-0.027
-0.033
0.024
0.096
-0.014
0.026
-0.036
-0.009
-0.101
0.052
0.024
-0.006
0.042
0.019
0.105
0.033
-0.030
-0.008
0.073
-0.011
0.121
0.029
0.021
-0.014
0.160
0.002
-0.043
0.019
0.015
-0.073
0.074
0.053
0.003
-0.012
0.011
-0.074
-0.060
-0.005
0.025
0.092
0.073
0.010
-0.070
0.100
-0.006
0.055
-0.060
0.018
0.026
0.163
0.020
0.054
0.078
-0.037
0.039
0.079
0.007
0.027
-0.075
-0.007
0.057
0.040
0.014
-0.087
0.009
0.172
0.041
-0.020
0.057
-0.031
-0.052
0.015
0.020
0.123
0.070
0.022
-0.052
-0.028
0.052
-0.055
0.051
0.024
0.025
0.011
0.097
0.030
0.010
-0.019
0.010
-0.051
0.085
0.054
0.005
-0.029
0.008
-0.035
0.120
-0.027
0.001
0.029
-0.067
-0.058
0.017
0.062
0.007
0.009
-0.011
-0.027
0.013
-0.026
0.034
-0.031
0.006
0.057
0.104
0.035
0.018
-0.025
0.031
0.039
-0.040
-0.023
0.055
-0.084
0.048
0.023
0.160
-0.034
-0.054
0.017
0.002
-0.015
-0.010
0.073
-0.008
-0.099
0.088
0.089
-0.020
0.027
0.070
-0.008
0.051
-0.133
-0.037
0.049
0.096
-0.046
0.088
-0.047
0.043
0.018
-0.056
0.005
0.100
0.043
0.126
-0.024
-0.013
-0.052
0.058
0.044
-0.010
0.023
0.057
0.034
0.010
0.063
0.012
-0.003
0.047
-0.010
0.074
0.050
0.005
0.051
0.085
0.019
-0.058
0.065
0.114
0.058
-0.055
-0.122
0.101
0.021
-0.037
-0.006
0.079
0.055
0.009
0.036
0.083
0.031
0.020
-0.051
-0.066
0.093
0.120
-0.025
-0.036
0.097
0.042
0.032
0.060
-0.032
0.086
-0.022
0.011
0.063
0.006
0.069
-0.071
-0.042
0.112
0.061
-0.019
-0.126
0.117
0.122
0.057
0.017
-0.002
0.048
-0.031
0.091
0.010
0.009
0.068
0.010
-0.052
0.090
-0.054
-0.017
0.072
0.029
-0.025
0.012
0.070
0.035
0.008
-0.040
0.014
-0.017
-0.026
0.034
0.017
-0.003
0.028
0.082
-0.066
0.063
0.014
-0.067
-0.005
0.094
0.049
0.105
0.098
-0.066
-0.026
-0.080
0.102
0.095
0.127
-0.018
-0.040
0.001
-0.017
0.067
0.091
0.049
0.076
-0.013
0.033
-0.077
0.058
-0.006
0.028
0.052
0.012
-0.066
0.008
0.052
0.032
0.080
-0.052
0.047
-0.037
0.052
0.044
-0.020
0.032
-0.058
0.107
-0.047
0.023
-0.051
0.024
0.102
-0.039
-0.070
0.100
0.098
-0.022
0.048
0.033
-0.065
0.065
-0.016
0.089
0.106
0.001
-0.057
0.001
0.000
0.050
0.010
0.068
-0.025
0.036
-0.004
-0.039
0.008
0.082
0.047
-0.019
0.036
-0.036
-0.075
0.077
0.102
0.084
-0.093
-0.009
0.036
0.041
0.030
0.005
-0.012
-0.010
0.068
0.050
0.002
-0.020
0.045
-0.075
-0.019
0.222
0.056
-0.004
-0.012
-0.007
0.051
-0.088
-0.005
-0.075
0.126
0.023
0.032
0.029
0.034
-0.008
0.005
0.022
0.017
-0.058
0.106
0.027
0.028
-0.001
-0.029
0.023
0.035
0.001
-0.016
0.001
-0.075
0.134
0.035
-0.052
0.020
0.124
-0.009
0.055
-0.007
0.013
-0.049
0.010
0.073
0.021
0.034
0.042
0.041
-0.007
-0.084
-0.037
0.118
0.081
0.084
-0.038
-0.011
-0.013
-0.065
-0.045
0.074
0.057
0.032
0.102
-0.028
0.018
-0.018
0.058
0.095
0.115
0.074
-0.015
-0.087
0.002
0.045
0.035
-0.002
-0.081
0.034
0.087
-0.097
-0.029
0.082
-0.019
0.050
-0.127
0.028
0.059
-0.083
0.147
0.057
0.061
0.014
0.006
0.039
-0.008
0.167
0.021
-0.131
-0.029
-0.043
0.166
0.081
-0.003
-0.029
0.095
-0.002
0.074
0.001
0.047
-0.004
-0.003
0.008
0.093
0.061
-0.070
0.009
-0.006
-0.012
0.006
0.074
-0.042
0.005
0.040
0.078
-0.028
0.010
0.004
-0.033
0.049
-0.047
0.029
0.091
0.040
0.033
0.053
0.024
-0.034
-0.091
0.044
0.152
0.066
0.021
-0.003
0.000
0.105
-0.016
0.012
0.061
0.033
-0.087
-0.010
0.004
0.040
-0.052
-0.006
-0.039
0.065
0.040
-0.025
-0.037
-0.076
0.035
0.127
0.013
0.081
0.090
-0.097
-0.005
0.002
0.007
0.080
0.036
0.049
0.021
0.054
-0.041
-0.078
0.010
-0.020
0.076
0.045
-0.023
-0.025
0.014
-0.056
0.056
0.049
0.048
0.024
0.010
-0.025
0.019
0.070
-0.051
0.097
0.086
-0.036
-0.027
0.103
0.016
0.005
-0.068
0.057
0.038
0.030
-0.004
0.009
0.015
-0.036
0.012
0.044
0.000
-0.037
0.063
0.055
-0.081
-0.021
-0.012
0.039
0.068
-0.044
0.031
-0.043
0.128
-0.037
0.024
0.030
0.014
0.040
-0.004
-0.018
0.008
-0.042
0.083
0.018
-0.008
0.078
-0.059
-0.022
0.078
0.105
-0.083
-0.014
0.061
0.036
0.092
0.008
0.004
-0.027
0.094
0.004
0.059
-0.021
0.071
-0.010
-0.081
0.050
-0.001
-0.013
0.012
0.120
-0.013
-0.017
-0.031
0.080
-0.056
0.002
-0.060
0.014
0.072
-0.026
0.087
-0.063
-0.044
0.103
0.094
0.108
-0.018
0.025
0.008
-0.044
0.152
0.030
0.024
-0.030
-0.034
-0.019
0.064
0.089
-0.022
-0.067
0.019
0.092
0.005
0.031
0.071
-0.076
0.008
0.024
0.062
-0.005
-0.015
-0.008
0.073
-0.048
0.004
-0.030
-0.012
-0.004
0.054
0.043
0.048
0.065
0.050
-0.043
-0.039
-0.025
0.193
-0.046
0.024
-0.030
0.070
0.064
-0.090
-0.054
0.122
0.051
-0.051
0.036
0.108
-0.064
0.055
0.009
0.028
0.011
-0.033
-0.031
0.055
0.120
-0.008
0.002
0.014
-0.045
0.015
0.040
0.039
-0.094
-0.041
0.044
-0.007
-0.013
-0.002
0.061
0.016
-0.024
-0.039
0.060
-0.005
0.014
-0.015
0.037
0.044
0.040
-0.010
0.038
-0.026
0.088
-0.041
-0.071
0.003
0.109
-0.046
0.068
0.122
-0.001
0.121
0.061
0.019
-0.134
0.008
0.001
-0.030
0.025
0.109
0.048
0.020
-0.027
-0.080
0.075
0.058
0.065
0.018
0.029
0.032
-0.081
0.050
-0.047
0.004
0.131
0.034
0.083
-0.066
-0.034
0.095
-0.027
0.016
0.125
-0.005
0.057
0.091
0.047
-0.023
0.009
0.099
0.121
-0.025
-0.013
0.019
-0.002
0.093
-0.101
0.038
-0.020
-0.051
-0.000
0.135
0.099
-0.008
-0.073
0.071
0.045
0.053
0.012
0.075
0.063
0.114
0.062
-0.053
-0.051
0.052
0.032
0.046
-0.033
0.051
-0.023
0.035
-0.013
-0.017
0.047
0.060
0.009
0.073
0.081
-0.021
-0.041
0.036
0.062
0.023
0.039
0.086
-0.051
0.020
0.025
0.009
-0.006
0.034
-0.005
-0.018
-0.019
-0.006
0.017
0.071
0.042
-0.018
-0.058
-0.065
0.064
0.098
0.008
-0.027
-0.036
0.013
0.126
0.050
-0.110
-0.004
0.011
0.029
0.014
0.039
-0.026
-0.007
0.054
0.015
0.023
0.020
0.012
0.050
-0.062
-0.053
-0.002
0.153
-0.022
-0.023
0.029
0.063
-0.026
0.033
0.027
0.039
-0.080
-0.005
0.067
0.007
-0.040
0.059
0.022
0.075
0.016
0.008
-0.061
-0.007
0.058
-0.051
0.061
0.000
-0.032
0.054
0.001
0.013
0.012
0.058
0.018
0.014
-0.002
0.034
0.090
-0.061
0.009
0.099
-0.093
0.029
0.048
-0.014
0.033
0.082
0.048
0.002
-0.015
-0.004
-0.000
0.004
0.021
-0.024
-0.005
0.056
0.030
0.053
0.039
-0.024
0.082
0.085
0.059
-0.083
-0.075
-0.054
0.113
0.036
0.095
0.039
-0.031
-0.055
0.091
-0.029
0.016
-0.027
0.039
-0.036
0.075
0.047
-0.020
-0.071
0.001
0.056
-0.034
0.095
0.067
-0.029
-0.007
0.050
0.049
-0.027
-0.052
-0.012
0.042
0.014
-0.048
0.090
0.004
0.007
-0.021
0.120
0.032
-0.058
0.029
0.062
0.101
-0.003
-0.053
0.059
-0.014
0.012
0.015
0.050
0.031
0.031
0.036
-0.106
0.054
-0.041
0.021
0.039
0.018
-0.037
-0.041
0.006
0.025
0.073
-0.002
0.050
0.025
0.018
-0.035
-0.132
0.142
0.063
0.110
-0.060
0.050
0.011
-0.002
-0.077
-0.049
0.101
0.060
-0.058
0.030
0.101
0.038
0.066
0.006
0.108
0.020
-0.014
-0.062
0.130
0.030
-0.053
0.068
0.062
-0.012
-0.003
0.036
0.056
-0.037
0.002
-0.035
0.091
-0.075
0.031
0.083
-0.057
-0.063
-0.030
-0.023
0.038
-0.004
0.018
0.159
0.046
-0.124
-0.029
0.095
0.019
-0.040
0.097
0.069
0.087
-0.018
0.002
0.033
0.037
0.095
-0.010
-0.018
0.010
0.069
0.050
-0.045
0.055
0.026
-0.005
0.022
-0.016
-0.051
0.026
0.098
0.045
-0.015
-0.052
0.047
0.038
0.053
-0.039
-0.044
-0.032
0.084
0.072
-0.038
0.073
-0.018
0.043
0.051
-0.013
0.011
0.020
0.007
0.010
0.088
0.051
-0.131
-0.070
0.041
-0.026
0.075
-0.045
-0.008
0.077
0.019
0.024
0.097
0.072
-0.064
0.012
0.015
-0.001
0.023
0.051
-0.002
0.020
0.002
-0.037
0.134
-0.036
-0.018
-0.029
0.019
0.083
0.038
0.047
-0.044
-0.040
0.043
-0.049
0.024
0.028
-0.037
0.102
-0.034
-0.002
0.003
0.036
-0.025
0.046
-0.041
0.037
0.023
0.012
-0.034
0.024
0.033
0.097
0.023
0.023
-0.106
0.039
-0.006
0.098
-0.100
0.024
0.070
-0.020
-0.026
-0.031
0.091
0.050
-0.001
-0.050
0.040
-0.005
0.003
0.018
0.142
-0.037
-0.092
0.096
0.085
0.023
-0.045
0.001
0.011
-0.038
0.053
0.047
-0.022
0.036
0.112
-0.019
0.021
-0.037
-0.031
0.057
0.020
0.045
-0.019
0.043
0.103
0.061
-0.040
0.001
-0.001
-0.015
0.038
0.131
-0.025
-0.083
0.048
0.042
0.020
0.017
-0.016
0.065
0.057
-0.082
-0.094
0.068
0.132
0.041
0.028
-0.069
0.076
0.072
0.055
0.061
0.033
0.022
0.062
-0.021
0.066
0.019
0.096
-0.075
-0.008
0.016
-0.048
0.130
-0.042
0.045
0.068
0.073
-0.040
-0.039
-0.000
0.044
-0.044
0.004
-0.068
0.087
0.101
0.069
0.013
0.127
0.026
-0.047
0.014
0.039
-0.037
0.064
-0.053
0.045
-0.089
0.111
-0.003
-0.021
-0.047
0.033
0.084
0.075
0.049
-0.010
-0.003
0.061
0.092
-0.010
-0.021
0.031
0.035
0.002
0.037
0.104
-0.028
-0.021
0.025
-0.007
-0.010
0.006
0.088
0.060
0.002
-0.098
0.042
0.040
0.051
0.073
-0.061
-0.036
0.177
-0.039
-0.087
0.018
0.022
0.171
0.007
0.004
-0.039
-0.068
-0.040
0.121
0.116
-0.081
0.025
-0.045
0.024
0.055
0.040
-0.007
0.044
-0.029
-0.019
-0.063
0.102
0.039
0.054
0.051
-0.103
0.042
0.011
0.002
0.044
0.064
0.019
-0.046
0.013
-0.019
0.042
-0.011
0.079
0.042
-0.052
-0.004
0.160
0.005
-0.012
0.024
0.039
0.034
-0.036
0.015
-0.041
0.025
0.036
0.084
-0.059
-0.041
0.063
-0.011
-0.002
-0.101
-0.021
0.064
0.088
-0.046
-0.059
-0.016
0.092
-0.033
0.038
0.082
-0.063
0.031
0.047
0.047
0.068
0.047
-0.003
-0.055
-0.047
0.108
-0.007
0.022
0.000
0.040
0.015
0.037
-0.031
-0.019
0.049
-0.126
0.033
0.041
0.034
-0.027
0.085
0.035
0.000
-0.004
0.041
0.085
-0.074
0.010
0.034
0.036
0.080
-0.005
-0.042
0.050
0.048
-0.020
0.034
0.078
-0.079
0.047
-0.040
0.092
0.136
-0.014
-0.055
0.048
-0.022
0.018
0.122
0.047
-0.010
0.062
0.129
-0.037
0.009
-0.017
-0.031
0.077
-0.029
0.008
0.011
0.151
0.074
-0.035
-0.015
0.044
-0.029
0.022
0.076
0.004
0.054
0.004
0.044
-0.050
-0.012
0.035
0.054
0.008
0.003
0.067
-0.009
-0.027
0.108
-0.017
-0.038
-0.063
0.080
0.033
0.019
0.069
-0.047
0.112
0.026
0.011
0.041
-0.030
0.029
0.013
0.014
0.097
0.018
0.008
-0.034
-0.033
0.097
0.037
-0.035
-0.012
-0.047
0.003
0.106
-0.059
-0.037
0.017
0.022
0.077
0.031
-0.003
0.042
-0.132
0.020
-0.011
0.043
0.029
0.033
0.001
0.007
0.033
-0.021
0.054
-0.021
0.015
0.053
-0.004
0.059
0.046
-0.043
-0.033
0.015
0.083
-0.065
-0.019
-0.016
0.025
0.055
-0.002
-0.048
0.009
-0.027
0.039
0.119
0.012
-0.002
-0.008
0.002
-0.003
0.051
0.010
0.014
0.180
-0.050
-0.095
-0.020
-0.023
0.081
-0.058
0.024
0.035
0.095
0.122
-0.065
0.077
-0.069
0.086
0.030
-0.113
0.058
0.033
0.020
0.111
-0.036
-0.098
0.046
-0.002
0.066
0.013
0.034
0.122
-0.036
0.023
-0.080
0.091
0.010
-0.028
0.019
0.009
0.068
-0.051
-0.035
-0.022
0.002
0.044
-0.049
-0.005
0.014
-0.007
0.038
0.053
0.103
-0.028
-0.032
0.051
-0.023
-0.067
0.128
0.026
-0.077
0.061
0.089
-0.008
0.002
0.022
-0.057
-0.026
0.047
-0.045
0.001
0.086
0.026
-0.012
0.038
-0.048
0.071
-0.001
0.033
0.038
0.052
-0.016
0.129
-0.013
-0.051
-0.074
0.063
0.093
0.070
-0.033
0.005
-0.064
0.046
0.139
0.074
0.005
-0.057
-0.003
0.008
-0.052
0.038
0.051
0.026
0.025
-0.021
0.031
-0.034
0.082
0.010
0.080
-0.008
-0.061
0.040
0.035
0.089
0.063
-0.005
-0.017
-0.002
0.020
0.086
-0.056
0.049
0.039
-0.029
0.059
0.010
0.041
0.098
0.082
0.127
0.066
-0.023
-0.037
-0.003
0.012
0.059
0.047
0.041
0.014
-0.012
-0.076
0.060
-0.029
-0.003
0.124
-0.031
-0.018
0.011
0.070
-0.027
0.004
0.010
0.001
0.114
0.009
0.007
-0.023
0.029
0.032
0.032
0.035
0.050
-0.018
-0.028
0.041
0.055
0.005
0.062
0.031
0.054
0.008
-0.042
-0.057
-0.023
0.056
0.136
0.014
-0.021
-0.010
0.006
0.012
0.075
-0.088
0.042
0.014
0.096
-0.014
-0.021
0.033
0.018
0.027
0.054
-0.037
0.028
0.053
-0.055
0.004
-0.022
0.046
0.063
0.019
0.021
0.026
-0.032
-0.038
-0.072
0.060
0.026
0.082
0.003
-0.066
-0.022
0.107
-0.017
0.071
-0.033
0.039
0.036
0.107
0.069
-0.040
0.014
0.002
0.018
-0.014
0.044
-0.006
0.018
0.079
-0.007
-0.061
0.088
-0.051
0.046
-0.040
0.000
-0.003
0.060
0.126
-0.042
0.033
0.081
0.000
-0.079
-0.000
-0.062
0.048
0.052
0.021
-0.037
0.033
-0.012
-0.001
0.066
-0.025
-0.077
0.048
0.030
0.062
-0.046
-0.016
0.058
0.080
0.019
0.038
0.050
0.017
-0.030
0.060
0.032
-0.008
-0.025
0.090
-0.074
0.014
0.083
0.021
-0.028
0.045
0.073
-0.054
0.066
-0.070
-0.015
0.063
0.047
0.032
-0.037
-0.070
0.100
-0.038
0.077
-0.007
-0.012
0.026
0.078
0.066
-0.031
0.012
0.088
-0.011
-0.016
0.077
0.059
-0.033
0.017
-0.002
0.069
0.000
-0.013
0.124
0.028
0.063
-0.076
0.003
-0.063
0.154
0.011
0.023
-0.005
0.111
0.002
-0.042
-0.063
0.086
0.044
0.024
0.004
0.004
0.018
0.030
-0.046
0.032
0.042
0.021
0.052
0.091
0.003
-0.000
0.085
-0.027
0.044
0.059
-0.014
-0.026
0.026
-0.031
0.003
0.097
-0.001
0.015
0.019
0.001
-0.042
0.088
0.011
0.028
0.148
0.078
0.060
-0.037
-0.054
0.028
0.075
-0.007
0.023
0.038
-0.074
0.011
0.005
0.099
-0.053
-0.020
-0.002
-0.010
0.020
0.089
-0.033
-0.028
0.088
0.113
-0.056
0.061
-0.125
0.085
0.018
-0.038
0.087
-0.021
0.068
-0.016
0.038
0.084
-0.021
-0.030
-0.031
0.072
0.042
-0.052
0.001
-0.015
0.069
0.081
0.072
-0.057
-0.078
0.079
0.056
0.029
-0.077
0.073
0.080
-0.061
0.005
-0.027
0.004
0.067
-0.035
0.028
0.027
0.146
0.059
-0.028
-0.041
0.086
0.028
0.002
0.106
-0.031
-0.019
0.000
-0.007
-0.005
0.043
0.032
-0.001
0.007
0.058
0.032
0.047
0.029
0.042
-0.023
-0.089
0.040
0.066
-0.012
-0.030
0.016
0.083
-0.002
0.061
0.050
-0.008
0.044
-0.011
0.085
0.065
0.073
-0.064
0.020
0.093
0.072
-0.103
0.045
0.015
0.086
-0.006
0.057
0.045
0.068
0.048
0.024
0.001
0.064
-0.000
0.011
-0.088
0.138
0.048
-0.057
0.028
0.003
0.022
0.101
0.068
-0.018
0.011
0.022
0.095
0.051
-0.026
-0.039
0.164
-0.008
0.023
0.111
-0.083
-0.027
-0.055
0.132
0.100
-0.000
-0.042
-0.002
0.004
0.020
0.040
-0.002
0.064
0.123
0.083
0.004
0.024
0.063
-0.019
0.005
0.050
-0.014
0.020
-0.027
0.033
0.001
0.000
0.025
0.013
0.072
0.030
0.094
-0.009
-0.076
0.064
0.007
-0.014
0.075
0.052
-0.122
0.004
0.157
0.141
-0.100
-0.025
0.081
0.042
-0.066
-0.014
0.059
0.088
0.055
-0.010
-0.076
-0.039
0.044
0.060
0.039
-0.057
0.090
0.073
0.097
-0.038
0.007
-0.007
0.016
0.012
-0.052
0.040
0.054
0.050
-0.034
-0.029
0.008
-0.031
0.026
0.021
-0.056
0.027
0.026
-0.010
0.056
0.129
0.067
-0.089
0.016
0.042
0.004
-0.008
-0.005
0.070
0.063
0.053
0.089
-0.019
-0.025
-0.022
-0.042
0.069
0.070
0.020
0.064
-0.051
0.022
-0.009
-0.030
0.129
0.036
-0.029
-0.008
0.006
-0.050
0.027
0.031
-0.082
0.004
0.005
-0.033
0.076
0.063
-0.038
0.037
0.069
-0.038
0.169
0.019
-0.056
0.008
0.022
0.002
-0.002
0.123
-0.030
-0.003
-0.066
-0.003
0.036
-0.018
0.051
0.152
0.162
-0.008
-0.003
-0.131
0.017
0.008
0.051
0.091
-0.038
0.107
-0.060
0.015
-0.014
0.082
0.036
-0.003
-0.091
-0.007
-0.039
0.124
-0.040
0.075
0.092
-0.032
0.102
-0.027
-0.046
0.037
-0.007
0.082
0.050
0.192
-0.059
-0.034
0.092
-0.074
-0.019
0.040
0.078
0.029
-0.013
0.114
-0.003
0.017
-0.009
0.085
0.029
-0.004
-0.008
0.083
0.023
-0.017
-0.060
-0.011
0.119
0.104
0.002
0.003
0.054
-0.069
0.054
0.058
0.032
0.019
0.055
-0.001
-0.050
0.065
0.047
0.004
-0.015
-0.034
0.032
0.040
0.007
0.029
0.072
-0.021
0.024
0.008
-0.006
-0.031
-0.011
0.013
0.054
0.033
0.057
-0.056
0.119
-0.097
0.021
0.060
0.033
0.017
-0.019
-0.012
-0.024
0.034
0.118
-0.017
0.026
-0.045
0.033
0.058
-0.043
0.026
-0.060
0.070
-0.048
0.113
0.154
-0.033
-0.048
-0.022
0.045
-0.027
-0.003
0.066
0.052
0.081
-0.149
-0.070
0.030
0.088
0.038
0.050
-0.018
-0.014
-0.054
0.013
0.111
-0.004
0.189
-0.038
-0.017
0.098
-0.009
-0.116
-0.083
0.041
0.118
0.039
-0.065
-0.022
0.036
-0.017
0.092
0.077
-0.044
0.068
0.017
0.025
-0.023
-0.005
0.053
0.045
0.002
0.077
0.160
0.008
-0.027
-0.013
-0.110
0.105
0.036
-0.063
-0.025
0.043
0.002
-0.037
0.022
0.051
-0.025
0.025
0.074
0.071
-0.010
-0.027
0.001
0.143
0.044
0.044
0.036
-0.087
-0.028
0.022
0.027
0.003
0.049
0.023
-0.004
0.003
0.003
0.007
-0.017
0.040
0.021
0.014
-0.029
0.084
-0.008
-0.068
0.120
-0.036
-0.027
0.004
0.009
0.096
0.007
-0.078
-0.083
0.017
0.026
0.095
-0.041
-0.053
-0.020
0.103
0.009
-0.074
0.069
0.029
-0.048
-0.016
0.189
-0.023
0.055
0.096
0.040
-0.049
-0.113
0.075
0.037
0.029
-0.006
0.051
0.019
0.028
0.017
0.081
-0.109
0.010
0.032
-0.018
0.058
-0.016
0.003
-0.039
0.049
-0.007
0.018
0.074
0.037
-0.002
0.046
0.002
-0.023
-0.022
0.104
0.044
0.008
-0.018
-0.037
-0.021
-0.000
0.055
0.056
0.016
-0.031
-0.034
0.026
0.093
0.077
-0.049
0.024
-0.056
0.057
-0.037
0.088
-0.015
0.003
0.041
-0.016
0.104
0.025
-0.097
0.089
0.055
0.003
0.026
0.149
-0.007
0.011
-0.064
0.044
0.039
0.018
0.022
-0.038
0.055
0.025
-0.016
0.035
-0.016
0.010
-0.049
0.055
-0.001
-0.089
0.072
0.079
-0.014
-0.002
-0.043
0.013
0.024
0.017
0.136
-0.081
0.053
-0.003
-0.004
0.083
0.053
0.028
-0.020
0.069
0.047
0.086
-0.035
0.041
0.040
0.000
0.076
0.020
-0.020
0.075
0.052
-0.027
-0.042
0.044
0.006
0.049
0.008
-0.020
-0.042
0.097
0.070
-0.071
-0.019
0.035
0.043
0.002
0.059
0.029
0.072
-0.041
0.033
0.045
-0.115
0.044
0.080
0.047
-0.033
0.017
0.006
-0.013
0.109
-0.037
-0.040
-0.019
0.062
0.017
-0.040
0.041
0.069
0.072
0.100
0.000
-0.061
0.007
0.100
0.026
0.014
0.030
0.074
-0.026
0.028
-0.022
-0.033
-0.017
0.081
0.058
-0.028
0.053
-0.045
-0.042
0.057
-0.027
0.037
0.054
-0.026
0.091
0.062
-0.018
0.008
0.053
-0.004
0.057
-0.095
0.000
0.029
-0.006
0.066
0.095
-0.066
-0.070
-0.044
0.042
0.001
0.097
-0.015
-0.007
-0.014
0.000
0.111
0.030
-0.016
0.051
0.033
0.054
0.036
0.044
-0.004
0.076
-0.044
-0.011
0.157
0.051
-0.011
0.047
-0.039
0.054
0.029
0.019
0.053
0.003
0.084
-0.053
-0.029
0.087
0.055
0.027
0.015
-0.070
0.040
0.001
-0.007
0.130
-0.081
0.027
0.086
-0.068
0.019
0.093
0.021
0.084
0.036
-0.078
0.090
-0.027
0.048
0.013
0.030
0.056
0.011
-0.027
-0.054
0.071
-0.029
0.055
0.083
0.020
-0.008
0.039
-0.032
0.068
0.150
-0.050
0.016
-0.043
0.102
-0.033
0.018
0.011
0.054
-0.146
0.043
0.082
0.049
0.031
0.005
0.050
0.053
-0.006
-0.031
-0.012
-0.003
0.124
0.053
-0.019
0.016
-0.040
0.009
0.037
0.054
0.062
0.006
-0.015
0.008
0.061
0.059
-0.104
-0.013
0.093
0.034
-0.111
0.001
-0.043
0.021
0.039
-0.002
0.056
0.065
0.019
0.006
0.062
0.063
-0.011
-0.018
0.092
-0.035
-0.030
-0.075
0.039
0.058
-0.008
-0.022
0.054
0.048
-0.004
0.033
0.058
0.027
0.008
0.053
-0.034
0.051
0.078
0.030
0.016
-0.001
0.016
-0.019
0.005
-0.020
0.030
0.058
0.006
0.011
-0.005
0.055
0.007
-0.048
0.024
0.078
-0.004
0.000
0.061
-0.073
0.019
0.129
0.028
-0.113
0.089
0.065
-0.028
0.109
0.018
0.032
0.045
-0.098
0.089
0.018
0.033
0.017
0.083
-0.002
-0.043
-0.028
0.076
0.030
0.084
-0.038
0.040
-0.067
0.048
0.019
0.051
0.022
-0.008
0.034
0.019
0.026
0.008
-0.068
0.012
0.205
-0.099
0.092
0.008
0.015
-0.075
-0.024
0.062
-0.085
0.098
0.074
0.065
0.098
0.086
-0.052
0.012
-0.043
0.034
0.022
0.058
-0.042
0.013
0.003
0.036
0.066
0.040
0.017
-0.042
-0.072
0.041
-0.032
0.078
-0.029
-0.022
0.008
0.043
0.099
-0.065
-0.012
0.015
0.091
-0.091
0.027
0.022
0.043
0.086
-0.032
0.032
-0.028
-0.042
0.031
-0.023
0.037
0.067
-0.108
-0.046
0.083
0.095
0.044
-0.036
-0.042
0.028
0.068
0.027
0.055
-0.021
0.017
0.054
-0.070
0.027
-0.030
-0.023
-0.021
0.013
0.072
-0.032
-0.051
0.039
0.027
0.098
0.102
-0.002
0.025
-0.030
-0.021
-0.012
0.083
-0.007
-0.124
0.004
-0.034
0.072
0.021
0.091
-0.030
-0.028
0.053
-0.002
-0.038
-0.005
0.043
0.022
0.108
0.015
0.066
0.049
0.056
-0.004
-0.101
0.127
-0.054
0.003
-0.008
0.085
0.020
-0.106
-0.009
-0.003
0.027
0.084
0.017
0.134
0.020
-0.072
-0.031
-0.007
-0.046
0.056
-0.014
0.018
0.017
0.163
0.074
0.000
-0.061
-0.124
0.078
0.070
-0.036
-0.080
0.093
0.101
0.002
-0.060
0.162
-0.048
-0.027
0.092
-0.101
0.002
-0.007
0.058
0.058
0.052
-0.011
0.037
-0.064
0.004
-0.019
0.016
0.033
0.046
0.012
0.017
0.004
0.004
0.055
0.007
-0.024
0.051
0.009
0.013
0.009
0.060
0.004
0.063
0.106
-0.099
-0.014
0.028
0.000
-0.023
0.071
0.015
0.028
-0.028
0.023
-0.001
-0.015
0.073
0.068
-0.016
-0.083
-0.034
0.029
0.059
0.034
0.058
0.072
-0.012
-0.032
-0.006
0.031
0.003
-0.019
0.025
0.014
0.153
-0.020
0.015
0.017
0.055
0.035
0.074
-0.042
0.003
0.072
-0.029
0.030
0.029
-0.034
-0.020
-0.014
0.068
0.097
0.040
0.061
-0.046
-0.039
0.045
0.093
-0.103
-0.079
-0.001
0.056
0.027
-0.026
0.027
0.022
0.097
0.007
0.029
0.013
0.005
-0.001
-0.036
0.079
0.052
-0.034
0.020
0.038
0.110
-0.045
0.084
0.034
-0.055
0.024
0.008
0.038
0.018
-0.006
0.017
0.030
0.043
0.043
0.039
0.045
-0.076
0.003
0.057
0.018
-0.027
0.094
0.053
-0.010
0.003
-0.020
-0.044
0.092
0.042
0.036
-0.001
-0.062
0.018
-0.087
0.083
0.054
0.013
0.007
-0.034
-0.046
-0.010
0.036
0.016
0.108
0.142
0.013
0.042
-0.047
-0.008
-0.063
0.018
0.129
0.021
0.035
0.006
0.059
0.057
0.072
-0.076
-0.045
0.032
0.109
0.075
0.046
-0.052
0.018
0.035
-0.018
-0.018
-0.071
0.055
0.066
-0.015
-0.060
0.009
0.003
0.098
0.065
-0.035
0.013
0.087
0.082
-0.069
-0.002
-0.067
0.093
0.034
-0.081
0.052
0.016
0.100
-0.006
-0.010
0.027
0.026
-0.051
0.011
0.119
0.030
0.024
0.014
0.043
0.046
0.039
-0.062
0.106
0.089
0.062
0.030
-0.008
-0.063
0.030
-0.046
-0.030
0.036
0.056
0.064
-0.020
0.009
-0.049
0.038
0.000
0.006
0.068
-0.021
0.034
-0.037
0.034
0.072
0.011
-0.049
0.095
-0.031
-0.110
0.008
0.012
-0.010
0.126
0.088
0.017
0.117
-0.014
0.033
0.101
0.008
0.042
0.010
-0.014
-0.034
0.081
0.034
-0.001
0.011
0.018
0.056
0.002
0.056
-0.078
0.061
0.017
-0.082
0.071
-0.048
0.148
0.041
0.001
-0.022
-0.033
0.059
0.050
0.017
-0.102
0.122
0.084
-0.001
-0.005
-0.051
0.016
0.077
-0.052
0.003
0.021
0.048
0.013
-0.047
0.059
-0.009
0.004
0.121
0.044
-0.024
-0.015
-0.054
0.113
0.136
0.042
0.018
-0.019
0.004
-0.014
0.060
0.059
0.060
0.036
0.019
-0.116
0.022
0.013
0.193
0.039
-0.054
-0.036
0.009
-0.011
-0.003
-0.021
0.138
0.004
0.055
-0.004
0.005
0.049
-0.116
-0.015
0.089
0.032
0.021
0.036
-0.014
-0.006
0.136
-0.043
-0.019
0.061
-0.005
0.015
0.030
0.068
-0.080
-0.016
0.036
0.020
0.086
-0.043
0.071
0.006
0.012
-0.038
0.035
0.018
0.009
0.098
0.014
0.062
-0.002
-0.006
0.015
0.123
-0.058
0.004
0.103
0.077
-0.104
0.039
-0.078
0.031
0.128
0.030
-0.033
-0.006
-0.050
-0.019
-0.022
0.050
0.108
0.019
0.003
-0.052
0.028
0.006
0.031
0.033
-0.022
0.106
-0.045
0.089
0.065
-0.049
0.003
0.014
-0.010
0.003
0.021
0.072
0.006
0.012
-0.038
0.024
0.021
0.016
-0.022
0.024
0.030
0.002
-0.050
0.105
-0.091
0.025
0.056
-0.021
0.046
0.012
0.008
0.040
0.016
-0.042
0.086
-0.035
0.012
0.099
0.054
0.064
-0.064
-0.020
0.040
0.064
-0.051
0.039
-0.057
-0.061
0.081
-0.008
0.006
0.019
0.003
0.074
-0.011
0.049
-0.051
0.029
0.017
-0.040
0.030
0.098
0.011
-0.102
0.046
0.025
0.054
-0.015
0.028
0.047
-0.023
0.022
0.078
0.004
-0.041
0.026
-0.024
0.004
0.033
0.019
-0.003
0.000
-0.013
0.128
0.001
-0.041
-0.053
-0.029
0.085
0.030
0.052
-0.006
0.014
0.044
0.009
-0.060
0.120
0.091
0.028
-0.054
-0.019
0.066
0.056
0.025
0.014
0.094
-0.056
0.030
-0.019
0.011
-0.023
0.068
0.068
-0.067
0.033
0.031
0.041
0.038
-0.018
0.141
-0.056
0.023
0.015
-0.087
0.077
0.006
-0.024
-0.025
0.049
0.032
0.096
0.008
0.085
-0.036
-0.037
0.006
0.060
0.010
-0.038
0.042
0.079
-0.029
0.072
0.022
0.059
0.000
-0.004
0.027
0.013
-0.029
0.053
0.010
0.006
0.083
-0.017
0.019
-0.020
-0.009
0.056
0.014
-0.021
0.105
0.000
-0.060
0.016
0.203
0.074
-0.065
-0.022
-0.008
-0.001
0.052
0.069
0.001
-0.063
0.003
0.093
0.045
0.042
0.069
0.022
-0.020
0.039
0.084
-0.003
-0.046
0.049
-0.053
0.031
-0.027
0.087
0.129
0.006
0.006
0.005
0.128
-0.108
-0.102
0.018
0.098
0.010
-0.016
-0.037
0.101
0.061
0.000
0.035
0.020
0.053
-0.009
0.140
-0.019
-0.080
0.019
-0.029
0.043
0.099
0.093
-0.111
-0.002
0.015
-0.008
-0.011
0.086
0.107
0.079
-0.067
-0.068
0.063
0.015
0.021
-0.045
-0.035
0.109
-0.002
-0.042
0.059
0.013
-0.087
0.004
0.056
0.037
-0.022
-0.013
0.123
0.002
-0.004
0.002
-0.053
0.059
0.019
0.124
0.010
-0.060
0.023
0.093
0.005
-0.005
-0.005
-0.116
0.044
0.003
-0.014
0.088
0.066
0.040
-0.042
-0.008
-0.010
0.016
-0.000
-0.085
0.038
0.066
0.056
0.049
-0.027
0.042
0.008
0.032
0.056
0.050
-0.012
-0.024
0.019
0.109
0.052
-0.025
0.043
0.033
0.087
0.009
0.008
-0.056
0.027
-0.051
0.019
0.072
-0.008
0.011
0.067
0.017
0.005
0.040
0.075
0.062
0.057
0.033
-0.072
0.085
0.065
-0.014
-0.040
0.000
0.040
-0.056
0.018
0.108
0.082
0.106
-0.071
-0.034
-0.053
0.076
0.009
0.031
0.054
-0.038
0.094
0.103
-0.028
0.045
0.076
0.002
-0.043
0.054
0.027
0.013
0.098
-0.066
-0.034
-0.007
-0.014
0.026
0.006
0.049
-0.053
0.037
0.009
-0.045
0.022
0.051
0.052
-0.010
0.011
0.020
0.001
0.006
-0.016
0.069
-0.139
0.050
0.010
0.030
-0.007
0.027
-0.024
0.096
0.137
0.028
-0.012
-0.074
0.007
0.059
-0.001
0.071
-0.016
0.030
-0.011
-0.021
-0.014
0.021
0.023
-0.079
-0.042
0.127
-0.046
-0.005
0.125
0.019
-0.084
-0.019
-0.031
-0.003
0.032
0.022
0.025
-0.029
-0.048
0.045
0.008
-0.000
0.028
0.143
0.078
-0.092
0.050
0.013
0.080
0.025
0.068
-0.092
0.012
0.074
0.080
-0.000
-0.054
0.005
-0.034
-0.032
-0.066
-0.055
0.086
0.120
-0.082
0.017
-0.057
-0.001
-0.019
0.016
0.034
0.125
-0.020
0.047
0.057
0.078
-0.003
-0.074
-0.025
0.066
0.024
0.098
0.007
-0.039
0.038
-0.021
-0.013
-0.041
-0.002
0.048
0.087
0.033
-0.026
-0.060
0.041
-0.010
0.052
0.013
0.045
0.002
-0.021
0.021
0.105
0.011
-0.057
0.026
-0.017
-0.037
-0.008
0.001
-0.077
0.068
0.027
0.049
-0.064
0.022
0.035
0.018
0.023
-0.080
0.002
0.032
0.020
0.028
0.046
-0.020
0.101
0.065
0.029
-0.009
-0.028
0.018
0.017
0.035
0.061
0.027
0.018
0.044
0.009
-0.056
-0.044
-0.025
0.069
0.094
0.027
0.046
0.047
0.087
0.065
0.052
0.020
-0.029
-0.031
-0.033
0.088
0.032
0.027
0.025
-0.113
0.023
-0.072
0.147
0.053
-0.068
-0.062
0.004
0.039
0.128
-0.030
-0.043
0.038
0.037
0.062
0.023
0.046
0.054
0.025
-0.049
-0.026
0.027
0.094
0.042
0.035
-0.082
-0.015
0.084
0.038
0.005
-0.007
0.048
0.075
-0.021
-0.027
0.096
-0.017
-0.074
0.013
0.083
0.063
0.038
0.017
-0.004
0.027
0.016
0.028
0.093
-0.006
-0.058
0.003
-0.045
0.078
0.037
0.028
0.006
-0.060
0.066
0.060
-0.018
0.031
0.070
-0.096
0.000
-0.022
0.021
0.020
-0.006
0.084
-0.068
-0.030
-0.039
0.088
0.059
0.017
0.027
-0.039
0.126
0.024
-0.012
-0.005
-0.071
-0.057
0.072
0.090
-0.052
0.073
0.078
-0.034
-0.100
0.094
-0.043
0.012
-0.072
0.057
0.015
0.016
-0.007
0.030
0.127
-0.028
0.074
0.025
-0.020
0.026
0.119
-0.009
0.094
-0.074
-0.065
0.013
0.081
0.133
0.081
-0.037
0.066
-0.065
-0.030
0.031
-0.049
-0.004
0.037
-0.001
0.055
0.096
-0.004
-0.052
-0.035
0.038
0.046
-0.004
0.142
-0.070
-0.005
0.069
-0.014
-0.038
-0.030
0.007
0.032
0.045
0.067
0.050
0.031
0.007
-0.023
0.011
0.071
0.057
0.005
-0.040
-0.012
0.037
-0.062
0.059
0.018
-0.012
0.071
0.064
-0.016
0.091
-0.028
0.014
-0.100
0.111
0.038
0.011
0.050
-0.085
0.001
0.045
0.030
-0.011
0.000
0.100
-0.023
0.028
-0.056
-0.062
0.051
0.094
0.012
-0.041
0.023
0.068
-0.037
0.016
0.116
0.018
-0.028
0.027
-0.010
0.060
0.062
-0.046
-0.087
0.067
0.062
0.051
0.043
-0.092
-0.006
-0.061
0.023
0.056
0.068
0.026
-0.024
-0.034
0.053
0.050
0.047
-0.007
0.006
-0.056
0.087
0.100
-0.063
-0.074
0.015
0.184
0.058
0.063
0.096
-0.048
0.005
-0.017
-0.008
-0.014
0.025
0.082
-0.035
0.012
0.064
-0.003
-0.011
0.039
0.011
0.006
0.077
-0.041
0.026
0.043
0.111
0.018
-0.032
-0.031
-0.022
0.028
0.050
0.151
0.050
-0.043
0.014
0.072
0.017
-0.046
0.078
0.048
-0.016
0.034
0.121
-0.041
-0.036
0.026
-0.044
0.073
-0.036
-0.042
0.060
0.070
0.095
0.033
-0.032
0.066
0.089
0.044
-0.013
-0.012
0.030
-0.073
0.015
0.083
0.044
0.005
-0.001
0.088
-0.012
-0.063
0.134
-0.018
-0.002
-0.115
0.013
0.080
0.032
-0.013
0.010
-0.083
-0.007
0.016
0.086
0.063
-0.065
-0.044
0.058
0.036
0.042
0.098
0.060
-0.002
-0.002
-0.028
0.010
-0.034
0.029
0.082
0.122
-0.049
0.083
-0.033
-0.106
-0.003
0.060
0.061
0.109
0.032
0.052
-0.039
-0.015
0.046
0.025
0.009
0.013
0.030
0.071
0.011
0.077
-0.002
-0.114
0.056
0.053
-0.021
0.081
0.031
0.083
0.063
-0.139
-0.012
0.041
0.005
0.025
0.083
0.009
-0.040
0.052
0.028
-0.046
0.000
0.124
0.027
0.090
-0.036
0.031
-0.012
0.024
0.044
0.053
0.084
-0.049
0.012
0.010
0.037
0.079
0.012
-0.014
-0.035
-0.062
0.142
0.025
-0.016
0.023
-0.013
0.032
-0.055
0.076
0.053
0.026
-0.026
0.114
-0.039
0.013
0.052
-0.030
0.066
-0.021
0.052
-0.027
-0.065
0.104
0.030
0.100
-0.105
0.030
-0.113
-0.015
0.080
0.048
0.040
0.007
-0.078
0.062
0.036
0.026
-0.076
-0.039
0.085
0.025
0.021
0.043
0.040
-0.028
0.005
-0.045
0.009
-0.108
0.030
0.029
0.023
0.038
0.040
0.046
-0.052
0.074
0.060
0.014
-0.033
-0.059
-0.043
0.059
0.076
0.028
0.033
-0.062
0.016
0.078
0.004
0.082
0.015
-0.014
0.080
0.076
-0.018
0.019
0.014
-0.024
-0.003
0.032
0.015
0.034
0.009
0.114
0.018
-0.028
0.062
-0.030
0.108
-0.012
0.025
0.112
0.023
-0.006
0.018
0.141
0.052
0.042
-0.009
0.017
0.094
0.015
0.032
0.031
-0.006
-0.016
0.046
0.134
-0.045
0.019
-0.007
-0.003
0.024
0.001
-0.020
-0.042
0.033
0.049
0.037
0.097
0.035
-0.009
0.065
0.097
0.009
-0.032
0.025
0.067
-0.016
0.040
0.045
-0.078
0.058
-0.002
0.118
0.069
-0.077
0.023
0.069
0.025
0.138
0.002
-0.042
0.042
0.007
-0.005
-0.005
-0.004
0.061
0.042
0.024
0.009
0.049
-0.045
0.034
0.067
0.037
0.006
-0.004
0.035
-0.015
0.048
0.031
-0.041
-0.060
0.023
0.031
-0.008
0.058
0.046
0.081
0.022
-0.025
-0.038
0.036
-0.031
0.082
0.026
-0.034
0.007
-0.090
0.028
0.037
0.036
0.063
0.031
0.077
-0.034
0.058
-0.015
-0.041
0.031
0.032
0.000
0.114
0.042
0.051
-0.042
0.038
0.007
0.036
0.084
0.050
0.013
0.093
-0.011
-0.006
-0.064
0.013
-0.005
0.208
0.093
-0.049
-0.004
-0.018
0.105
0.056
-0.032
-0.016
-0.081
0.073
0.105
0.013
0.043
-0.125
-0.052
0.075
0.110
0.096
0.044
-0.086
-0.084
0.037
-0.074
0.076
0.078
0.019
-0.025
0.162
-0.039
0.011
0.046
-0.021
0.071
0.010
0.048
-0.006
0.060
0.055
-0.095
0.027
0.162
0.076
-0.042
0.001
0.100
-0.024
0.002
0.003
-0.039
0.071
0.018
0.046
0.005
0.031
0.093
0.126
-0.025
0.006
-0.106
-0.106
0.022
0.006
0.066
0.075
0.064
0.002
-0.094
0.064
0.096
0.023
0.045
0.010
0.047
0.028
-0.021
0.063
0.004
0.034
-0.021
-0.069
0.077
0.009
0.080
0.088
-0.022
0.083
0.077
0.002
0.034
-0.039
0.116
0.041
-0.062
-0.020
0.115
0.074
-0.009
-0.091
0.015
0.114
0.026
-0.129
-0.039
0.044
0.149
0.007
0.033
0.024
0.048
0.001
-0.018
0.074
0.086
-0.001
0.071
0.057
0.041
-0.044
-0.010
0.027
0.074
0.021
-0.034
0.007
-0.060
0.085
0.042
0.006
-0.042
0.080
-0.088
-0.018
0.061
0.024
0.041
-0.047
0.064
0.091
-0.015
0.004
0.049
-0.056
0.056
0.078
0.066
-0.052
0.020
0.058
0.003
-0.019
0.014
-0.035
0.115
0.054
-0.039
0.007
0.037
-0.006
-0.012
0.013
0.025
0.069
-0.035
0.017
0.056
-0.008
-0.058
0.069
0.086
-0.054
-0.005
0.049
0.030
0.008
-0.041
0.002
0.043
0.159
-0.016
-0.072
-0.068
0.178
-0.056
0.030
0.025
0.016
-0.050
0.065
0.053
0.059
0.030
0.018
-0.022
-0.083
0.035
0.058
0.039
-0.048
0.108
0.067
0.029
-0.003
0.043
0.005
0.037
-0.092
0.058
0.073
0.086
0.070
-0.005
0.018
0.019
-0.028
0.037
-0.127
0.108
-0.004
-0.028
0.011
0.041
0.099
0.004
0.012
-0.022
-0.051
0.023
0.112
-0.033
0.065
0.021
-0.055
0.028
0.013
-0.002
0.179
0.093
-0.085
-0.040
0.024
0.066
-0.041
0.043
-0.070
0.074
0.020
-0.041
0.012
-0.055
-0.005
0.037
0.021
0.035
0.034
-0.001
0.034
0.018
0.006
0.035
0.054
-0.045
0.123
-0.004
-0.010
-0.043
-0.031
-0.066
0.051
0.101
-0.009
0.074
-0.011
-0.034
-0.010
-0.007
-0.006
0.025
0.111
0.039
-0.071
-0.049
-0.011
0.134
0.048
0.056
-0.028
-0.001
0.029
0.017
-0.041
-0.012
0.115
0.021
0.024
0.014
-0.013
-0.063
0.068
0.029
0.032
0.012
-0.026
0.046
0.066
0.035
-0.102
-0.038
0.057
0.023
-0.054
0.055
0.083
0.057
0.082
-0.054
-0.001
0.038
0.046
0.088
0.022
-0.010
-0.045
-0.041
0.067
0.039
-0.001
0.081
0.023
-0.064
0.084
0.013
0.037
-0.001
0.018
0.051
-0.038
0.081
0.045
-0.024
0.012
0.040
0.091
-0.056
0.148
-0.073
-0.004
-0.044
0.088
0.102
0.019
-0.058
0.012
-0.025
-0.030
0.121
0.086
-0.041
-0.049
0.060
0.072
-0.027
-0.074
-0.071
-0.005
0.116
0.048
0.112
-0.015
0.025
-0.012
-0.044
-0.022
0.034
0.033
0.008
0.003
-0.011
0.091
-0.050
-0.018
0.090
0.091
-0.013
0.001
0.031
0.004
0.025
-0.029
-0.003
0.029
0.029
0.102
0.035
0.036
-0.012
-0.018
0.011
-0.020
0.005
-0.003
-0.028
0.009
0.134
0.048
0.073
-0.008
-0.021
-0.079
0.014
0.037
0.022
0.114
-0.036
0.046
-0.076
-0.004
-0.029
0.074
0.005
0.007
-0.025
0.022
-0.056
0.066
0.080
0.052
0.058
0.032
-0.007
-0.045
0.009
0.017
0.016
-0.040
0.070
0.039
0.032
0.045
0.065
-0.045
-0.099
0.049
-0.032
-0.017
0.067
0.088
0.059
-0.040
0.068
-0.003
0.022
0.030
0.039
0.016
0.016
-0.002
0.006
0.065
0.043
0.056
-0.048
0.047
0.015
-0.044
0.002
0.101
0.004
-0.041
0.050
0.047
-0.056
-0.044
0.105
-0.057
0.055
0.111
-0.028
-0.037
0.042
-0.039
0.052
0.116
0.040
0.102
0.039
-0.030
-0.015
0.021
0.057
0.042
0.020
-0.057
0.055
0.052
0.081
0.027
-0.028
0.023
-0.012
0.034
-0.100
0.019
-0.025
0.004
0.154
0.102
0.002
-0.038
-0.060
0.074
0.015
-0.039
0.056
0.102
0.041
-0.023
0.081
0.003
0.057
-0.010
0.073
-0.000
-0.043
0.117
0.034
0.059
0.048
-0.117
-0.006
0.056
0.045
0.033
0.070
0.109
-0.050
0.036
-0.059
0.015
-0.032
0.064
-0.025
0.037
-0.005
0.012
-0.006
0.037
0.048
0.016
-0.031
0.047
0.019
0.016
-0.023
-0.024
0.058
-0.028
0.052
0.062
0.058
-0.040
-0.010
0.036
-0.028
0.021
-0.001
0.038
0.030
0.026
0.003
0.049
0.038
-0.037
0.152
0.020
-0.019
-0.039
0.105
-0.031
0.065
-0.098
0.061
0.123
-0.037
-0.107
-0.080
-0.039
0.121
0.034
0.044
0.019
0.060
-0.044
-0.064
0.051
0.008
0.104
0.018
-0.007
-0.014
-0.011
0.013
0.155
0.027
-0.110
-0.023
0.068
0.077
0.023
-0.030
0.004
0.053
-0.010
-0.056
0.057
0.180
-0.016
-0.022
0.010
0.018
-0.034
-0.025
-0.019
0.057
0.129
-0.023
0.042
0.105
-0.016
0.012
-0.031
0.005
-0.005
0.004
-0.012
-0.026
0.059
0.086
0.100
-0.041
-0.048
0.019
0.003
0.021
0.008
0.009
0.033
0.106
-0.095
-0.053
-0.025
-0.009
0.073
0.024
0.031
-0.027
0.021
0.024
0.043
-0.100
0.071
0.043
-0.022
0.047
-0.033
0.018
0.007
-0.048
-0.001
0.021
0.121
0.039
-0.024
-0.062
0.051
0.085
0.028
0.028
0.048
0.022
-0.061
0.078
-0.024
-0.168
0.052
0.111
0.029
0.065
-0.049
0.001
0.064
0.022
-0.056
-0.042
0.037
-0.014
0.046
0.005
-0.053
-0.059
0.056
-0.004
-0.027
0.066
-0.091
-0.045
0.112
0.028
0.022
0.016
-0.126
0.074
0.065
0.060
-0.011
0.037
0.012
0.031
0.022
0.066
0.023
-0.040
0.004
-0.019
0.055
-0.074
0.057
-0.019
0.042
0.006
0.000
0.116
0.000
-0.008
-0.010
0.130
0.003
-0.098
0.028
0.049
0.108
0.022
0.033
-0.008
-0.074
0.001
0.060
0.104
0.067
0.093
0.049
0.011
0.042
-0.049
-0.028
0.048
0.007
-0.041
0.012
0.008
0.047
-0.017
0.012
-0.025
0.056
0.023
0.050
-0.002
0.046
0.036
0.052
-0.001
0.020
-0.008
-0.023
0.035
0.030
-0.038
-0.029
0.044
0.029
0.032
0.087
-0.042
0.057
0.044
0.056
-0.045
0.108
0.030
0.046
-0.032
0.002
0.033
0.110
0.084
0.066
0.010
-0.024
0.002
-0.025
0.037
0.060
0.013
0.009
0.047
0.021
-0.046
0.047
0.088
-0.077
0.016
0.099
0.036
-0.059
0.000
0.081
0.046
-0.011
0.041
-0.012
0.037
-0.114
0.064
0.101
0.087
-0.020
-0.095
0.017
-0.008
-0.054
0.025
0.113
-0.007
0.021
0.083
0.012
-0.041
-0.015
0.051
0.064
0.013
-0.064
0.096
0.030
-0.011
0.056
0.133
0.023
-0.034
0.051
-0.005
0.017
0.068
-0.065
0.085
0.077
0.086
0.001
0.025
0.006
0.043
0.082
-0.021
0.049
0.046
-0.072
0.074
0.006
-0.004
-0.042
0.021
0.031
-0.088
-0.018
0.032
0.090
0.015
0.043
0.012
0.065
0.036
-0.060
0.017
-0.062
0.040
0.049
0.056
-0.026
-0.036
0.055
0.003
0.107
-0.016
0.029
0.059
-0.007
0.000
0.022
-0.007
0.008
0.057
0.075
0.005
0.092
0.007
-0.016
0.075
-0.004
0.033
-0.017
0.022
-0.016
0.083
-0.090
-0.009
0.006
0.088
-0.009
0.053
-0.027
-0.008
0.021
0.005
0.096
-0.012
-0.093
-0.006
0.083
0.089
0.022
0.041
0.005
0.037
-0.086
0.065
0.159
-0.046
0.045
-0.023
0.044
-0.033
-0.008
0.007
0.012
0.012
0.009
-0.042
-0.000
-0.024
0.082
-0.011
0.043
0.126
0.030
-0.087
-0.007
0.104
0.085
-0.006
0.002
0.005
0.116
-0.014
0.029
0.041
0.025
0.037
-0.017
0.016
0.026
-0.029
-0.078
0.017
0.147
0.035
-0.036
0.031
0.008
0.053
0.034
0.060
-0.005
-0.023
0.001
0.010
0.136
0.068
0.060
-0.080
-0.015
-0.004
0.015
0.059
0.017
-0.083
0.001
0.044
0.037
0.075
-0.002
-0.064
0.046
-0.010
0.042
0.033
-0.030
-0.022
0.005
0.051
0.029
-0.003
0.104
0.044
0.029
-0.032
0.027
-0.001
0.004
0.061
0.020
0.059
-0.056
0.011
0.122
-0.030
0.057
0.058
0.024
0.044
-0.013
-0.112
0.010
0.111
-0.014
-0.016
0.113
-0.055
-0.024
-0.067
0.080
0.044
-0.029
0.022
0.076
0.005
0.022
0.067
0.057
0.023
0.067
-0.034
-0.003
0.046
-0.045
0.041
0.035
0.102
-0.064
-0.005
-0.004
-0.009
-0.001
0.035
0.066
0.018
-0.014
-0.011
0.018
0.057
-0.019
0.096
0.049
0.037
0.002
-0.067
0.045
0.069
0.000
0.089
0.054
-0.069
-0.040
0.046
0.016
0.141
0.047
-0.088
0.045
-0.002
0.020
0.075
0.075
-0.129
0.001
0.051
-0.004
-0.017
0.053
-0.013
0.177
-0.016
-0.034
-0.023
0.041
0.000
0.057
0.014
0.094
-0.068
-0.033
-0.001
0.076
0.089
-0.043
-0.039
0.088
-0.052
-0.029
0.074
-0.018
0.100
0.024
-0.018
0.027
0.067
-0.073
-0.063
-0.020
0.007
-0.037
0.061
0.126
0.017
0.012
-0.068
-0.016
0.114
0.085
0.009
-0.058
-0.045
0.007
0.036
0.028
0.140
-0.001
-0.134
-0.027
0.022
0.126
0.089
-0.017
0.066
-0.058
-0.030
-0.022
0.024
-0.036
-0.011
0.101
0.022
-0.006
0.025
0.040
-0.054
0.076
0.133
-0.055
0.003
-0.016
0.041
-0.007
0.103
0.000
0.038
-0.016
0.001
0.079
0.073
0.048
0.035
-0.061
-0.107
-0.001
0.018
0.081
0.055
0.008
-0.078
0.033
-0.077
0.074
-0.060
0.043
0.098
-0.028
0.096
-0.022
0.111
-0.054
-0.080
0.014
0.124
0.116
-0.049
-0.041
-0.010
0.088
0.056
0.017
-0.043
0.013
0.058
-0.017
0.026
-0.035
0.008
0.051
-0.018
0.048
0.003
0.001
0.073
-0.069
0.071
0.044
0.068
0.000
0.011
0.021
0.005
0.050
-0.017
0.069
-0.072
0.070
0.061
-0.047
-0.027
0.056
0.026
0.041
-0.036
0.007
0.015
0.019
-0.008
0.021
0.060
-0.043
0.022
0.052
-0.076
0.005
0.054
0.071
-0.079
-0.020
-0.075
-0.091
0.084
0.121
0.005
0.037
0.099
-0.072
-0.002
-0.001
0.075
-0.017
0.119
0.040
-0.063
0.030
0.056
0.078
-0.102
0.053
0.087
-0.003
-0.062
-0.008
0.007
-0.016
0.025
0.016
0.089
-0.035
0.072
0.012
-0.049
-0.063
0.033
0.111
0.002
-0.044
0.057
0.071
0.024
-0.032
0.039
-0.062
0.015
0.177
0.013
-0.050
-0.016
-0.086
0.057
0.008
0.125
0.072
0.035
-0.049
-0.005
-0.022
0.033
0.055
0.017
0.080
0.047
0.084
-0.021
-0.078
0.027
0.041
0.071
0.044
0.035
0.015
0.042
0.030
0.037
0.012
-0.028
0.010
0.035
0.033
-0.032
0.022
-0.070
0.107
-0.080
-0.014
0.028
0.048
0.061
0.014
0.023
0.022
-0.006
-0.032
0.141
0.032
0.087
-0.038
-0.016
0.078
-0.000
0.078
0.113
-0.079
0.010
0.038
0.035
0.072
-0.085
0.026
0.038
0.065
0.072
0.062
0.006
0.010
0.009
0.085
-0.016
-0.033
0.031
0.055
0.001
0.096
0.033
-0.107
-0.033
0.047
-0.050
-0.004
-0.026
0.065
0.103
0.005
-0.019
-0.046
0.016
0.067
0.053
0.050
0.012
0.056
-0.042
-0.030
-0.053
0.042
0.011
0.053
0.093
0.021
-0.115
0.094
0.099
-0.001
0.073
-0.033
0.118
-0.047
-0.009
0.005
-0.044
-0.021
0.107
0.026
0.009
0.061
0.016
0.043
-0.007
-0.029
0.019
0.053
0.079
-0.023
-0.066
-0.036
0.102
0.030
0.036
0.033
0.032
-0.046
0.108
0.060
-0.029
0.010
-0.053
0.059
0.033
0.066
0.001
-0.012
-0.037
0.049
0.058
0.075
0.004
0.040
0.001
0.041
-0.018
0.031
0.006
0.081
-0.050
-0.053
0.036
-0.020
0.043
-0.001
0.036
0.030
-0.014
0.075
0.053
0.022
-0.039
-0.032
0.078
0.010
0.014
0.018
0.091
0.027
0.035
0.001
-0.052
0.052
-0.045
0.041
-0.046
0.021
0.040
-0.012
0.036
0.020
0.085
0.007
-0.050
0.033
0.044
-0.028
0.020
0.030
0.090
-0.011
0.009
-0.046
-0.010
0.027
-0.047
0.146
0.035
-0.051
0.081
-0.041
0.039
0.029
0.029
-0.054
-0.004
0.024
-0.022
-0.083
0.080
-0.078
-0.090
0.054
0.058
0.051
-0.047
0.125
-0.008
0.062
-0.094
0.004
0.033
0.100
0.016
0.032
0.037
-0.072
0.011
0.009
-0.008
-0.006
0.104
0.004
0.071
-0.005
-0.020
-0.028
-0.055
0.108
0.093
-0.017
-0.030
0.045
0.002
0.043
-0.025
-0.081
-0.048
0.046
0.082
-0.062
-0.014
0.062
0.057
0.058
-0.003
0.073
0.020
-0.077
-0.031
-0.007
0.076
0.050
0.126
0.052
-0.028
-0.063
-0.081
0.033
0.028
0.139
-0.026
0.031
-0.014
-0.065
0.013
0.091
-0.070
0.006
-0.023
0.044
0.122
0.049
-0.028
-0.084
0.035
0.091
0.026
0.077
-0.087
0.054
0.027
0.047
0.065
0.005
-0.038
0.019
0.038
0.012
0.010
0.070
-0.028
-0.066
-0.017
0.122
0.120
0.011
-0.060
-0.025
-0.027
0.021
0.032
0.041
0.059
0.006
0.020
-0.021
0.058
-0.005
0.052
-0.029
0.107
0.040
-0.042
0.065
0.040
-0.031
0.002
-0.023
0.047
-0.036
0.043
0.054
-0.053
0.124
0.060
-0.035
-0.032
0.066
-0.008
-0.009
0.003
0.032
0.005
0.060
0.098
0.052
-0.069
0.005
0.079
0.032
-0.058
0.011
-0.008
-0.042
0.071
-0.030
0.088
0.021
-0.023
0.119
0.045
-0.055
0.042
0.005
0.102
0.084
-0.047
-0.120
0.040
0.025
-0.009
0.086
0.099
0.089
-0.202
-0.005
-0.042
0.058
-0.055
0.095
0.011
0.003
0.093
-0.029
-0.034
-0.018
0.007
-0.008
0.150
0.032
-0.087
0.004
0.089
0.001
0.042
-0.059
-0.040
0.075
0.055
0.071
0.016
0.042
-0.004
-0.047
0.035
0.044
0.003
0.091
0.131
-0.118
-0.032
-0.002
-0.029
0.233
0.040
0.009
-0.054
0.007
-0.077
0.094
0.084
-0.011
0.017
-0.029
-0.004
0.024
0.078
-0.026
0.068
0.032
0.015
0.013
0.034
-0.017
-0.028
0.062
-0.025
-0.005
0.040
0.008
0.022
0.068
0.088
0.061
-0.001
-0.015
-0.107
0.087
0.003
0.011
-0.065
0.052
0.025
0.035
0.060
-0.049
-0.065
0.040
0.054
0.009
0.033
-0.053
0.064
0.008
0.021
0.037
0.018
0.106
0.046
-0.064
-0.031
0.025
0.017
-0.032
0.078
-0.026
-0.032
0.211
-0.007
-0.054
-0.070
0.084
0.017
0.046
0.010
-0.057
0.076
-0.000
-0.025
-0.001
-0.067
0.069
0.073
0.058
-0.058
0.008
-0.002
0.033
0.007
0.012
0.070
-0.058
0.024
0.037
0.013
0.059
-0.076
-0.033
-0.015
-0.017
0.043
-0.070
-0.065
0.160
0.111
0.048
-0.034
-0.080
0.001
0.058
-0.055
0.132
-0.025
0.103
-0.037
0.039
-0.036
0.071
0.013
0.028
0.009
0.058
0.010
-0.038
0.019
-0.021
0.091
-0.044
0.082
-0.015
-0.029
0.101
0.028
0.015
-0.046
-0.015
0.107
-0.001
0.066
0.014
0.019
-0.042
0.017
-0.048
-0.060
0.011
0.090
0.041
0.081
0.015
0.041
-0.069
0.118
-0.020
0.031
0.033
-0.023
-0.028
0.015
0.071
0.034
-0.008
-0.053
-0.011
0.020
0.015
0.021
-0.042
0.007
0.047
0.047
0.025
-0.034
0.054
0.036
0.037
0.042
0.043
-0.022
-0.032
0.057
0.038
0.026
-0.030
0.085
-0.079
0.015
0.088
0.019
-0.088
0.070
0.036
0.059
0.026
0.043
-0.022
0.100
-0.017
0.063
0.088
-0.011
-0.040
0.013
0.058
0.142
-0.013
-0.004
-0.012
0.081
-0.040
-0.033
0.065
0.126
-0.110
0.143
0.038
0.022
-0.012
-0.036
-0.003
0.037
0.077
-0.075
-0.079
0.031
0.002
-0.012
0.109
0.147
0.114
-0.072
0.033
-0.037
0.064
-0.039
0.072
0.018
-0.053
0.145
0.013
-0.023
0.059
-0.001
-0.001
-0.017
0.090
-0.008
-0.042
0.039
0.002
-0.021
0.107
0.091
0.072
0.028
-0.047
0.012
0.093
0.078
-0.041
-0.038
0.071
0.055
0.030
-0.006
-0.040
-0.035
0.133
0.024
0.020
-0.039
-0.060
0.080
0.006
0.033
0.031
-0.023
-0.014
0.045
-0.020
0.001
0.029
0.035
-0.052
-0.006
0.019
-0.060
0.084
0.088
-0.024
0.024
-0.073
0.029
0.075
-0.031
0.034
0.034
0.020
-0.036
0.078
0.034
-0.043
0.012
0.030
-0.018
-0.039
0.075
0.068
-0.018
0.070
0.037
-0.018
-0.049
0.066
-0.056
-0.040
0.093
0.066
-0.007
0.037
0.036
0.013
0.032
-0.031
-0.001
0.038
0.057
0.059
-0.035
-0.028
-0.050
-0.003
-0.008
-0.024
0.135
-0.003
0.037
-0.017
-0.051
0.047
0.131
0.006
0.074
0.070
-0.034
0.008
0.058
-0.011
-0.019
0.066
0.013
-0.025
0.004
-0.010
0.009
0.109
0.026
0.033
0.014
0.012
0.017
-0.021
0.099
0.017
-0.000
0.056
0.086
0.020
0.056
0.071
-0.090
0.037
-0.054
-0.002
-0.028
0.018
0.049
0.025
0.029
-0.013
0.033
-0.019
0.059
0.044
-0.040
0.034
-0.040
0.019
0.107
-0.021
-0.034
0.032
0.091
0.060
-0.002
0.033
-0.027
0.056
0.005
-0.051
-0.026
-0.021
0.164
0.128
-0.017
-0.093
0.064
0.069
-0.055
0.029
0.098
-0.022
0.030
0.062
-0.003
0.038
0.132
-0.011
-0.106
0.001
-0.057
0.050
-0.046
0.035
0.020
-0.055
0.133
0.073
-0.045
0.008
-0.130
0.005
0.055
-0.006
0.081
0.061
0.026
0.030
0.026
-0.039
0.052
-0.054
-0.039
0.055
0.080
-0.006
-0.083
-0.027
0.091
0.086
-0.001
-0.003
-0.005
-0.034
0.092
0.019
0.046
0.081
-0.011
-0.027
0.027
0.116
-0.002
-0.049
-0.015
-0.046
0.064
-0.017
0.030
-0.072
0.092
0.015
0.094
-0.022
-0.062
0.055
0.032
0.078
0.004
0.052
0.051
0.033
0.067
0.005
-0.094
0.055
0.061
0.061
-0.050
-0.006
-0.044
-0.032
0.031
-0.044
0.042
-0.019
0.055
0.052
0.085
-0.054
0.009
0.133
-0.010
0.044
0.045
0.016
0.057
0.040
0.034
0.023
-0.024
0.008
0.101
0.006
-0.057
0.048
0.013
0.042
-0.007
0.068
-0.005
0.034
-0.014
0.118
0.080
0.001
-0.014
0.048
0.074
-0.070
-0.048
0.007
0.119
-0.024
-0.116
0.165
-0.010
0.009
-0.065
0.001
0.042
0.009
0.106
-0.001
0.063
0.015
-0.002
-0.069
0.018
0.106
0.010
-0.042
0.005
0.015
0.067
0.121
-0.066
0.094
0.015
0.015
0.035
0.031
0.082
0.068
-0.091
-0.023
-0.031
0.003
0.040
-0.029
0.058
0.035
-0.001
0.063
-0.047
-0.122
0.120
0.080
-0.067
-0.018
0.001
0.013
0.083
0.054
-0.010
-0.020
-0.027
-0.020
0.010
-0.026
0.044
0.013
0.031
-0.007
0.078
0.117
-0.094
-0.039
-0.006
0.080
0.002
-0.095
0.108
0.023
-0.041
0.020
-0.078
0.014
0.042
0.068
0.151
-0.045
0.008
0.076
0.043
0.026
-0.032
0.036
-0.024
0.028
0.044
0.004
-0.045
0.073
-0.009
0.007
0.073
-0.062
0.030
-0.092
0.148
-0.002
0.037
-0.048
0.048
0.077
0.008
-0.037
-0.039
0.097
0.066
-0.050
-0.026
-0.060
0.038
0.105
-0.020
-0.075
0.071
-0.014
0.043
-0.041
0.005
0.003
0.080
0.061
0.059
0.021
0.030
0.063
0.017
0.038
-0.089
0.070
-0.052
-0.051
0.098
0.038
0.067
0.005
-0.026
-0.003
0.078
0.029
-0.090
-0.019
-0.008
-0.015
0.013
-0.038
0.044
0.010
-0.033
0.098
0.023
0.027
-0.066
0.090
0.036
0.020
-0.048
-0.021
-0.086
0.039
0.109
-0.004
-0.097
0.053
0.078
0.040
-0.048
-0.063
0.015
0.012
0.082
0.004
0.014
-0.059
0.023
-0.011
0.085
0.053
0.053
0.086
-0.084
-0.081
0.015
0.031
0.063
0.044
-0.029
-0.038
-0.039
0.167
-0.020
0.000
0.038
-0.052
-0.052
0.007
0.063
0.126
0.004
-0.005
-0.071
0.024
0.017
0.105
0.092
0.007
-0.175
-0.049
0.131
0.048
0.002
0.014
0.002
-0.005
-0.010
0.013
-0.024
0.058
0.010
-0.039
0.040
0.027
0.091
0.015
0.040
-0.069
0.136
-0.015
-0.019
0.083
-0.091
0.075
0.128
-0.007
0.018
-0.018
0.070
-0.051
0.002
0.057
0.020
0.004
-0.056
0.038
0.053
0.006
0.048
-0.051
0.084
-0.008
-0.045
0.045
-0.043
0.146
0.099
-0.006
-0.007
-0.055
0.044
0.083
0.010
0.046
0.043
-0.023
-0.099
0.111
0.105
0.086
-0.054
-0.029
0.084
-0.036
-0.014
0.037
0.040
0.036
0.016
0.095
-0.017
0.022
-0.052
-0.038
-0.026
0.069
0.066
0.071
-0.055
-0.006
0.022
-0.042
0.102
-0.050
0.023
0.065
0.059
-0.042
-0.021
0.070
-0.014
0.056
0.051
-0.042
0.005
-0.062
0.109
0.008
0.038
-0.057
0.209
-0.021
-0.105
-0.028
0.063
0.143
-0.033
-0.053
0.050
-0.008
0.101
-0.016
0.036
0.018
-0.064
-0.052
0.004
0.074
0.146
0.031
0.074
-0.041
0.030
-0.047
0.025
-0.026
0.018
0.045
0.066
0.062
0.002
-0.039
-0.027
-0.008
-0.030
-0.066
0.168
0.043
0.001
0.015
-0.071
-0.043
-0.028
-0.019
0.038
0.070
0.059
0.040
-0.106
0.082
0.153
-0.067
0.064
0.005
-0.089
-0.002
0.078
0.063
-0.013
-0.003
0.070
0.082
0.046
-0.014
0.012
0.014
0.013
0.037
-0.050
0.026
0.179
0.022
-0.058
-0.028
-0.093
0.123
-0.006
-0.015
-0.006
0.098
-0.018
0.071
-0.034
0.054
-0.039
0.018
0.005
0.020
0.054
0.039
0.027
0.027
0.018
-0.002
-0.035
0.028
-0.071
0.031
0.081
0.001
0.122
-0.040
0.035
-0.022
-0.089
0.052
0.098
-0.052
-0.019
0.073
0.085
-0.016
0.004
0.116
-0.001
-0.014
0.042
0.023
0.051
0.123
-0.020
-0.012
0.006
-0.049
0.033
0.067
0.062
-0.025
0.059
-0.049
-0.035
-0.080
0.052
-0.010
-0.011
0.065
-0.051
-0.093
-0.015
0.131
0.072
-0.079
0.131
0.029
-0.020
0.021
0.113
-0.033
-0.012
0.019
0.055
-0.018
0.046
-0.002
0.035
0.013
0.028
0.019
-0.038
0.022
0.077
0.009
-0.073
0.027
-0.025
0.049
-0.033
0.029
0.028
0.148
-0.006
-0.085
0.033
0.074
0.043
-0.087
0.062
-0.062
0.058
0.079
-0.101
0.065
0.050
-0.000
0.040
-0.008
-0.051
-0.026
-0.024
0.078
0.010
0.091
-0.014
0.004
-0.006
0.042
0.119
-0.004
-0.050
0.027
0.037
0.007
-0.008
0.030
0.033
0.039
-0.055
0.104
0.066
-0.091
0.055
0.005
0.011
0.017
0.099
0.053
0.022
-0.039
-0.073
0.075
0.057
0.010
0.073
-0.009
0.025
-0.004
0.010
-0.015
0.038
0.051
0.061
-0.011
0.035
0.019
0.030
0.052
-0.037
0.082
0.003
0.084
-0.049
-0.033
0.120
-0.008
0.053
0.006
-0.012
0.075
0.057
-0.004
0.018
-0.014
0.048
0.098
-0.035
0.020
0.059
-0.004
-0.011
0.036
0.094
-0.064
0.090
-0.025
0.018
0.071
0.067
-0.042
0.022
0.035
-0.022
-0.020
0.016
-0.091
0.117
0.046
-0.062
0.018
-0.045
0.096
-0.001
0.044
-0.034
-0.025
-0.081
-0.067
0.062
0.079
-0.051
0.037
0.078
-0.047
-0.019
0.041
0.057
0.026
0.030
0.076
0.017
0.157
0.000
-0.112
0.073
0.026
0.043
0.109
-0.087
-0.095
-0.008
0.030
0.027
0.071
-0.032
0.007
0.036
-0.071
0.059
0.079
-0.106
0.078
-0.023
0.081
0.006
-0.075
-0.007
0.083
0.010
0.034
-0.023
0.049
-0.007
-0.046
0.042
-0.006
0.041
0.064
0.048
-0.020
0.111
-0.001
-0.049
0.131
0.020
-0.025
-0.000
0.010
-0.045
0.028
0.106
0.039
0.048
-0.045
0.040
0.027
0.078
-0.018
-0.109
0.011
0.030
0.069
0.077
0.065
0.037
0.018
0.074
0.054
-0.027
-0.039
0.045
0.142
0.005
0.053
-0.003
-0.050
0.113
0.064
-0.022
-0.075
-0.016
0.023
-0.059
0.130
-0.031
0.037
-0.051
-0.002
0.049
-0.035
0.028
0.023
0.104
-0.106
0.050
0.044
0.025
0.025
0.040
0.106
-0.015
-0.051
0.031
0.075
0.017
-0.027
0.078
-0.021
-0.048
0.056
-0.042
-0.069
-0.040
0.094
0.037
0.027
0.067
-0.141
0.033
0.109
0.023
0.039
0.012
0.054
0.028
0.030
-0.077
-0.022
0.022
-0.026
-0.010
0.079
0.052
0.005
0.037
0.034
0.070
0.078
0.055
-0.009
-0.033
0.012
0.068
-0.008
0.058
-0.014
0.041
-0.010
-0.076
0.076
0.016
0.012
0.032
0.034
-0.030
-0.026
0.115
0.060
-0.009
0.107
-0.003
0.011
0.076
-0.015
0.043
-0.063
0.050
0.011
0.100
0.065
-0.048
0.039
0.009
0.021
0.029
0.008
0.122
-0.025
-0.025
0.037
0.019
0.022
0.014
0.086
0.045
0.070
0.015
0.041
-0.041
-0.038
0.046
0.020
0.012
0.030
0.031
0.228
-0.052
0.006
0.011
0.011
0.009
0.002
0.004
-0.015
0.019
0.087
0.015
0.110
0.045
-0.071
-0.098
-0.008
0.063
0.098
0.023
-0.005
0.039
-0.011
-0.012
0.018
-0.040
0.065
0.063
0.036
0.068
0.046
0.052
-0.007
0.019
0.062
0.012
0.026
0.047
0.048
0.040
-0.065
-0.013
0.020
0.082
0.053
0.043
-0.023
-0.076
0.039
0.079
0.057
-0.024
-0.016
0.047
0.009
-0.020
-0.037
0.024
0.141
-0.037
-0.018
-0.019
0.082
-0.069
0.025
0.031
0.024
0.090
0.074
0.035
0.067
0.051
-0.025
0.051
0.072
0.024
0.015
-0.013
-0.034
0.029
0.028
0.043
-0.005
0.104
-0.007
-0.039
0.101
0.059
0.023
0.028
0.111
-0.070
0.058
-0.038
0.020
-0.020
0.008
0.024
-0.018
0.158
0.026
0.008
0.033
-0.074
0.048
-0.085
-0.045
0.052
0.094
0.051
0.046
-0.047
0.008
-0.018
0.038
0.107
-0.036
0.058
-0.008
-0.014
0.011
0.027
-0.062
0.082
0.066
0.017
0.027
0.051
0.028
0.013
0.050
-0.059
0.038
0.066
0.017
0.048
0.067
-0.035
-0.060
0.013
-0.053
0.019
0.033
-0.081
0.091
0.031
0.022
-0.076
0.074
-0.005
0.020
-0.054
0.124
0.044
0.052
-0.051
0.024
0.029
0.008
0.025
0.029
0.034
-0.026
0.033
0.058
0.055
-0.061
-0.035
-0.030
0.009
0.110
0.050
0.018
0.030
0.037
0.007
-0.010
-0.076
-0.019
0.007
0.017
0.039
0.130
-0.078
-0.001
0.015
0.007
-0.060
0.017
0.037
-0.050
0.065
0.066
0.029
-0.044
-0.039
-0.045
0.015
0.086
0.015
0.032
0.116
0.075
0.019
-0.058
-0.048
0.016
0.139
0.033
-0.004
-0.001
0.056
0.086
-0.029
0.005
0.028
0.002
0.028
-0.007
0.062
0.023
0.049
0.103
-0.027
-0.035
0.058
-0.041
-0.060
0.029
0.067
0.120
-0.088
0.052
0.049
-0.069
-0.072
0.063
-0.068
-0.013
0.051
-0.002
-0.014
-0.027
-0.009
0.018
-0.042
0.056
-0.044
0.029
0.074
0.003
-0.092
0.093
0.027
0.035
0.118
0.107
-0.065
0.035
0.029
0.033
-0.013
0.027
0.060
-0.049
0.026
0.031
0.077
0.004
0.082
-0.009
0.045
-0.010
-0.053
0.029
-0.004
-0.001
-0.066
0.046
-0.065
0.040
0.030
0.023
-0.101
-0.059
0.026
0.090
0.031
-0.065
-0.018
0.028
0.004
0.137
0.020
0.019
-0.051
0.033
0.075
-0.010
0.040
0.058
0.072
0.131
0.007
-0.030
0.042
0.085
0.022
-0.081
0.092
0.059
-0.036
0.096
-0.058
0.044
0.161
0.000
-0.007
0.005
0.041
-0.003
0.063
0.046
0.093
0.103
-0.049
-0.012
-0.062
0.060
0.040
-0.008
-0.009
0.097
0.047
0.056
-0.047
-0.020
0.030
0.052
0.139
0.063
-0.004
-0.019
0.066
0.057
-0.002
0.034
0.034
0.007
0.051
0.006
0.068
0.102
-0.008
0.014
0.033
0.017
-0.020
-0.018
0.083
0.068
-0.079
0.039
-0.024
0.004
0.148
0.014
-0.010
0.041
0.036
0.075
-0.022
0.026
0.017
0.075
0.024
0.032
0.027
0.020
0.022
0.180
-0.004
-0.001
-0.015
0.015
-0.031
0.098
-0.047
0.094
0.036
-0.007
-0.047
-0.027
-0.006
-0.053
0.046
0.010
-0.024
0.083
-0.015
0.043
0.009
0.036
-0.027
-0.038
0.053
0.121
0.054
-0.059
0.057
-0.001
-0.081
0.098
-0.032
-0.008
0.145
0.115
-0.004
-0.015
0.135
0.014
0.044
-0.009
-0.004
-0.019
0.080
-0.012
0.014
0.051
-0.015
0.001
0.042
0.024
0.073
-0.062
-0.041
0.027
-0.004
0.093
0.087
0.030
0.001
-0.052
-0.009
0.067
-0.066
-0.137
0.051
0.061
-0.049
0.080
0.015
0.103
0.048
-0.003
-0.040
-0.021
0.080
0.014
0.072
-0.018
-0.024
-0.005
-0.099
0.053
0.044
0.057
-0.027
-0.170
0.042
0.078
0.065
-0.007
-0.130
0.131
-0.017
0.022
0.043
0.033
0.048
0.039
0.024
-0.014
-0.092
-0.074
0.070
0.082
0.059
0.058
-0.023
-0.034
-0.031
0.044
0.087
0.037
0.062
-0.018
-0.052
0.109
0.031
0.058
-0.042
0.040
0.019
0.044
-0.042
-0.022
0.016
-0.016
-0.001
0.025
0.050
0.158
-0.004
-0.085
-0.077
0.080
0.140
-0.015
-0.031
-0.070
0.044
0.032
0.062
-0.006
0.030
0.074
0.007
0.045
0.006
-0.052
0.037
0.016
-0.001
0.018
-0.010
0.092
-0.080
0.123
0.004
0.009
0.009
0.048
0.030
-0.036
0.156
0.042
-0.025
-0.054
0.108
0.099
-0.063
0.075
0.047
0.036
-0.063
-0.004
0.068
0.058
-0.042
-0.034
0.003
0.053
-0.062
0.028
0.111
-0.026
0.020
-0.063
-0.050
-0.026
0.080
0.073
-0.003
-0.020
-0.018
-0.029
0.097
0.121
0.062
-0.050
0.010
0.060
-0.002
-0.054
0.014
0.066
0.105
-0.093
0.001
0.022
0.041
0.023
-0.025
0.052
-0.040
0.108
-0.051
-0.076
0.037
0.112
-0.020
0.026
-0.002
0.028
0.013
0.009
-0.012
-0.015
0.081
0.075
0.031
0.080
0.001
0.036
0.000
-0.048
0.062
0.122
0.023
-0.050
-0.104
0.039
0.043
0.076
-0.008
0.074
0.040
-0.016
0.042
0.060
-0.022
0.016
0.023
0.013
0.016
0.008
-0.003
0.047
-0.112
0.081
0.008
0.048
0.019
-0.009
0.047
0.002
0.025
0.056
0.074
-0.015
0.051
0.014
-0.069
-0.016
0.012
0.043
0.107
-0.009
0.024
0.076
-0.008
0.135
-0.038
-0.012
-0.005
-0.040
-0.035
0.042
0.089
-0.033
0.054
-0.026
0.018
0.035
0.087
-0.080
0.044
-0.032
0.115
0.051
0.005
-0.043
0.002
-0.051
0.100
0.093
-0.021
0.079
0.050
-0.017
0.022
-0.025
0.064
-0.004
0.095
0.041
-0.050
0.007
-0.036
0.101
0.066
0.028
0.071
-0.071
0.065
0.060
-0.034
0.040
0.003
0.027
-0.047
0.060
0.115
0.068
0.013
-0.072
0.098
-0.020
-0.048
0.009
-0.002
0.119
-0.005
0.035
-0.017
-0.038
0.132
0.001
-0.137
0.119
0.027
-0.072
-0.048
0.127
0.003
0.053
0.089
-0.079
0.047
-0.005
0.098
0.085
0.049
-0.022
0.073
-0.105
0.022
0.061
0.003
0.086
0.020
-0.034
0.008
-0.020
-0.017
-0.015
0.065
0.079
-0.035
-0.019
0.069
-0.100
0.059
0.077
-0.070
0.082
-0.005
-0.003
0.073
0.066
-0.011
-0.018
-0.024
0.042
0.009
0.108
-0.030
0.019
0.029
0.024
-0.000
-0.052
0.036
0.087
0.048
0.083
-0.022
-0.005
0.031
-0.035
-0.049
0.048
0.045
-0.049
0.025
0.079
-0.029
0.076
0.098
-0.042
-0.008
-0.003
0.042
0.053
0.001
-0.034
0.058
0.062
0.029
0.003
-0.024
0.014
0.008
0.025
0.062
0.025
-0.040
-0.015
0.061
0.114
-0.067
0.063
0.036
0.037
-0.018
-0.003
-0.010
0.053
0.133
0.027
0.068
-0.020
-0.012
0.038
0.038
0.076
-0.039
0.002
-0.022
-0.002
-0.061
0.071
0.076
0.045
-0.005
-0.007
0.012
-0.034
-0.087
0.132
0.106
-0.005
-0.069
-0.057
0.087
0.061
-0.013
-0.001
0.154
-0.015
-0.103
-0.077
0.078
0.081
0.087
0.010
0.034
-0.058
-0.044
-0.050
0.070
0.143
-0.037
0.009
-0.009
0.011
0.043
-0.004
0.098
-0.056
0.042
0.023
0.106
-0.063
-0.007
0.024
-0.069
0.066
-0.061
0.050
0.036
0.015
0.113
-0.050
-0.004
0.140
0.000
-0.103
0.106
-0.036
0.000
0.018
0.058
0.030
0.021
0.045
0.076
-0.070
0.053
0.031
0.020
0.009
-0.000
-0.035
0.086
0.013
0.007
-0.054
-0.016
0.049
0.014
-0.008
0.016
0.058
0.023
0.073
-0.067
-0.052
0.088
0.104
0.029
-0.003
0.157
0.005
-0.089
0.038
0.015
0.036
0.016
-0.035
0.040
0.023
0.036
0.039
-0.071
-0.030
-0.020
-0.034
0.012
-0.022
-0.011
0.025
0.155
-0.017
-0.046
-0.002
-0.002
0.040
0.093
0.073
-0.032
-0.050
0.087
0.192
-0.039
-0.041
-0.017
0.042
0.056
0.064
0.011
-0.025
0.064
0.049
0.053
-0.036
0.023
-0.022
0.006
0.051
-0.001
0.016
0.002
0.065
-0.054
0.055
-0.034
0.021
-0.035
-0.003
0.136
0.029
0.050
-0.060
0.009
-0.045
-0.019
-0.067
0.123
0.133
0.005
0.037
0.039
-0.099
-0.018
-0.019
0.128
0.007
-0.037
0.075
0.068
-0.013
0.013
0.006
-0.036
-0.009
-0.055
-0.003
0.031
0.076
0.047
-0.027
0.099
-0.032
0.078
-0.018
0.028
-0.097
0.112
0.088
-0.025
0.059
-0.049
0.028
-0.014
0.030
-0.052
0.094
0.075
0.024
0.008
-0.094
0.026
-0.018
0.090
0.082
-0.044
0.027
-0.035
0.035
0.050
0.038
0.019
0.056
-0.069
0.006
0.040
0.021
0.017
0.040
0.010
-0.058
0.015
-0.002
0.054
0.052
0.034
-0.001
-0.006
-0.045
0.051
0.078
0.044
-0.065
0.046
0.119
-0.018
-0.060
0.031
0.010
0.067
0.002
0.061
0.032
0.103
0.044
-0.019
0.027
-0.011
-0.034
0.152
-0.020
0.093
-0.007
-0.009
-0.006
0.096
0.038
-0.013
0.093
0.031
-0.020
0.008
0.000
0.041
-0.155
0.124
0.099
-0.013
0.008
0.040
0.055
-0.070
0.045
0.025
-0.004
0.043
0.076
0.069
-0.043
0.025
-0.022
0.023
0.102
-0.039
0.062
0.004
0.049
-0.049
0.029
-0.063
0.015
0.055
0.108
-0.082
-0.018
-0.088
0.046
0.066
0.048
0.035
-0.027
0.025
0.000
0.063
-0.007
0.001
0.038
0.020
0.088
-0.072
-0.096
0.035
-0.041
0.048
0.117
0.067
-0.032
-0.004
-0.036
-0.039
0.026
0.024
0.131
0.042
-0.003
0.029
0.061
0.021
-0.021
0.086
-0.016
-0.095
0.089
0.012
-0.078
0.066
0.084
0.032
0.066
0.035
-0.003
-0.008
0.012
0.001
0.041
0.008
-0.047
0.033
0.057
0.038
0.073
-0.017
0.019
-0.068
0.030
0.045
0.083
0.013
0.021
0.027
0.011
0.014
0.098
0.018
0.081
-0.013
0.061
-0.017
0.010
0.076
-0.004
0.096
-0.028
-0.009
0.095
-0.036
0.040
0.047
0.027
0.009
0.075
0.056
0.084
-0.047
-0.002
0.012
0.069
0.032
-0.008
0.030
0.087
-0.032
0.012
-0.002
-0.038
-0.038
0.034
0.151
-0.001
-0.110
-0.001
0.055
0.144
0.001
0.035
-0.079
0.047
0.040
0.035
0.028
0.040
-0.059
0.042
0.086
0.044
-0.008
-0.024
0.026
0.051
0.008
0.051
0.028
0.046
-0.026
0.068
0.028
-0.052
0.099
-0.058
-0.032
0.012
0.076
0.087
0.057
0.030
-0.131
-0.038
-0.034
0.054
0.107
0.090
0.034
-0.002
0.045
0.066
-0.046
-0.086
0.080
0.062
0.063
-0.062
-0.012
0.078
-0.007
0.007
0.052
0.042
-0.070
0.018
0.078
0.007
0.001
0.042
0.044
-0.054
0.053
-0.031
-0.001
0.056
-0.067
0.001
0.086
0.057
0.058
-0.021
-0.041
0.032
0.008
-0.018
0.051
0.025
0.033
-0.001
0.003
0.002
0.023
-0.014
0.015
0.081
0.011
-0.052
0.045
0.013
0.021
0.057
0.048
-0.038
0.020
0.018
0.052
0.016
0.003
0.105
-0.088
-0.030
-0.065
0.045
-0.048
0.001
0.057
0.008
0.039
0.029
-0.124
-0.055
0.100
0.036
-0.034
0.034
-0.004
0.031
-0.053
0.064
-0.038
0.105
0.025
-0.021
0.041
0.129
0.003
0.047
-0.011
-0.020
0.076
0.032
0.081
-0.028
-0.019
0.018
0.013
0.007
0.019
-0.039
-0.105
0.093
0.005
-0.013
0.014
0.034
-0.016
0.083
0.110
0.018
0.010
0.039
0.091
0.001
-0.068
-0.014
0.016
0.022
0.027
-0.016
0.095
-0.020
-0.011
0.062
-0.001
0.009
0.072
0.067
-0.072
-0.005
0.033
0.039
0.006
0.125
0.085
0.043
-0.061
0.010
0.052
0.088
0.067
-0.062
0.048
0.030
-0.135
0.087
0.081
0.026
0.053
-0.101
-0.075
0.015
0.019
0.104
0.065
0.076
-0.088
-0.040
0.009
0.052
0.005
0.055
-0.006
0.056
0.023
0.090
0.026
0.025
-0.057
0.045
-0.096
0.038
0.031
0.025
-0.011
0.071
0.018
0.062
0.028
0.015
-0.026
0.010
-0.005
0.017
0.036
0.050
0.048
0.025
-0.000
-0.048
0.023
0.012
0.029
0.061
0.020
0.109
0.083
0.008
-0.020
0.041
0.006
-0.036
0.133
-0.015
0.007
0.085
0.047
-0.012
-0.096
0.024
0.011
0.065
0.082
-0.022
0.026
-0.055
0.011
-0.052
0.100
0.058
0.029
0.077
-0.014
-0.037
-0.031
-0.003
0.009
0.039
0.051
0.069
0.076
0.001
0.046
0.008
-0.028
0.017
0.175
0.041
-0.015
0.002
0.044
0.010
0.087
0.028
0.040
0.006
-0.010
0.068
0.049
0.046
-0.014
0.052
0.128
-0.015
-0.089
0.059
-0.006
0.028
0.015
0.026
0.052
-0.017
0.015
-0.032
0.005
0.039
0.021
0.055
0.056
0.056
-0.044
0.101
-0.062
0.012
0.072
-0.028
-0.077
0.046
0.037
0.044
0.026
0.036
0.073
0.008
0.032
-0.096
-0.022
0.174
0.099
0.057
-0.074
0.078
0.077
0.053
-0.008
-0.100
0.067
-0.020
0.065
0.000
-0.050
0.036
0.059
0.025
-0.097
0.045
0.041
0.026
0.133
0.024
-0.042
0.002
-0.000
0.000
0.042
-0.060
0.090
0.086
0.056
-0.024
-0.138
0.050
0.124
-0.005
0.057
-0.009
-0.008
-0.016
-0.011
-0.027
0.125
0.062
0.007
-0.018
0.056
-0.021
0.062
-0.076
0.060
0.096
-0.002
-0.026
-0.032
0.050
0.014
0.029
0.003
0.035
0.068
0.089
0.004
0.001
0.012
-0.008
-0.031
0.038
-0.037
0.065
0.001
0.024
0.088
0.052
-0.008
0.085
-0.094
0.053
0.055
0.041
-0.005
-0.023
0.101
0.075
0.030
-0.009
-0.025
0.028
0.046
0.004
0.016
0.050
0.036
-0.001
-0.012
0.060
0.015
0.013
-0.029
-0.021
-0.008
-0.015
0.061
0.051
0.108
0.003
0.064
0.002
-0.069
-0.060
-0.003
0.170
-0.016
-0.029
0.087
0.087
-0.041
0.030
0.014
0.012
0.079
-0.015
-0.008
-0.035
-0.001
0.087
0.034
0.005
-0.025
0.085
0.119
0.033
-0.025
0.031
0.057
-0.002
-0.005
-0.082
0.011
0.055
0.013
0.063
0.018
-0.043
0.031
0.068
0.116
0.042
-0.119
-0.016
0.020
0.027
-0.010
0.029
0.012
-0.017
-0.004
0.101
0.005
-0.069
0.122
0.039
-0.037
0.021
0.025
0.045
0.006
0.020
0.053
0.003
-0.026
-0.012
0.046
-0.001
0.030
-0.013
0.013
0.010
0.031
0.005
-0.041
0.033
0.020
0.046
0.016
0.006
0.024
0.142
0.072
-0.005
0.002
0.070
-0.020
-0.066
-0.012
0.001
0.005
0.028
0.152
0.005
-0.065
0.055
-0.100
0.024
0.026
0.087
0.062
-0.008
-0.003
0.024
0.043
-0.025
0.064
-0.044
0.046
-0.022
0.023
-0.055
0.072
0.031
0.022
-0.001
-0.017
0.100
-0.031
0.034
-0.100
0.109
0.030
0.026
-0.054
0.003
0.100
-0.015
0.039
0.072
0.022
0.048
0.130
0.028
0.006
-0.145
0.105
0.184
-0.005
-0.003
0.026
-0.003
-0.034
-0.028
0.086
0.018
0.086
-0.016
-0.021
-0.037
-0.014
0.088
0.044
0.058
0.002
0.020
0.030
0.016
0.073
-0.034
-0.063
0.061
-0.028
0.066
-0.006
0.075
-0.035
0.071
0.030
0.059
0.009
-0.004
0.099
-0.001
-0.058
0.037
-0.035
-0.004
0.125
0.060
0.058
0.026
0.028
0.003
-0.014
-0.026
0.039
0.027
0.018
0.055
-0.033
0.060
-0.034
0.070
0.041
-0.057
0.079
0.062
-0.068
-0.006
0.089
0.150
-0.092
-0.098
-0.002
0.082
0.063
0.040
-0.032
-0.088
-0.046
0.042
0.036
-0.009
0.025
0.034
-0.094
0.136
0.039
0.077
-0.042
0.035
0.034
-0.078
-0.049
0.060
-0.027
0.030
0.140
0.082
0.009
-0.035
-0.064
0.087
0.022
0.044
0.028
-0.013
0.000
-0.050
0.062
0.043
0.052
-0.055
-0.011
0.096
-0.050
0.047
0.041
-0.085
0.094
0.127
-0.054
-0.002
0.024
-0.015
0.089
-0.024
0.065
-0.039
-0.066
0.086
-0.018
0.035
-0.094
-0.028
0.038
0.041
-0.016
0.087
0.029
-0.005
0.005
0.016
0.004
-0.010
0.045
0.091
0.059
-0.042
-0.024
0.039
0.056
0.017
0.042
0.031
0.040
-0.027
0.017
-0.003
0.007
0.056
0.075
0.017
-0.047
0.057
0.000
0.049
-0.037
0.008
0.066
-0.046
0.037
0.063
-0.014
0.034
0.029
0.024
0.028
-0.048
-0.083
0.069
0.017
-0.030
0.073
0.017
-0.004
-0.048
0.090
-0.012
0.124
-0.041
-0.005
0.003
0.037
-0.031
-0.039
0.051
0.095
0.028
0.046
0.023
0.033
0.039
-0.046
0.042
0.172
0.000
-0.028
0.046
0.021
0.068
0.004
0.034
-0.010
0.020
-0.027
0.088
0.056
-0.022
-0.045
0.015
0.079
0.037
-0.096
0.015
0.068
0.007
-0.014
0.074
0.005
0.009
0.032
-0.035
0.023
0.023
0.060
-0.085
0.014
0.073
0.040
0.030
0.044
0.051
0.031
-0.085
0.099
0.005
0.066
-0.087
-0.022
0.081
0.075
-0.016
0.072
-0.061
-0.061
-0.018
0.100
0.066
0.063
0.032
-0.055
0.045
0.004
0.005
-0.019
0.024
-0.007
-0.008
-0.015
-0.017
-0.077
0.060
0.059
0.065
0.045
-0.028
-0.013
-0.027
0.010
0.041
0.081
0.002
-0.003
0.049
-0.005
-0.021
0.036
0.031
-0.007
0.007
-0.040
-0.090
0.131
0.137
-0.024
-0.019
-0.045
0.007
0.175
-0.051
-0.104
0.043
0.062
-0.016
0.079
0.090
-0.072
-0.040
-0.020
0.073
-0.050
0.093
0.016
-0.015
-0.021
0.076
0.052
-0.005
0.077
-0.031
-0.006
0.031
-0.012
-0.026
0.000
0.140
0.092
0.008
0.046
0.013
0.050
-0.012
0.017
0.017
-0.004
-0.011
0.026
0.061
0.021
0.020
0.016
0.050
0.011
0.015
0.039
-0.036
-0.009
0.017
0.044
0.034
-0.067
-0.002
0.077
0.111
-0.084
0.043
-0.068
-0.008
-0.039
0.007
0.140
0.155
0.072
-0.018
0.009
0.026
0.060
0.000
-0.012
0.012
0.031
0.039
-0.006
0.036
-0.085
0.090
-0.020
0.030
0.110
-0.062
-0.026
0.057
-0.005
-0.024
-0.109
0.098
0.058
0.114
0.028
0.051
0.004
0.043
-0.031
0.057
-0.056
0.003
0.043
-0.092
0.070
0.062
0.046
0.050
0.017
0.136
-0.007
-0.055
0.014
0.018
0.060
0.076
0.085
0.028
-0.010
0.153
-0.056
-0.098
-0.016
0.014
0.073
0.015
-0.059
0.020
0.074
0.017
-0.021
0.067
-0.132
-0.028
0.107
0.141
-0.049
0.119
0.040
-0.047
-0.117
0.019
0.083
0.086
0.058
0.062
-0.039
-0.009
-0.065
0.117
0.063
0.001
0.009
-0.035
-0.008
0.070
0.010
-0.020
-0.012
0.016
-0.028
0.068
0.020
-0.021
0.009
0.048
0.009
-0.117
0.055
0.032
0.076
-0.024
0.004
0.025
0.027
0.058
-0.090
0.042
-0.063
0.075
0.087
0.049
0.015
0.019
-0.022
-0.038
-0.020
0.004
0.120
-0.025
-0.054
-0.023
-0.063
0.144
0.042
0.031
-0.026
-0.075
0.080
-0.012
-0.021
0.043
0.041
-0.043
-0.037
0.090
-0.073
0.009
-0.010
0.072
0.012
-0.051
0.095
-0.006
-0.013
0.018
0.106
-0.004
0.059
0.073
0.020
0.047
-0.027
0.022
0.087
-0.019
0.023
-0.013
0.062
0.065
-0.038
0.064
-0.037
-0.009
-0.007
0.019
0.016
0.004
0.114
-0.003
0.047
0.095
-0.082
-0.075
-0.021
0.067
0.050
0.055
0.026
-0.036
0.084
0.017
0.015
-0.069
0.036
0.047
-0.001
0.002
-0.079
0.046
0.074
-0.013
0.098
0.162
-0.029
-0.087
0.096
0.015
-0.039
0.062
0.057
0.009
-0.010
-0.022
-0.016
-0.014
0.013
-0.059
-0.007
0.039
-0.006
-0.000
-0.014
-0.005
0.056
0.008
-0.081
0.111
-0.019
0.041
-0.040
-0.029
0.049
0.027
0.070
0.056
-0.108
0.008
0.058
0.061
0.071
0.041
0.006
0.025
-0.018
-0.011
0.049
0.039
-0.038
-0.023
-0.009
0.004
0.041
-0.021
0.019
0.029
0.025
-0.011
-0.005
-0.099
0.059
0.105
0.036
-0.056
-0.062
0.039
0.020
0.017
0.068
0.053
0.041
-0.063
-0.010
0.103
-0.047
-0.005
0.016
0.080
0.115
0.020
0.019
0.032
-0.092
0.008
-0.023
0.025
0.007
0.003
0.081
-0.057
0.023
0.139
-0.069
-0.089
0.146
-0.079
0.083
0.009
0.021
0.046
0.118
0.091
0.024
-0.047
0.012
0.141
-0.011
0.041
0.045
-0.020
0.067
0.033
-0.010
-0.024
-0.092
-0.003
0.027
0.014
0.015
0.045
0.020
0.028
0.036
0.071
-0.070
-0.037
0.107
0.088
0.101
-0.070
0.081
0.080
-0.055
0.067
0.087
-0.053
-0.013
-0.001
0.045
-0.008
-0.049
0.038
0.012
0.017
0.102
0.039
-0.013
-0.022
-0.031
0.058
0.041
0.119
0.036
0.020
-0.038
-0.075
0.115
-0.016
0.115
0.001
-0.014
-0.026
0.137
-0.045
-0.071
0.035
0.000
0.051
0.032
0.073
0.042
-0.013
0.003
0.051
-0.006
-0.010
0.031
-0.014
0.041
0.019
-0.074
0.026
0.040
0.021
0.028
0.074
-0.027
-0.015
0.040
-0.013
-0.148
0.107
0.150
-0.014
-0.098
0.079
0.006
0.059
0.047
-0.073
-0.034
0.011
0.015
-0.015
0.041
0.085
0.064
0.027
-0.075
0.070
0.021
-0.025
0.078
0.010
-0.029
-0.038
0.120
-0.008
-0.039
0.064
0.009
-0.005
0.087
-0.008
0.023
0.023
-0.028
-0.060
-0.009
0.105
0.077
0.054
-0.037
-0.048
0.056
-0.033
-0.039
-0.012
-0.002
0.060
0.016
0.052
0.102
-0.079
-0.013
0.103
-0.003
0.021
0.003
-0.015
0.069
0.078
-0.055
0.022
0.150
0.041
-0.011
-0.040
-0.046
-0.076
0.010
0.148
0.003
0.054
0.002
-0.014
0.066
0.105
-0.024
0.012
0.054
0.080
-0.004
-0.019
0.046
0.040
0.027
0.075
-0.038
0.000
0.111
-0.074
0.046
-0.040
-0.067
-0.056
-0.103
0.059
0.135
-0.017
0.061
0.037
-0.036
0.026
-0.022
0.045
0.072
-0.036
0.054
0.002
0.094
-0.021
-0.000
0.033
0.132
-0.051
-0.067
-0.002
0.113
0.001
-0.057
0.053
0.037
-0.029
0.023
0.095
-0.135
-0.035
0.031
-0.002
0.036
0.076
-0.001
-0.008
0.141
0.001
-0.073
0.028
0.023
0.099
-0.039
0.074
-0.014
-0.026
0.020
0.037
-0.001
0.001
-0.014
-0.001
0.037
0.105
-0.097
-0.023
0.079
0.050
-0.018
-0.017
0.052
-0.055
0.082
0.050
-0.009
0.120
-0.074
-0.056
0.023
0.146
0.048
-0.103
-0.035
0.024
0.067
-0.111
-0.060
-0.019
0.130
0.158
-0.091
0.022
-0.009
0.016
0.092
0.063
-0.003
0.027
-0.047
0.040
0.160
0.037
-0.012
-0.051
0.057
0.042
-0.037
-0.056
-0.017
0.138
0.003
0.028
0.002
0.001
-0.035
0.076
0.063
0.096
-0.038
-0.022
-0.004
0.044
0.023
-0.058
0.040
0.145
0.088
0.044
-0.063
0.027
0.010
-0.021
0.019
0.127
0.063
0.033
0.008
-0.097
0.057
0.026
0.072
-0.020
-0.053
0.042
0.032
-0.021
0.081
-0.046
0.070
0.013
-0.043
0.058
-0.080
0.137
0.089
-0.028
-0.013
0.018
0.089
0.027
0.024
0.031
-0.025
-0.039
0.036
0.096
0.073
0.064
-0.077
0.023
-0.069
0.002
0.127
0.069
-0.032
-0.016
0.081
0.044
-0.015
0.020
0.067
0.016
-0.039
-0.075
-0.014
0.027
0.077
0.014
0.113
0.026
-0.093
0.043
0.076
0.031
-0.005
0.038
-0.003
0.056
-0.044
0.037
-0.050
0.055
0.071
-0.032
-0.012
-0.006
-0.021
-0.004
0.067
0.036
-0.032
0.079
0.095
-0.012
0.068
0.009
-0.068
-0.022
-0.003
0.055
0.112
0.030
-0.028
0.101
-0.032
-0.045
0.037
0.091
0.028
-0.090
0.004
0.038
-0.018
0.005
0.033
-0.026
0.031
-0.058
0.021
0.021
0.082
0.006
0.065
-0.063
-0.045
-0.023
0.120
0.108
-0.064
-0.035
0.004
-0.055
0.047
0.062
0.009
0.031
0.036
-0.020
0.052
0.039
0.006
-0.052
0.048
0.014
0.039
-0.009
-0.027
0.034
-0.014
0.068
0.009
-0.030
0.005
0.031
0.004
0.005
0.068
0.070
0.010
-0.045
0.035
0.082
0.042
-0.041
-0.014
0.107
0.033
-0.061
0.074
-0.000
0.037
-0.013
0.059
-0.067
0.030
0.016
-0.005
-0.006
-0.034
0.006
0.047
-0.070
-0.086
0.010
-0.001
0.104
0.058
0.078
0.066
-0.045
-0.070
-0.046
0.035
-0.007
0.024
0.061
0.060
0.014
0.009
0.020
0.059
0.048
-0.002
0.008
-0.027
0.059
-0.039
0.074
0.000
-0.017
0.014
0.040
0.005
0.060
-0.017
0.062
0.080
0.034
-0.055
-0.107
-0.005
0.115
-0.003
0.012
0.021
-0.049
0.075
0.022
0.059
-0.060
-0.006
0.028
0.084
-0.052
-0.030
-0.039
-0.074
0.061
0.010
0.072
-0.029
-0.039
0.056
0.051
-0.033
-0.045
0.055
-0.038
-0.059
0.044
0.043
0.067
-0.005
0.057
0.034
0.006
-0.004
0.066
0.026
0.008
-0.002
0.012
-0.068
0.116
0.018
0.023
0.057
-0.068
0.062
0.046
-0.049
0.021
-0.031
0.095
0.012
0.026
0.041
0.011
-0.003
0.021
0.054
-0.025
-0.009
0.037
-0.002
0.058
0.013
0.102
-0.050
0.084
0.032
0.011
-0.035
0.062
-0.004
0.041
-0.016
-0.016
0.078
0.039
0.083
0.002
-0.051
0.039
-0.001
-0.024
-0.039
0.112
0.057
0.063
0.045
0.033
-0.065
0.010
0.048
0.033
0.020
0.023
0.070
0.036
-0.010
-0.031
0.001
0.010
0.071
0.028
-0.010
0.003
0.086
-0.024
-0.003
0.050
0.096
-0.018
-0.042
0.113
0.029
0.006
-0.068
0.090
0.032
-0.014
0.068
-0.025
0.009
0.064
0.006
0.011
0.040
0.023
-0.044
0.020
0.006
0.031
0.137
-0.038
0.004
0.033
0.058
-0.059
0.080
0.051
0.006
-0.042
0.022
0.024
0.082
0.011
-0.009
0.005
0.026
-0.040
0.046
0.057
0.111
-0.026
-0.011
0.048
0.061
0.028
-0.047
0.091
0.054
0.036
-0.112
0.011
0.003
0.036
0.086
-0.012
0.016
0.082
0.037
0.026
-0.025
0.016
-0.029
0.109
0.022
0.028
0.060
-0.054
0.040
-0.025
-0.013
-0.007
0.121
-0.028
0.011
0.078
0.050
0.017
-0.022
0.049
0.119
0.010
-0.152
0.071
-0.021
0.013
0.117
0.019
0.070
-0.000
0.052
0.075
-0.070
0.019
-0.044
0.119
0.009
0.099
0.045
0.010
0.007
-0.096
-0.024
0.088
0.054
0.050
-0.001
-0.067
-0.032
0.010
0.105
0.053
0.055
-0.143
-0.053
0.083
0.086
0.127
-0.068
-0.063
-0.010
0.069
0.006
0.015
0.010
0.088
0.049
-0.013
-0.002
0.019
-0.051
0.046
0.101
0.018
0.042
0.061
-0.036
0.015
-0.061
0.077
0.014
0.008
0.051
0.005
-0.048
0.084
0.139
0.098
0.029
0.087
-0.007
-0.128
0.138
0.062
0.091
0.024
0.005
-0.050
0.035
0.141
0.047
-0.071
-0.043
0.071
0.007
-0.004
0.009
0.037
-0.057
-0.123
-0.029
0.077
0.091
0.033
0.084
-0.011
-0.015
0.021
0.056
0.034
0.064
-0.024
0.088
0.012
-0.105
0.027
-0.011
0.065
0.117
-0.012
-0.008
0.015
0.071
0.016
0.120
0.025
-0.102
0.088
0.102
0.108
0.010
-0.009
-0.009
0.047
0.015
0.026
-0.054
-0.043
0.003
0.073
-0.020
-0.022
0.039
-0.085
-0.041
0.052
0.034
0.004
0.035
0.088
0.025
-0.009
-0.013
0.036
-0.016
0.088
0.004
0.083
-0.029
-0.036
-0.049
-0.099
0.143
0.065
0.020
0.001
0.002
0.058
0.030
0.057
-0.040
-0.060
0.063
0.055
0.021
-0.029
0.005
0.082
0.123
-0.002
0.063
-0.027
-0.013
-0.015
0.063
0.099
0.011
0.026
-0.015
0.093
-0.015
0.012
0.027
0.024
0.078
-0.074
0.030
0.040
0.071
-0.004
-0.047
0.111
0.084
0.094
-0.046
-0.043
0.016
0.111
0.038
0.016
0.018
0.067
0.059
-0.003
0.040
0.006
-0.036
-0.000
0.103
0.014
0.042
0.044
-0.004
-0.084
0.025
-0.061
0.034
0.002
0.122
0.012
0.011
0.019
0.123
-0.028
0.061
0.025
0.022
-0.040
0.067
0.065
0.093
-0.001
-0.097
0.055
0.078
-0.003
0.096
0.048
-0.143
0.082
0.019
0.144
-0.073
0.059
-0.033
0.015
-0.002
-0.008
0.040
0.049
0.059
-0.050
0.003
-0.068
-0.036
0.085
0.071
0.010
0.039
-0.007
-0.070
0.070
0.061
-0.085
0.055
-0.029
0.065
0.031
-0.058
-0.020
-0.038
0.150
0.105
-0.029
0.004
0.059
0.058
-0.115
0.023
0.057
0.084
0.004
0.057
0.034
0.017
-0.072
0.002
0.088
-0.012
-0.071
0.084
0.057
0.006
-0.003
0.035
0.052
-0.030
-0.021
0.024
-0.027
0.042
0.037
-0.051
0.044
0.034
0.000
0.062
0.043
-0.010
0.003
-0.001
-0.015
0.028
0.057
-0.015
0.057
-0.021
-0.005
0.056
0.064
0.021
0.147
-0.065
0.038
-0.016
-0.040
0.130
0.046
0.069
0.037
-0.067
0.038
-0.038
-0.014
-0.052
0.082
0.095
0.069
0.037
0.009
0.007
0.002
-0.022
0.019
0.053
-0.008
0.088
0.010
0.017
0.022
0.093
0.055
-0.113
-0.056
0.091
0.090
0.113
-0.019
-0.043
0.122
-0.036
0.052
0.105
-0.031
0.014
0.025
0.008
-0.024
0.037
-0.021
-0.003
0.025
0.075
-0.036
0.067
0.029
0.027
0.002
0.106
0.021
-0.071
0.003
0.064
0.047
-0.005
0.071
0.015
0.016
-0.065
-0.051
0.115
-0.000
0.100
0.045
0.038
-0.010
0.061
-0.041
0.013
0.046
0.060
-0.018
0.028
0.017
0.047
-0.049
-0.036
0.066
0.076
0.080
0.068
-0.059
0.008
0.038
0.038
0.058
-0.070
0.052
-0.039
-0.013
0.012
-0.020
0.059
-0.114
0.080
0.034
0.018
-0.023
-0.009
0.072
0.020
-0.016
0.004
0.016
-0.018
-0.024
0.065
-0.003
-0.022
0.040
0.071
0.116
-0.038
-0.039
0.012
0.059
0.014
-0.026
-0.048
0.051
-0.013
-0.030
0.136
0.003
0.009
0.060
0.047
0.039
0.074
-0.009
-0.040
0.015
0.028
-0.000
-0.018
-0.023
0.024
-0.025
-0.004
-0.042
0.179
0.056
-0.120
-0.040
0.032
0.018
0.043
0.022
0.022
-0.055
0.043
0.084
0.030
0.027
0.009
0.010
-0.023
-0.041
0.090
-0.010
0.066
0.026
0.055
-0.001
-0.066
0.036
0.127
0.028
-0.049
-0.011
0.056
-0.028
0.055
0.055
-0.024
-0.003
0.040
0.137
-0.026
-0.022
0.044
-0.001
0.037
0.044
0.042
0.025
-0.119
0.076
-0.036
0.081
0.083
0.005
-0.062
0.056
0.041
-0.000
0.089
-0.024
-0.028
-0.049
0.038
0.113
0.001
0.077
-0.071
0.017
0.035
0.031
0.076
0.034
0.000
0.126
-0.044
0.024
0.037
0.016
0.053
-0.034
0.038
0.067
0.057
-0.093
0.108
0.023
0.003
-0.007
0.090
0.075
-0.013
-0.008
0.070
0.110
-0.098
0.023
-0.071
0.012
0.063
-0.071
-0.056
0.019
-0.003
0.067
-0.027
-0.025
0.076
0.027
-0.061
0.049
0.057
0.066
-0.015
-0.006
0.023
0.040
0.060
-0.024
0.075
0.059
0.026
-0.004
0.070
-0.011
-0.012
0.029
0.057
-0.028
-0.078
0.073
-0.022
-0.005
-0.028
0.078
0.004
-0.036
-0.013
0.086
-0.046
0.043
-0.041
0.005
0.058
-0.018
0.068
-0.009
-0.073
-0.003
0.031
0.072
-0.007
-0.006
0.042
0.008
0.131
-0.020
-0.010
0.015
0.037
0.043
-0.036
-0.018
0.106
0.020
0.024
-0.041
-0.034
0.036
0.055
0.052
-0.061
-0.012
0.052
-0.010
-0.030
0.147
0.005
-0.023
-0.019
-0.020
0.070
0.018
0.054
0.010
-0.020
-0.007
0.021
0.116
0.059
-0.100
0.014
0.070
0.007
-0.089
-0.004
0.096
-0.034
0.058
-0.067
-0.003
0.109
0.034
0.007
-0.021
-0.008
0.022
0.089
0.077
0.055
-0.002
0.071
0.036
-0.020
0.072
-0.030
-0.001
-0.036
0.062
0.026
-0.071
0.114
0.028
-0.009
0.022
0.030
0.042
0.033
-0.057
0.008
-0.026
-0.081
0.089
0.011
-0.064
0.075
0.094
0.058
0.001
0.024
-0.007
-0.034
0.001
0.030
0.053
0.024
0.010
0.040
-0.009
0.034
0.105
0.050
-0.026
0.059
-0.013
0.045
-0.093
0.082
0.086
0.060
-0.022
0.048
0.022
-0.026
-0.009
-0.047
0.113
0.009
-0.093
0.045
0.055
0.037
0.004
0.015
0.044
-0.020
0.093
-0.038
0.003
0.082
-0.080
0.045
0.001
0.084
0.019
0.062
0.067
-0.020
-0.050
-0.047
0.076
0.109
-0.010
-0.045
0.102
-0.067
0.066
-0.031
0.017
0.019
0.000
-0.016
0.052
0.011
0.057
0.024
0.013
0.021
-0.015
0.034
-0.019
-0.049
0.048
-0.030
0.020
0.074
-0.007
0.030
0.026
0.082
-0.058
-0.002
-0.001
0.016
0.064
-0.085
-0.009
0.045
-0.007
0.001
0.025
0.054
-0.030
-0.020
-0.018
0.087
0.063
0.001
-0.023
0.051
-0.050
-0.066
0.212
0.116
-0.006
-0.044
-0.137
0.080
-0.044
0.099
-0.055
0.001
0.036
0.034
-0.061
-0.112
0.066
0.091
-0.000
0.036
0.047
0.064
0.080
0.013
0.042
0.031
-0.010
-0.028
-0.046
0.091
-0.007
-0.002
0.040
-0.014
0.020
-0.007
0.154
0.047
-0.122
-0.043
0.025
0.108
0.062
0.043
0.019
-0.029
0.075
0.053
-0.018
-0.021
-0.000
0.089
0.043
0.137
-0.034
0.033
-0.014
0.086
0.028
-0.028
0.015
-0.013
0.098
0.044
0.008
-0.050
0.056
-0.028
-0.042
0.078
-0.087
0.008
0.026
0.013
-0.014
0.102
0.038
0.012
0.030
0.032
0.022
-0.077
-0.038
0.133
-0.013
0.099
0.014
-0.007
0.094
-0.008
-0.018
0.041
0.123
-0.049
0.073
0.058
0.002
0.099
0.016
-0.031
-0.034
0.085
0.016
-0.053
0.032
-0.030
-0.041
0.052
-0.025
-0.005
0.099
-0.044
-0.055
0.005
0.035
0.046
0.017
0.020
0.016
0.077
-0.051
0.028
-0.050
-0.045
0.066
0.062
0.022
-0.026
0.029
0.036
-0.124
0.013
-0.006
0.109
0.057
-0.028
-0.062
-0.038
0.004
-0.026
0.120
-0.042
0.033
0.111
-0.020
0.008
-0.050
-0.051
0.058
0.069
-0.016
0.021
-0.056
0.055
-0.012
0.034
0.028
0.025
0.047
-0.069
0.102
-0.004
-0.019
0.061
-0.016
0.001
-0.000
-0.086
0.009
0.119
0.014
-0.022
-0.003
0.102
-0.000
0.058
-0.023
0.042
-0.015
0.016
0.115
-0.047
0.056
-0.077
-0.050
0.008
0.039
0.084
0.038
0.044
-0.065
-0.095
0.085
0.090
0.005
-0.057
-0.033
0.049
0.057
0.003
-0.067
0.103
0.028
-0.077
0.112
0.061
-0.013
0.035
0.020
0.037
0.039
-0.032
0.006
0.073
0.024
0.030
0.025
0.091
-0.024
0.018
0.084
0.023
0.006
0.036
0.036
0.048
0.037
0.016
-0.043
0.090
0.107
-0.018
0.022
0.046
0.015
0.005
0.077
-0.106
0.047
0.055
0.080
-0.017
-0.028
0.008
0.049
0.040
-0.013
0.017
-0.084
-0.003
0.034
0.001
0.116
0.055
0.016
0.040
-0.144
0.077
0.099
0.053
-0.049
-0.018
-0.019
-0.002
0.058
0.072
-0.089
0.032
0.045
0.081
0.029
0.054
0.066
-0.001
-0.077
0.056
0.026
0.069
0.001
0.061
0.020
0.041
-0.020
-0.006
0.046
0.002
0.006
0.048
0.065
0.095
-0.066
0.001
-0.044
-0.019
0.004
0.089
0.020
0.076
0.030
-0.019
-0.040
0.026
0.105
0.065
0.003
-0.024
-0.052
0.028
0.057
-0.016
-0.010
-0.029
0.116
-0.009
-0.008
0.017
0.011
0.045
0.023
0.042
0.017
-0.025
-0.011
0.022
0.153
0.010
-0.036
-0.069
-0.052
0.027
0.121
0.067
-0.051
0.046
0.022
0.038
-0.029
-0.032
0.080
0.052
-0.014
0.075
0.023
-0.033
0.041
0.031
-0.019
-0.013
0.016
0.038
0.060
-0.040
-0.065
-0.021
0.104
-0.031
-0.056
0.054
0.041
0.043
0.018
0.046
0.015
0.024
-0.138
0.018
0.077
0.025
0.061
0.109
-0.054
-0.038
-0.027
-0.041
0.116
0.035
-0.001
-0.041
0.007
-0.043
0.059
0.041
0.139
0.037
-0.020
-0.043
-0.039
0.005
0.106
0.000
-0.010
-0.006
-0.026
0.043
-0.018
0.064
0.092
-0.081
0.092
-0.010
-0.057
0.034
0.080
0.109
0.099
0.009
-0.039
0.095
-0.027
0.004
0.097
-0.043
-0.076
0.023
0.022
-0.049
0.099
0.024
-0.044
0.055
0.037
0.090
-0.017
0.053
-0.042
0.112
0.063
-0.031
-0.052
0.071
-0.026
0.004
0.077
0.049
-0.045
0.068
-0.001
-0.021
0.003
0.071
0.028
0.025
0.063
0.089
0.033
0.036
0.012
-0.020
-0.055
0.049
0.020
0.003
0.017
0.027
0.015
0.017
-0.016
0.084
-0.017
0.006
-0.041
-0.006
0.076
0.061
0.004
0.008
0.107
-0.006
-0.065
-0.014
0.008
0.023
-0.016
0.021
-0.088
0.024
0.102
-0.054
0.025
0.010
-0.014
0.016
-0.003
-0.012
0.033
0.154
0.021
-0.020
0.053
-0.033
0.016
-0.077
0.070
0.079
-0.004
-0.078
-0.013
-0.004
0.026
0.087
0.057
0.022
-0.060
-0.023
0.030
0.018
0.099
-0.086
0.025
0.125
0.009
0.016
-0.002
-0.117
0.036
0.039
0.083
0.020
0.036
-0.020
-0.004
-0.140
0.088
0.032
0.027
0.065
-0.003
0.051
0.013
0.009
-0.083
0.039
0.050
-0.003
0.020
0.031
0.021
0.051
-0.010
-0.002
0.032
-0.032
0.064
0.018
0.033
0.004
-0.027
0.034
-0.004
0.062
-0.004
-0.017
-0.023
0.001
0.038
0.038
0.050
0.103
-0.057
-0.170
0.068
0.041
0.094
-0.056
0.013
-0.064
0.125
0.079
0.019
0.008
-0.077
-0.037
0.176
0.045
0.012
0.134
-0.025
-0.025
0.000
-0.034
0.029
0.052
0.098
-0.080
-0.058
-0.008
0.095
0.018
-0.006
-0.006
-0.020
0.019
0.101
0.009
0.025
0.006
0.033
-0.024
-0.064
-0.068
0.092
0.134
0.120
-0.049
0.054
-0.059
-0.012
0.045
-0.020
0.097
0.036
-0.072
0.061
0.029
0.051
-0.041
-0.052
0.053
0.032
0.083
-0.025
0.049
0.078
-0.069
0.021
-0.029
0.129
-0.042
-0.013
0.022
0.039
-0.025
-0.031
0.099
0.139
-0.015
-0.142
0.002
0.080
0.020
0.014
0.025
-0.006
0.068
0.040
-0.055
-0.050
0.018
0.008
0.020
0.019
0.092
0.045
-0.042
0.013
0.052
0.004
0.004
-0.017
0.037
0.063
0.034
-0.040
0.006
0.034
0.055
-0.038
0.034
-0.004
0.003
0.029
0.050
-0.110
-0.033
0.091
0.037
-0.005
-0.046
0.043
-0.030
0.032
0.010
-0.003
-0.055
0.054
-0.009
0.005
0.058
0.078
0.046
0.045
-0.033
-0.001
-0.052
-0.033
0.093
0.061
-0.028
0.024
0.064
-0.058
0.009
0.060
-0.032
0.043
-0.032
-0.015
0.040
0.069
-0.009
-0.029
-0.080
-0.075
0.102
0.068
0.080
0.000
0.029
-0.051
-0.055
0.030
0.029
-0.010
-0.053
0.051
-0.039
0.049
0.059
0.019
0.008
0.043
0.057
0.006
0.027
0.008
0.062
0.065
-0.067
0.093
-0.077
0.027
0.027
0.060
-0.049
-0.044
0.030
0.068
0.093
-0.012
-0.083
0.014
0.040
0.041
-0.070
-0.006
0.014
0.049
-0.028
0.055
0.088
0.011
-0.005
-0.067
0.021
-0.007
0.023
-0.034
0.137
0.033
0.057
0.064
-0.012
-0.029
0.099
-0.008
-0.070
0.003
0.009
-0.007
0.064
0.080
0.119
-0.007
-0.034
-0.006
-0.049
0.046
-0.009
0.010
0.033
0.091
0.058
0.001
-0.012
-0.004
0.012
0.037
-0.007
0.115
0.012
-0.076
-0.043
0.046
0.034
0.089
0.038
-0.049
0.131
0.049
-0.021
-0.048
0.008
0.095
-0.039
-0.084
0.004
0.115
-0.044
0.013
0.100
0.072
0.022
-0.017
0.017
-0.007
0.029
0.126
0.042
0.001
-0.033
-0.158
0.131
0.025
0.020
0.065
0.014
-0.001
0.050
-0.047
-0.019
-0.001
-0.010
0.038
0.040
0.045
0.014
-0.043
0.051
0.087
-0.023
-0.043
0.013
0.007
0.030
0.069
0.075
0.010
-0.056
0.042
0.075
0.043
-0.006
-0.066
-0.008
0.136
0.001
0.089
0.031
-0.042
-0.053
0.059
0.020
-0.052
0.024
-0.023
0.026
0.139
-0.080
-0.037
-0.046
0.117
0.073
0.057
-0.046
0.149
0.007
-0.091
0.060
-0.086
0.081
-0.065
0.103
0.088
-0.076
-0.016
-0.015
0.014
0.003
0.011
0.103
0.049
0.000
0.005
-0.057
-0.086
0.000
0.044
0.089
-0.010
-0.068
0.051
-0.022
-0.031
0.025
0.002
0.000
-0.008
0.078
-0.034
0.112
0.012
0.061
-0.073
0.072
0.065
-0.091
0.022
-0.007
0.046
-0.032
0.053
0.098
0.012
0.069
-0.034
0.063
0.006
-0.012
0.084
0.072
0.006
-0.076
0.078
-0.001
0.004
0.071
0.073
-0.047
-0.017
-0.033
0.083
0.119
-0.068
-0.039
-0.009
0.033
-0.032
0.083
-0.033
-0.059
0.054
0.023
0.042
-0.090
0.003
0.087
0.126
0.001
-0.032
0.087
0.081
0.078
-0.015
-0.009
0.139
0.014
0.016
-0.059
0.057
0.031
0.040
-0.003
-0.012
0.095
-0.042
0.019
0.103
-0.034
0.011
0.067
-0.039
-0.031
0.094
0.015
0.009
0.053
-0.072
0.025
0.088
0.100
0.072
-0.056
-0.059
0.069
-0.007
-0.031
-0.001
0.063
0.078
-0.058
0.047
0.067
0.049
-0.044
-0.050
-0.004
0.036
0.017
0.054
-0.007
-0.019
-0.081
-0.014
0.022
0.050
0.051
0.032
0.027
-0.071
0.043
-0.005
0.039
0.062
0.025
-0.075
0.021
-0.012
-0.076
0.150
0.012
0.022
-0.037
0.009
0.058
-0.012
0.093
0.034
0.075
-0.063
0.038
-0.025
-0.056
0.072
0.054
0.023
0.066
0.040
-0.040
0.000
-0.008
-0.069
0.082
-0.048
0.030
0.041
0.037
0.027
-0.047
0.025
-0.052
-0.049
0.091
0.056
0.087
-0.094
-0.058
0.069
-0.082
0.027
0.228
-0.063
-0.013
0.032
0.011
-0.080
-0.018
0.142
0.133
-0.014
-0.002
0.012
0.056
-0.032
0.103
0.121
-0.013
0.005
0.093
-0.091
0.032
0.127
-0.033
0.011
0.013
-0.003
0.041
-0.008
-0.042
0.073
0.014
0.076
0.044
-0.043
0.072
0.069
-0.015
0.055
-0.061
-0.046
0.058
0.071
0.046
0.006
-0.024
-0.008
-0.005
-0.050
-0.014
0.112
0.069
-0.007
0.040
0.099
-0.072
-0.047
0.031
0.103
0.019
0.026
0.030
-0.020
0.056
0.075
0.049
0.012
0.020
0.120
-0.039
0.027
-0.034
-0.003
0.039
0.030
-0.040
0.039
0.137
-0.008
-0.014
-0.118
-0.040
0.150
0.046
0.007
-0.013
0.031
0.041
-0.064
0.023
-0.045
0.097
-0.066
-0.032
0.103
-0.009
0.097
-0.012
-0.015
0.073
0.033
-0.067
-0.041
0.011
0.060
0.032
-0.005
0.033
0.025
0.039
0.046
0.046
-0.019
-0.016
0.027
-0.049
0.013
0.083
0.042
0.086
-0.050
-0.063
-0.007
0.116
-0.098
-0.013
-0.001
-0.026
0.005
0.056
0.009
0.054
0.073
-0.067
-0.050
-0.042
0.082
0.028
0.079
-0.012
-0.024
0.009
0.095
0.138
0.020
-0.058
-0.008
0.049
0.104
0.031
-0.075
0.027
0.035
0.004
-0.018
-0.003
0.046
0.020
0.033
0.022
0.040
0.018
0.117
-0.090
-0.042
-0.049
0.035
0.019
-0.075
0.016
-0.012
0.133
-0.025
0.015
-0.141
0.101
0.029
0.081
0.018
-0.061
0.127
0.032
0.007
0.083
0.003
0.003
-0.019
-0.039
0.026
0.076
0.089
0.034
-0.021
0.024
-0.016
0.032
0.023
-0.004
0.016
0.033
0.047
-0.012
0.056
-0.008
0.052
0.070
-0.102
-0.007
0.024
-0.070
0.031
0.055
0.082
-0.045
-0.002
-0.008
0.076
-0.008
-0.003
0.088
-0.050
-0.053
-0.001
-0.021
0.145
0.120
-0.011
0.009
-0.098
-0.022
0.004
0.050
0.035
0.072
0.029
-0.057
-0.042
0.003
0.069
0.003
0.036
-0.048
0.036
0.091
-0.009
0.061
-0.078
0.039
0.071
0.115
-0.006
0.027
0.046
0.040
-0.048
-0.036
0.046
0.096
0.030
0.040
-0.058
0.053
-0.064
-0.037
0.026
-0.043
-0.054
0.071
0.051
0.066
0.016
-0.012
0.003
0.050
-0.019
0.115
0.001
-0.033
0.073
0.104
-0.047
0.038
0.004
-0.040
0.048
0.008
0.030
0.038
-0.012
-0.040
0.051
0.091
-0.049
-0.026
0.061
0.031
0.019
0.045
-0.003
0.083
0.035
0.016
0.025
0.020
0.015
-0.023
-0.001
-0.077
0.132
0.057
-0.031
0.052
-0.021
0.012
-0.080
0.077
0.104
-0.036
-0.007
0.001
0.042
-0.005
0.048
-0.019
0.010
0.063
0.030
-0.014
0.022
-0.028
-0.011
0.016
0.125
0.029
-0.016
0.028
-0.005
0.088
0.008
-0.024
-0.093
0.039
0.119
0.062
-0.049
-0.082
0.080
-0.004
0.098
-0.008
0.029
-0.008
0.049
0.075
-0.069
-0.044
0.008
0.097
0.029
0.026
-0.008
0.073
-0.015
0.013
-0.005
-0.066
0.062
0.060
0.045
-0.047
-0.007
0.027
0.073
0.062
0.049
0.017
0.014
0.019
0.097
-0.051
-0.012
-0.007
0.022
0.004
0.077
-0.004
0.077
0.021
-0.029
0.032
0.106
0.033
0.053
-0.159
0.057
0.021
0.042
-0.018
0.048
0.059
-0.008
0.002
-0.027
0.140
0.069
0.043
0.062
-0.003
-0.010
0.023
0.007
-0.038
-0.063
0.110
-0.005
0.000
0.083
0.095
-0.114
-0.076
0.032
-0.015
0.065
0.015
-0.008
-0.017
0.097
-0.002
0.021
0.045
0.050
0.069
0.037
-0.023
-0.103
-0.023
0.083
-0.018
0.061
0.065
-0.035
0.028
0.084
0.036
0.024
-0.036
-0.088
0.106
0.135
0.056
-0.027
-0.059
0.007
0.009
-0.014
-0.070
0.090
-0.016
0.090
-0.016
-0.078
0.006
0.035
-0.061
0.063
0.028
0.001
0.091
0.021
-0.056
-0.001
-0.043
0.006
0.052
0.093
-0.060
-0.018
-0.027
0.023
0.048
0.090
0.033
0.028
0.004
0.044
0.108
-0.023
-0.033
0.007
0.036
-0.036
0.076
0.094
0.022
0.078
-0.056
-0.055
-0.023
0.052
0.079
-0.068
-0.046
-0.007
0.052
0.067
0.073
-0.006
-0.134
0.039
-0.167
0.029
0.153
-0.038
-0.009
0.160
-0.037
0.056
0.036
0.017
-0.002
-0.028
0.109
0.029
0.035
0.052
0.090
0.017
-0.051
-0.003
0.039
0.039
-0.003
-0.009
0.085
0.012
-0.003
0.112
0.001
-0.022
-0.021
0.010
0.049
0.065
-0.097
-0.022
0.006
0.076
0.002
-0.001
0.080
0.035
0.043
-0.064
0.045
0.020
0.083
-0.010
-0.027
0.060
0.005
0.023
0.050
-0.083
0.015
0.035
0.047
0.011
0.034
0.065
0.008
0.015
0.044
0.023
0.007
0.027
0.076
0.025
-0.090
0.032
0.009
-0.023
-0.007
0.100
0.045
0.078
0.003
0.048
-0.033
0.030
0.137
-0.009
-0.019
-0.059
0.009
0.109
0.079
-0.067
0.006
0.029
0.096
0.011
-0.012
-0.023
0.019
-0.128
0.129
-0.081
0.048
0.066
0.048
-0.006
-0.009
0.027
-0.001
0.014
0.055
-0.059
0.040
0.068
0.090
-0.125
-0.130
0.162
-0.056
-0.036
0.100
0.139
0.040
-0.076
0.019
-0.058
0.037
-0.005
0.012
0.022
0.090
0.079
-0.030
0.061
-0.067
-0.043
0.051
-0.015
0.060
0.025
0.016
0.030
0.055
-0.026
0.060
0.037
0.060
-0.047
0.020
