-0.051
-0.092
0.063
0.065
0.152
0.077
-0.033
0.062
-0.037
0.021
-0.055
0.060
0.011
0.055
0.110
-0.009
-0.007
0.011
0.102
-0.014
-0.044
-0.010
-0.045
0.052
0.005
0.103
-0.147
-0.114
0.088
0.088
0.041
0.011
0.026
-0.010
0.025
-0.039
0.028
0.030
0.061
-0.005
0.111
0.063
-0.054
-0.041
0.009
0.022
0.036
0.048
0.068
0.046
0.004
0.082
-0.018
0.052
0.091
0.055
-0.127
0.076
0.035
0.089
0.039
-0.079
0.111
0.078
-0.104
0.089
0.055
0.083
-0.049
0.010
0.058
0.024
-0.000
0.101
0.095
0.121
-0.055
-0.084
-0.002
0.113
-0.135
0.062
-0.020
0.060
0.035
-0.024
0.010
-0.020
0.025
-0.129
0.053
0.101
0.082
0.006
0.013
0.085
-0.044
0.130
-0.024
0.023
0.056
0.122
-0.091
-0.102
0.089
0.022
0.083
0.014
0.026
-0.014
-0.003
0.109
0.186
-0.093
0.094
-0.088
-0.006
0.046
-0.074
0.077
0.078
-0.026
0.068
0.054
-0.029
-0.076
-0.001
-0.007
0.091
-0.035
-0.009
0.010
0.073
0.026
0.118
0.037
0.084
-0.125
-0.004
-0.046
0.178
-0.085
0.092
-0.063
-0.077
0.058
0.079
0.032
0.073
-0.029
-0.104
0.127
0.095
0.000
-0.025
0.146
0.034
0.012
0.015
0.114
0.013
-0.075
0.054
-0.035
0.002
0.005
0.133
0.049
-0.127
-0.002
0.051
-0.015
0.098
-0.006
-0.007
0.053
-0.021
-0.019
0.086
0.016
0.085
-0.102
-0.005
0.047
0.066
0.014
0.093
-0.003
0.013
0.088
0.091
-0.089
-0.039
0.026
0.046
-0.013
-0.015
-0.022
0.099
0.006
-0.065
-0.014
0.092
0.068
-0.125
-0.053
-0.022
0.035
0.125
0.098
0.038
0.064
-0.022
0.028
0.034
-0.024
-0.058
0.023
0.010
-0.032
-0.004
0.069
-0.131
0.089
-0.030
0.055
0.032
-0.035
0.058
0.039
0.066
-0.008
-0.056
-0.074
0.072
0.042
0.067
-0.061
0.082
0.040
0.046
-0.086
-0.025
0.008
-0.040
0.075
0.121
-0.004
-0.015
0.049
-0.089
-0.096
-0.006
0.062
-0.005
0.007
0.075
0.001
0.036
0.025
-0.061
0.033
-0.037
0.091
0.042
0.001
0.121
-0.075
0.026
-0.056
0.068
0.113
-0.085
0.120
0.087
-0.025
-0.037
0.079
-0.026
0.021
0.124
-0.008
0.022
0.083
0.088
0.004
0.084
-0.102
0.008
0.043
-0.025
-0.029
0.022
0.039
-0.031
0.011
0.026
0.086
0.085
0.036
-0.022
-0.040
0.141
0.081
0.090
-0.053
-0.006
-0.118
0.170
-0.011
0.037
0.068
-0.054
-0.011
-0.009
0.120
-0.017
0.094
-0.049
-0.002
0.054
-0.023
0.098
0.022
0.047
-0.014
0.012
-0.003
0.020
-0.031
-0.034
-0.005
-0.030
0.045
0.014
0.036
0.107
0.005
0.031
-0.039
-0.005
0.090
0.037
-0.083
0.093
0.087
-0.097
-0.028
0.093
0.114
-0.093
-0.002
0.091
-0.059
-0.028
-0.042
-0.036
0.056
-0.023
-0.026
0.025
0.010
0.099
0.004
0.079
-0.066
-0.129
0.114
0.105
0.103
-0.109
0.054
0.003
-0.053
-0.010
0.026
-0.040
0.023
0.064
-0.162
-0.052
0.045
0.052
0.027
0.016
-0.033
0.078
0.041
0.042
0.029
0.061
-0.174
0.117
0.003
0.059
0.101
0.000
0.046
-0.049
-0.139
-0.002
0.067
0.202
-0.064
-0.111
0.067
0.048
0.032
-0.007
-0.119
0.209
0.074
0.009
0.026
-0.016
-0.015
0.016
0.031
0.070
0.091
0.133
-0.073
-0.006
0.152
-0.050
-0.036
-0.110
0.004
0.099
0.154
0.017
-0.027
-0.023
0.013
-0.041
-0.015
-0.019
0.064
0.016
0.078
0.107
-0.158
0.062
0.037
0.061
0.018
0.008
-0.116
0.115
0.033
-0.119
0.087
0.063
0.032
0.081
0.006
-0.016
-0.013
0.090
0.010
0.066
0.097
0.044
-0.006
0.004
0.026
0.032
-0.006
-0.053
0.022
0.058
0.104
-0.087
0.020
0.019
-0.081
-0.026
0.048
-0.171
0.075
0.038
0.073
0.013
-0.006
-0.020
0.132
0.010
-0.041
0.096
0.083
0.019
0.003
0.009
-0.020
-0.030
0.037
-0.048
0.074
-0.043
-0.023
0.075
-0.050
-0.074
0.065
0.027
-0.013
0.120
-0.020
0.032
0.039
0.131
0.097
-0.084
-0.091
0.031
0.028
0.024
0.039
-0.035
0.038
-0.108
-0.062
0.117
-0.011
0.118
0.118
-0.016
-0.128
0.026
-0.023
0.144
-0.003
-0.043
-0.050
0.032
-0.073
0.107
0.062
0.056
0.010
0.006
0.074
0.019
0.154
0.043
-0.023
-0.033
0.063
-0.059
-0.023
0.007
0.009
0.017
0.158
-0.024
0.006
0.000
0.066
-0.067
0.123
0.008
-0.005
0.139
0.061
-0.003
-0.102
-0.027
-0.021
0.073
0.075
0.024
0.011
-0.020
-0.010
-0.036
0.110
0.090
0.250
0.004
-0.071
-0.017
0.123
-0.092
-0.024
0.028
0.136
0.041
0.010
0.060
-0.055
0.059
0.067
0.051
-0.019
-0.084
0.012
0.049
0.097
-0.097
-0.017
0.097
0.038
-0.004
0.025
0.073
-0.002
0.042
0.040
-0.024
0.187
-0.088
-0.034
-0.010
0.076
0.090
0.066
-0.131
0.006
0.121
0.052
0.071
-0.024
-0.023
0.031
0.010
-0.023
0.075
0.047
0.064
-0.021
-0.036
-0.009
-0.084
0.058
0.121
0.044
-0.019
0.049
-0.048
-0.034
0.049
-0.101
0.125
0.033
0.096
0.120
-0.058
-0.032
0.011
-0.055
-0.045
0.085
0.075
0.002
-0.064
0.087
0.005
-0.078
0.005
0.133
0.057
0.045
-0.082
0.007
0.043
0.070
-0.070
0.066
0.104
-0.011
0.052
0.118
-0.044
0.018
0.090
0.049
0.009
0.002
0.032
0.053
-0.011
-0.025
0.041
0.012
0.000
-0.094
-0.002
0.032
0.122
0.002
-0.040
0.083
0.019
0.118
-0.117
0.083
0.023
0.025
0.126
0.065
-0.016
0.067
0.074
-0.017
-0.066
0.052
-0.075
0.075
0.040
-0.002
0.066
-0.129
0.106
0.023
0.152
-0.047
0.061
0.002
-0.050
0.093
0.077
0.098
0.077
-0.062
0.035
-0.032
0.068
0.079
0.060
-0.034
-0.088
0.003
0.127
0.084
-0.013
-0.074
-0.015
0.096
0.047
-0.038
0.089
0.027
0.046
0.050
0.035
-0.033
-0.041
-0.000
-0.121
0.063
0.083
0.024
0.104
0.024
0.002
0.050
0.063
0.052
0.093
-0.020
0.001
0.078
0.013
-0.064
0.057
0.094
0.011
-0.033
0.065
0.008
0.030
-0.002
-0.041
0.026
-0.033
-0.030
0.030
0.044
0.079
0.028
0.008
0.070
0.129
-0.024
0.008
0.034
0.034
0.119
0.041
-0.003
-0.050
0.073
-0.006
-0.026
0.174
-0.017
0.131
-0.058
0.031
-0.105
-0.152
0.189
-0.014
-0.044
-0.002
-0.077
0.191
0.078
0.007
-0.011
-0.015
-0.027
0.057
0.078
0.020
0.026
0.036
0.077
-0.012
-0.020
0.014
0.029
0.103
-0.036
0.074
-0.046
0.063
-0.021
0.076
0.005
-0.010
-0.073
0.055
0.071
-0.018
-0.012
0.090
-0.053
0.048
0.025
-0.090
-0.007
0.107
0.007
-0.018
-0.068
-0.082
0.161
0.129
-0.013
-0.033
0.042
-0.086
-0.006
0.048
0.035
-0.033
0.024
0.029
0.063
0.054
-0.099
-0.007
0.047
0.060
0.066
0.046
-0.010
-0.084
0.037
0.120
-0.056
0.007
0.060
0.077
-0.023
0.045
0.051
0.058
0.037
-0.065
0.010
0.030
-0.090
0.026
0.062
0.067
-0.099
0.034
-0.033
0.017
0.055
0.022
0.029
0.042
0.017
0.030
-0.047
-0.056
0.010
0.040
0.085
-0.068
0.027
0.089
-0.034
0.047
-0.024
0.060
0.078
0.064
-0.034
-0.046
0.013
0.049
0.056
0.077
0.085
-0.095
-0.033
-0.073
0.107
0.127
-0.019
0.019
-0.102
0.032
0.028
0.072
0.113
-0.047
0.003
0.013
0.064
-0.084
0.028
0.045
0.121
-0.036
-0.031
-0.101
-0.076
0.048
0.056
0.245
0.048
-0.019
-0.056
0.019
-0.051
-0.010
-0.019
0.021
0.044
-0.010
0.035
-0.028
0.021
0.136
0.112
-0.034
0.056
-0.055
-0.067
0.007
0.070
0.102
0.159
-0.030
0.003
0.121
0.026
-0.067
0.008
0.063
0.107
-0.024
0.075
0.065
0.004
0.027
-0.003
-0.093
-0.048
0.103
0.113
-0.032
0.069
0.040
-0.107
0.038
0.085
0.056
0.072
0.019
-0.157
0.053
0.032
0.029
0.057
0.079
0.043
0.010
0.022
0.046
0.114
0.102
-0.044
-0.087
0.070
-0.008
0.020
0.053
0.064
0.161
-0.062
-0.093
0.051
-0.001
-0.093
0.085
0.038
0.157
0.086
-0.037
0.007
-0.109
-0.012
0.032
-0.041
0.126
-0.008
0.164
0.002
0.037
0.056
-0.014
-0.002
0.061
-0.045
0.088
0.089
-0.011
-0.000
0.021
0.127
-0.004
-0.042
0.065
-0.109
0.053
0.012
0.034
0.000
0.126
-0.055
-0.095
-0.055
0.079
-0.066
-0.023
0.105
-0.061
-0.045
-0.038
0.099
0.100
0.101
0.140
0.094
-0.127
-0.062
0.057
-0.017
0.238
0.166
0.244
-0.076
0.139
0.200
0.123
0.588
0.305
-0.026
0.607
0.402
0.217
-0.673
-1.760
-1.980
0.591
1.692
1.207
0.404
-0.313
-0.857
-0.749
-0.586
-0.274
0.901
0.732
0.703
0.500
0.131
-0.696
-0.571
0.731
1.782
1.156
0.317
-0.207
-0.304
-0.516
-0.718
-0.373
-0.053
0.219
0.055
0.053
0.504
0.436
0.276
0.494
0.211
-0.131
0.027
-0.014
-0.220
-0.126
-0.136
0.059
0.337
0.339
0.559
0.288
0.004
-0.033
-0.138
-0.020
-0.198
-0.263
-0.137
0.062
0.282
0.313
0.290
0.086
-0.113
-0.077
-0.250
-0.314
-0.337
-0.064
-0.015
0.342
0.131
0.165
0.152
-0.014
-0.221
0.018
0.197
0.136
0.042
0.105
0.061
0.087
0.238
0.273
0.045
0.064
-0.305
-0.107
-0.195
-0.213
-0.125
-0.083
-0.107
-0.051
0.087
-0.071
0.161
0.110
-0.020
-0.225
-0.288
-0.029
-0.033
0.100
0.044
0.099
0.022
0.110
-0.047
0.097
0.196
0.235
-0.086
-0.209
-0.231
-0.242
-0.055
0.231
0.251
0.087
-0.086
-0.101
-0.082
-0.234
-0.809
-0.774
-0.309
-0.375
-0.270
-0.230
-0.192
-0.094
-0.061
-0.011
0.114
0.047
0.040
0.119
0.130
0.394
0.443
0.568
0.507
0.450
0.352
0.231
0.282
0.273
0.621
0.409
0.165
0.093
-0.181
-0.875
-0.726
-0.035
-0.180
-0.119
0.051
-0.055
-0.319
-0.645
-0.708
-0.313
0.505
0.775
0.388
0.098
-1.060
-1.328
-0.275
0.485
0.680
0.540
0.597
0.061
-0.131
-0.244
-0.293
-0.088
-0.106
-0.083
0.007
0.286
0.069
0.094
0.312
0.206
0.234
0.191
0.225
0.064
-0.027
-0.212
0.055
0.140
0.188
0.142
0.031
-0.080
0.012
0.022
0.068
0.460
0.555
0.524
0.221
0.130
-0.054
0.081
0.032
-0.276
-0.097
0.444
0.273
0.179
-0.442
-0.285
-0.056
0.068
0.081
-0.037
-0.203
-0.255
-0.349
-0.529
0.607
0.947
0.774
0.360
-0.061
-0.229
-0.049
0.222
0.313
0.065
0.258
0.141
0.207
0.359
0.279
0.008
-0.178
-0.180
-0.271
-0.353
-0.413
-0.041
0.436
0.499
0.632
0.175
-0.068
-0.105
0.203
0.340
0.488
0.410
0.388
0.369
0.436
0.532
0.017
-0.078
-0.354
-0.317
0.108
0.393
0.382
-0.142
-0.187
-0.234
-0.163
-0.209
-0.195
-0.015
0.088
0.184
0.158
0.214
0.134
-0.149
-0.056
0.048
-0.090
0.011
-0.202
0.001
0.054
0.150
0.097
-0.054
-0.102
0.028
-0.002
0.041
-0.012
0.054
0.138
-0.124
-0.061
-0.112
0.012
0.062
0.063
0.013
0.043
0.035
-0.163
-0.015
0.121
0.053
-0.063
0.163
0.155
0.091
-0.014
0.074
0.018
0.147
0.185
0.124
0.037
-0.081
-0.038
0.066
-0.002
-0.066
0.063
0.112
-0.012
-0.097
0.040
-0.221
-0.100
-0.066
-0.176
0.106
-0.160
-0.134
-0.109
0.049
0.029
-0.021
-0.128
-0.132
-0.046
-0.068
-0.063
-0.016
0.068
-0.165
-0.378
-0.136
-0.073
-0.013
0.012
-0.005
-0.084
-0.059
0.187
0.327
0.046
0.003
-0.071
-0.019
0.182
0.190
0.257
0.267
0.183
0.041
0.204
0.174
-0.157
-0.096
-0.123
-0.058
-0.074
-0.062
-0.080
-0.022
-0.141
-0.122
0.009
0.055
-0.076
0.049
-0.074
0.019
0.019
0.138
-0.050
0.047
0.162
0.054
0.019
0.111
0.098
0.034
-0.042
0.023
0.078
0.134
0.002
-0.126
-0.153
-0.060
0.007
-0.042
-0.030
-0.004
-0.413
-1.141
-0.831
-0.209
0.304
0.570
0.440
-0.099
0.189
0.066
-0.139
-0.500
-0.491
-0.151
0.335
0.391
0.141
0.254
0.084
0.012
-0.192
-0.343
-0.371
-0.353
-0.146
-0.214
-0.207
0.018
0.034
0.017
-0.011
0.083
0.109
0.172
0.141
0.101
-0.018
0.103
0.013
0.090
-0.013
0.163
0.016
-0.024
-0.078
-0.242
-0.224
-0.146
-0.301
-0.404
-0.614
-0.494
-0.164
0.100
0.352
0.230
-0.157
-0.175
-0.178
0.139
0.398
0.431
0.331
0.574
0.299
-0.039
-0.057
0.091
0.195
-0.149
-0.142
-0.814
-1.184
-0.432
-0.823
-1.219
-1.411
-1.773
-2.052
-3.483
-3.841
-3.140
0.931
3.964
4.414
2.406
-0.064
-1.232
-1.061
-0.108
1.316
3.077
4.055
4.345
4.310
4.100
3.774
2.931
1.957
0.793
-0.252
-0.998
-1.414
-1.728
-1.946
-1.837
-1.615
-1.433
-1.012
-0.983
-0.648
-0.408
-0.272
-0.218
-0.060
-0.192
0.080
-0.033
0.090
0.219
0.241
0.285
0.347
0.352
0.377
0.443
0.586
0.619
0.636
0.723
0.657
0.874
0.855
0.858
0.679
0.799
0.801
0.757
0.832
0.720
0.647
0.752
0.735
0.644
0.595
0.638
0.558
0.398
0.532
0.534
0.327
0.261
0.238
0.304
0.237
0.121
0.118
-0.047
0.024
0.051
-0.079
-0.036
-0.037
-0.160
-0.115
-0.362
-0.280
-0.280
-0.343
-0.272
-0.390
-0.215
-0.295
-0.336
-0.372
-0.349
-0.292
-0.363
-0.372
-0.368
-0.234
-0.242
-0.090
-0.434
-0.258
-0.158
-0.197
-0.226
-0.159
-0.129
-0.071
-0.030
-0.158
-0.148
0.011
-0.027
0.015
0.132
-0.064
-0.047
0.109
0.092
0.086
0.116
0.147
0.153
0.049
0.150
0.171
0.087
0.104
0.179
0.056
0.136
0.266
0.055
0.150
0.025
0.126
0.093
0.151
0.063
0.105
-0.003
0.068
0.062
0.097
0.071
-0.001
-0.063
-0.016
0.036
0.145
0.067
-0.159
-0.006
0.022
-0.013
0.188
-0.114
0.019
0.196
0.007
-0.023
0.117
-0.000
0.076
0.117
0.062
0.130
0.142
0.201
-0.069
-0.124
0.030
0.370
0.337
0.010
-0.116
-0.072
-0.038
-0.086
-0.041
0.197
0.082
0.092
0.092
-0.085
-0.096
0.007
-0.088
0.038
0.205
0.057
0.130
0.092
0.123
0.160
-0.013
0.105
0.078
0.182
0.010
-0.077
-0.050
0.223
0.036
-0.005
-0.100
-0.097
-0.181
-0.277
0.079
-0.046
-0.185
0.005
0.012
-0.218
-0.224
-0.091
-0.016
0.036
-0.113
-0.094
-0.102
-0.035
0.059
-0.078
-0.148
-0.009
0.040
0.003
-0.065
-0.039
0.032
-0.027
-0.103
0.031
-0.034
-0.111
-0.023
-0.163
0.018
0.019
-0.075
0.128
0.057
0.142
0.014
-0.007
-0.060
0.070
0.020
0.200
0.214
0.096
0.132
0.039
0.196
0.134
0.251
0.151
0.102
0.093
0.096
0.182
0.142
0.104
-0.043
0.171
-0.036
0.115
0.066
0.005
0.065
0.023
0.008
0.102
0.111
0.012
0.072
-0.009
0.027
-0.082
-0.064
0.085
0.091
-0.021
0.064
0.053
-0.009
-0.015
-0.014
0.109
-0.042
-0.044
-0.091
-0.036
-0.127
0.053
0.073
0.050
-0.130
-0.062
-0.085
-0.115
-0.183
0.151
-0.012
0.193
0.106
-0.227
-0.023
0.049
0.038
0.276
0.405
-0.298
0.315
0.548
0.065
-0.928
-0.695
-0.160
0.184
0.307
0.151
-0.353
-0.156
-0.141
-0.423
-0.256
-0.072
-1.006
-0.465
0.560
0.755
0.516
0.323
0.175
0.130
0.130
0.041
0.231
0.195
0.275
0.300
0.250
0.158
0.175
0.046
0.028
0.004
0.060
-0.102
-0.061
-0.032
-0.142
0.038
-0.058
0.011
-0.051
-0.063
-0.078
0.041
0.026
0.087
0.030
-0.001
-0.028
-0.157
-0.009
0.123
0.146
-0.039
-0.017
-0.059
0.038
0.044
0.026
0.012
0.094
-0.022
-0.100
0.121
0.037
0.020
0.120
-0.033
-0.068
0.126
0.152
-0.062
-0.008
0.115
0.079
0.264
0.330
0.071
-0.089
-0.223
0.036
0.070
0.004
0.108
0.066
0.001
-0.001
0.097
0.111
-0.177
-0.163
-0.028
0.110
-0.002
0.037
-0.002
0.035
-0.062
0.190
-0.006
-0.001
0.098
-0.041
0.041
-0.050
0.045
0.043
0.086
-0.179
0.081
0.125
-0.052
-0.005
-0.005
0.038
-0.054
0.030
0.093
-0.025
0.135
0.019
0.019
-0.044
-0.035
0.088
-0.044
-0.049
-0.076
-0.031
0.024
0.073
0.142
0.011
-0.027
-0.000
-0.069
0.006
0.051
0.002
0.090
-0.040
0.020
0.064
0.213
-0.043
-0.025
0.092
0.093
0.018
0.052
-0.071
0.044
0.076
-0.032
-0.101
0.099
0.107
0.064
0.009
0.026
-0.267
0.021
0.142
0.014
0.104
0.123
-0.149
-0.320
0.121
0.417
0.001
0.115
-0.078
0.067
0.014
0.079
0.007
0.029
-0.386
-0.007
0.294
0.337
0.247
0.012
-0.129
0.130
0.079
-0.041
-0.072
-0.102
-0.059
0.108
0.145
0.066
0.157
-0.506
-0.398
0.110
0.164
0.156
0.161
-0.064
0.029
-0.016
0.053
-0.115
-0.208
-0.076
0.226
0.331
0.255
0.154
-0.009
-0.026
-0.004
-0.095
-0.081
0.023
-0.031
0.011
0.110
0.322
0.112
-0.232
-0.294
0.053
0.219
0.261
-0.040
0.016
0.139
0.039
-0.051
0.115
0.373
0.059
-0.120
-0.125
-0.083
0.085
-0.006
0.026
0.076
0.164
-0.012
-0.185
-0.149
-0.169
-0.176
-0.095
-0.157
-0.097
-0.069
0.012
0.055
-0.191
-0.028
-0.318
0.037
0.349
0.217
0.197
0.153
0.102
0.014
0.021
-0.037
0.106
0.099
0.212
0.189
0.118
0.063
0.145
0.017
0.100
-0.048
0.070
-0.051
-0.109
-0.034
0.004
-0.015
-0.036
0.028
-0.013
-0.046
-0.171
0.003
0.078
0.009
-0.036
0.412
0.389
-0.071
-0.324
-0.180
-0.392
-0.188
0.176
0.117
0.201
0.176
0.034
-0.134
0.176
0.073
-0.088
-0.105
-0.119
0.089
-0.132
-0.052
-0.013
0.377
0.282
0.210
-0.283
-0.248
-0.035
0.010
0.123
-0.093
0.075
0.165
0.019
0.139
0.092
-0.029
0.091
0.136
0.062
0.013
0.040
0.216
-0.051
0.045
0.016
-0.004
0.021
0.068
-0.010
-0.092
0.026
0.005
-0.006
-0.033
0.041
-0.016
-0.085
-0.025
-0.003
0.055
0.074
-0.060
-0.027
0.070
-0.052
0.052
-0.005
0.062
-0.013
0.037
0.066
0.011
-0.042
-0.126
0.005
0.033
0.037
0.095
-0.053
0.157
0.014
0.049
-0.068
0.155
0.085
0.016
0.061
0.014
0.007
0.130
-0.051
0.086
0.116
0.100
0.012
-0.111
-0.045
0.074
0.026
-0.088
0.100
0.008
-0.137
0.045
0.153
-0.057
0.037
0.095
0.100
0.059
-0.007
0.024
0.103
-0.054
0.024
0.079
-0.056
-0.035
0.061
-0.013
0.146
-0.060
0.043
0.086
-0.063
0.064
0.061
-0.018
0.004
0.102
-0.069
0.029
0.090
0.070
0.043
-0.036
-0.023
0.048
-0.005
0.019
-0.025
-0.069
0.187
0.093
-0.151
0.072
-0.004
0.085
-0.068
0.030
-0.038
0.106
0.071
0.070
0.013
0.066
-0.005
-0.038
0.000
0.026
0.095
0.112
0.041
0.062
-0.097
-0.121
0.073
0.077
0.083
0.080
-0.003
0.154
-0.082
-0.071
-0.023
0.073
0.083
-0.115
-0.084
0.066
0.145
0.125
0.030
-0.106
-0.007
0.028
-0.033
0.023
-0.019
0.132
-0.026
0.045
0.045
-0.062
0.085
-0.045
0.061
0.064
0.102
-0.056
0.136
-0.003
0.011
-0.047
0.042
0.026
-0.046
0.133
0.155
-0.048
0.057
-0.045
0.015
0.038
0.036
-0.094
-0.014
0.106
-0.077
0.031
0.004
0.040
0.022
0.010
-0.020
0.146
-0.019
0.076
0.057
-0.048
0.103
0.082
-0.050
-0.016
0.050
0.014
-0.037
0.058
0.098
-0.064
0.025
0.008
0.060
-0.029
0.066
0.021
-0.024
0.003
0.063
-0.085
0.009
0.064
-0.002
0.012
0.059
-0.051
0.042
0.027
0.028
0.011
0.133
-0.010
-0.264
-0.098
0.022
0.005
0.072
0.092
-0.065
0.051
-0.040
0.028
0.057
-0.028
-0.128
0.020
0.068
0.057
0.121
0.073
-0.079
0.016
0.087
-0.068
-0.054
-0.003
-0.027
0.078
-0.039
0.032
0.025
0.009
-0.010
0.088
-0.141
-0.003
0.071
-0.012
-0.051
0.013
-0.075
0.072
-0.118
-0.006
0.006
-0.027
0.040
-0.044
-0.034
0.076
0.125
-0.026
0.012
0.069
-0.034
0.044
0.135
0.086
0.011
0.036
0.045
-0.031
0.022
-0.007
0.091
0.013
-0.108
-0.080
0.006
0.075
0.070
0.026
0.011
0.004
0.067
-0.054
-0.093
-0.021
0.061
0.133
0.019
0.122
-0.069
-0.024
0.060
-0.069
0.159
0.043
0.093
0.065
-0.031
0.179
-0.037
-0.089
0.050
0.066
0.069
0.091
0.106
0.011
-0.062
-0.026
0.069
0.041
0.106
0.017
0.074
-0.026
-0.146
-0.038
0.101
0.107
-0.037
0.058
0.016
0.082
-0.099
0.042
0.072
-0.043
0.272
0.108
-0.103
-0.089
-0.005
0.017
-0.161
-0.130
0.085
0.190
0.130
0.063
0.215
0.098
0.032
-0.199
0.011
-0.008
0.071
-0.175
0.052
0.368
0.094
0.121
0.001
-0.069
-0.283
-0.092
0.161
0.010
0.166
0.101
-0.135
-0.244
-0.096
0.098
0.127
-0.033
0.457
0.070
-0.368
-0.163
0.050
0.112
0.073
0.144
0.058
0.101
-0.047
-0.052
-0.037
-0.061
0.083
0.040
-0.116
0.067
0.176
0.061
-0.024
-0.092
0.122
0.094
-0.011
0.034
-0.085
0.096
-0.105
0.027
0.150
-0.071
-0.052
0.059
0.481
1.681
-0.372
-2.172
-0.724
0.257
0.901
1.587
-0.443
-0.059
0.818
0.035
-0.823
-1.010
-0.194
0.300
0.298
0.244
0.270
-0.078
-1.227
-0.316
0.935
0.760
-0.101
-0.323
0.074
0.184
0.155
-0.148
-0.211
-0.188
-0.256
0.372
0.623
0.177
-0.346
-0.279
-0.031
0.016
-0.108
-0.042
-0.143
0.107
-0.060
0.018
0.140
0.138
0.184
0.291
0.211
0.165
0.184
-0.040
-0.023
-0.143
0.144
0.127
-0.188
-0.023
-0.139
-0.113
0.078
0.022
-0.052
0.017
-0.150
0.006
0.053
-0.019
-0.019
0.185
0.239
0.306
0.003
-0.390
0.008
1.654
1.630
-0.166
-1.430
1.168
-2.172
0.396
2.470
1.652
-2.281
-1.444
-0.144
0.295
0.022
-0.167
-0.140
1.138
1.446
1.240
-0.034
0.487
0.783
-2.656
-1.333
2.444
3.034
3.429
2.181
-0.045
-2.531
-3.569
-3.473
-1.648
0.865
2.079
1.333
0.982
0.507
-0.005
-0.093
-0.176
0.041
0.241
0.410
0.321
0.422
0.441
0.276
0.191
0.144
0.152
0.172
0.172
0.111
0.080
0.200
0.103
0.207
0.120
0.202
0.270
0.086
0.222
0.147
0.189
0.119
0.019
0.074
0.105
0.089
0.103
0.113
-0.031
-0.153
0.004
0.006
-0.053
0.186
0.079
-0.156
-0.085
0.018
0.066
-0.012
-0.047
-0.029
-0.013
-0.069
-0.028
-0.104
-0.004
-0.053
0.025
-0.038
-0.108
-0.123
-0.105
-0.251
-0.009
0.215
-0.194
0.301
0.392
0.305
-0.050
-2.588
-1.046
0.522
0.908
0.682
0.432
-0.048
-0.274
-0.326
-0.249
-0.112
-0.034
0.122
0.313
0.335
0.386
0.215
0.266
0.135
0.073
-0.054
-0.002
0.081
-0.032
-0.121
-0.155
-0.057
-0.043
0.071
0.020
0.006
0.073
-0.049
-0.006
0.049
0.006
0.099
0.054
-0.036
0.006
0.061
-0.035
0.119
0.001
0.038
0.112
-0.024
0.003
0.036
0.129
0.073
0.054
0.087
0.070
-0.009
0.082
-0.086
0.125
0.047
0.054
0.046
0.026
0.145
0.038
0.042
0.035
0.053
0.040
0.031
-0.011
0.086
-0.052
0.111
0.027
0.130
-0.020
-0.025
0.019
0.117
-0.053
0.118
0.115
-0.033
-0.023
-0.075
0.079
-0.038
-0.011
-0.042
-0.005
0.037
0.039
0.034
0.004
0.039
-0.027
0.059
-0.008
0.019
0.088
-0.100
-0.025
0.023
-0.020
-0.122
0.140
0.028
-0.085
0.031
-0.078
-0.074
-0.105
0.167
0.036
0.083
-0.137
-0.039
0.034
0.036
0.034
0.100
0.059
-0.054
-0.100
0.111
0.139
0.046
0.091
-0.060
-0.049
0.111
0.050
0.040
0.218
-0.053
0.124
-0.048
0.037
0.131
0.101
0.008
-0.053
0.055
0.027
-0.005
-0.031
0.023
0.141
-0.016
0.125
-0.140
0.088
0.056
-0.001
0.013
0.095
0.050
0.026
0.040
-0.017
0.224
0.051
0.077
-0.016
-0.091
-0.051
0.051
0.050
0.082
0.117
0.027
-0.120
0.040
-0.037
0.110
0.051
-0.049
0.033
-0.013
-0.045
0.070
0.002
-0.129
0.098
-0.051
-0.028
0.102
0.115
-0.010
-0.160
0.057
-0.035
0.018
-0.007
0.015
0.064
0.050
0.012
-0.011
-0.021
-0.040
0.101
-0.012
-0.025
-0.056
0.031
-0.023
-0.017
-0.022
0.052
-0.024
-0.044
0.100
0.061
0.152
0.014
-0.053
-0.053
-0.099
0.080
0.083
0.053
0.034
0.149
-0.008
0.018
-0.004
0.016
0.112
-0.033
-0.021
0.120
0.006
-0.016
-0.016
0.095
0.104
-0.069
0.033
0.028
0.069
0.170
-0.096
0.154
0.007
0.072
0.135
0.059
-0.119
-0.025
0.047
0.057
0.128
0.034
0.016
-0.037
-0.009
0.045
0.038
-0.070
-0.053
0.187
0.076
-0.021
-0.006
0.135
0.023
-0.034
-0.037
0.054
0.098
-0.044
0.114
-0.028
0.111
-0.045
0.062
0.039
0.070
-0.013
0.116
-0.116
-0.009
-0.103
0.062
0.130
0.129
-0.101
0.010
-0.041
0.053
-0.023
-0.020
0.002
0.008
0.002
0.156
-0.021
0.024
0.128
0.007
-0.153
0.094
0.044
0.027
0.080
-0.117
-0.026
0.097
-0.001
0.086
-0.056
-0.013
0.028
-0.054
0.009
-0.022
0.024
-0.009
0.066
0.093
0.017
0.054
0.005
-0.059
0.124
0.012
0.019
0.034
0.010
-0.026
-0.057
-0.071
-0.002
0.087
0.023
-0.119
0.071
-0.060
0.001
0.081
-0.071
0.001
0.077
0.064
0.003
0.059
-0.038
0.145
-0.046
0.090
-0.065
0.043
-0.029
-0.036
0.140
0.014
-0.012
0.008
0.075
0.041
0.094
-0.031
-0.061
0.029
0.061
-0.041
0.017
0.072
0.014
0.022
-0.016
-0.023
-0.123
0.137
0.021
0.037
0.063
-0.061
-0.113
0.091
-0.006
-0.066
-0.024
-0.008
0.103
0.048
0.089
-0.184
0.034
0.088
-0.026
-0.025
0.005
-0.006
0.076
0.040
0.030
0.039
0.114
-0.024
0.018
0.151
0.012
0.003
0.023
-0.008
0.030
0.004
-0.000
-0.071
0.063
0.058
0.049
-0.070
0.048
0.068
0.037
-0.059
-0.002
-0.017
0.034
0.033
0.026
0.048
-0.035
0.072
-0.030
0.104
-0.008
0.016
0.001
-0.041
0.042
0.034
-0.011
-0.074
-0.055
0.109
-0.008
-0.027
-0.016
-0.005
0.071
0.093
0.038
-0.097
0.004
0.009
-0.045
0.040
0.169
0.066
-0.041
-0.053
0.059
0.108
0.094
0.056
-0.032
-0.035
0.071
0.024
0.134
-0.003
-0.097
-0.043
-0.120
0.025
0.053
0.217
0.009
-0.060
-0.002
0.005
0.016
0.002
-0.051
0.077
0.122
-0.013
0.006
-0.056
-0.117
-0.036
0.104
0.022
-0.026
0.057
0.097
0.015
-0.048
0.013
0.051
0.027
0.080
-0.071
-0.009
0.050
0.073
0.091
0.084
-0.049
0.033
0.112
-0.035
0.101
-0.010
0.034
0.024
-0.018
0.078
-0.026
-0.007
0.011
0.070
0.144
-0.002
-0.098
-0.022
-0.104
0.104
-0.012
0.009
0.043
0.016
-0.065
-0.026
0.033
0.072
0.047
-0.073
-0.035
-0.027
0.140
0.114
0.023
0.015
-0.002
0.108
0.008
0.112
-0.002
0.103
-0.071
-0.025
-0.029
0.115
0.093
0.005
-0.072
-0.050
0.010
-0.040
0.006
0.059
-0.018
-0.003
0.058
0.019
0.060
0.026
0.043
0.119
-0.002
-0.021
0.010
-0.043
0.059
-0.039
0.038
-0.004
0.156
-0.040
-0.052
0.037
0.007
0.082
0.105
-0.052
-0.103
-0.063
0.093
0.070
-0.044
-0.008
0.024
0.008
0.094
-0.040
-0.027
-0.032
0.046
0.086
0.038
-0.014
-0.080
0.048
-0.085
0.165
0.070
0.103
-0.088
-0.065
0.164
0.023
0.012
0.090
0.061
-0.003
0.020
-0.013
0.030
-0.070
0.152
-0.004
0.081
-0.071
0.097
0.022
0.070
0.105
-0.048
-0.052
0.131
0.135
-0.070
0.140
-0.008
-0.128
-0.026
0.059
0.013
0.067
0.036
-0.088
0.072
0.067
-0.076
0.010
0.028
0.047
-0.016
0.037
0.012
0.056
0.027
-0.081
0.031
0.128
0.031
0.035
-0.141
0.098
0.060
0.043
0.169
-0.082
-0.080
0.073
0.021
0.079
0.032
0.082
0.041
0.009
-0.044
-0.032
0.030
0.036
0.015
0.045
0.121
0.068
-0.009
-0.018
-0.012
0.067
-0.000
-0.039
-0.004
0.045
-0.028
0.058
0.095
0.032
-0.083
0.040
0.098
-0.093
0.025
0.098
0.144
0.114
-0.036
-0.028
0.071
-0.068
0.078
0.045
0.017
0.032
0.072
-0.008
-0.062
0.080
0.037
0.011
-0.058
-0.015
-0.007
0.048
0.017
-0.005
0.083
-0.023
0.041
0.046
-0.059
-0.065
-0.022
-0.010
0.131
0.013
-0.054
0.082
0.078
-0.029
0.012
-0.023
0.140
0.173
0.230
-0.202
-0.223
0.058
0.064
0.041
0.155
0.054
-0.037
-0.030
-0.023
-0.009
-0.093
0.148
0.056
-0.209
0.007
0.016
0.103
0.070
-0.004
-0.048
-0.052
0.045
0.024
0.037
0.021
0.057
0.017
0.030
0.138
0.121
-0.082
-0.127
0.017
0.011
-0.077
0.098
0.007
0.009
-0.075
0.114
-0.016
0.103
-0.044
0.051
-0.078
0.057
-0.139
0.045
-0.006
-0.014
-0.045
0.023
0.091
-0.080
0.062
-0.021
-0.075
0.012
0.068
0.039
-0.013
0.066
0.013
0.066
0.058
-0.009
-0.025
-0.009
-0.034
-0.040
0.127
0.003
-0.002
-0.037
0.072
-0.025
0.045
-0.073
-0.009
0.018
-0.059
-0.060
0.111
0.096
0.050
0.059
0.063
-0.075
-0.063
0.071
0.072
0.676
-0.153
1.326
1.618
0.999
0.465
0.233
0.232
0.067
-1.296
-3.683
-1.963
1.965
2.766
1.699
0.062
-1.264
-1.676
-1.636
-1.377
-0.451
0.071
0.509
1.679
2.422
1.790
0.725
-1.245
-0.432
0.026
0.762
0.782
0.549
0.005
-0.481
-0.721
-0.686
-0.539
-0.374
-0.241
0.077
0.386
0.550
0.412
0.540
0.530
0.343
0.358
0.161
0.118
0.047
-0.083
-0.063
-0.098
-0.074
0.065
0.097
-0.001
-0.103
-0.046
-0.067
0.107
0.101
0.155
0.099
0.111
0.102
-0.024
-0.072
0.108
0.151
-0.024
0.034
-0.044
-0.021
-0.032
-0.033
-0.012
0.052
0.104
-0.015
-0.008
-0.107
0.044
-0.063
-0.001
0.035
-0.102
-0.027
-0.053
0.086
0.031
0.048
0.064
-0.067
0.045
0.114
-0.045
-0.010
0.072
-0.082
0.016
0.203
0.639
-0.911
-0.953
0.008
0.212
0.302
0.190
0.145
0.153
-0.013
-0.128
-0.264
0.144
0.419
-0.043
-0.025
0.455
1.499
1.187
-1.900
-2.480
-0.714
0.819
1.151
0.706
0.212
-0.161
-0.416
-0.472
-0.373
-0.295
0.023
0.169
0.283
0.416
0.389
0.115
0.320
0.281
0.133
0.065
0.013
-0.003
-0.102
-0.074
-0.015
-0.052
-0.098
0.062
-0.003
0.044
0.044
-0.001
-0.061
0.076
0.144
-0.067
0.096
-0.021
0.071
-0.017
-0.150
-0.048
0.039
0.149
0.045
0.163
-0.022
-0.023
-0.041
0.015
0.027
0.117
0.020
-0.005
0.076
0.138
0.008
0.059
0.042
-0.015
0.053
0.003
0.048
-0.058
0.021
0.125
0.121
0.102
0.424
0.668
1.359
1.153
0.548
0.243
0.108
0.136
0.244
0.408
0.515
0.407
0.402
0.126
-0.071
-0.230
-0.157
-0.332
-0.435
-0.487
-0.449
-0.329
-0.095
-0.116
-0.005
-0.056
0.091
0.100
0.163
0.228
0.159
-2.500
-1.881
2.888
4.280
4.286
0.883
-2.452
-3.855
-4.206
0.152
3.500
4.477
4.148
3.104
2.082
1.274
0.885
0.542
0.283
0.199
0.413
0.100
1.099
1.611
1.177
0.440
-0.093
-0.280
-1.417
-3.844
-0.442
2.574
2.612
1.427
-0.141
-1.022
-1.494
-1.456
-1.170
-0.495
0.089
0.622
0.997
1.172
1.205
1.269
1.146
1.113
0.709
0.577
0.499
0.163
0.341
0.260
0.353
0.340
0.350
0.402
0.433
0.458
0.465
0.440
0.444
0.439
0.550
0.276
0.327
0.406
0.203
0.369
0.265
0.197
0.136
0.151
0.174
0.176
0.073
-0.007
0.049
-0.089
-0.084
-0.023
0.005
-0.175
-0.120
-0.135
-0.183
-0.288
-0.025
-0.257
-0.239
-0.151
-0.240
-0.211
-0.307
-0.192
-0.160
-0.214
-0.091
-0.123
-0.282
-0.229
-0.106
-0.244
-0.140
0.027
-0.070
-0.234
-0.158
-0.219
-0.071
0.034
-0.105
-0.015
-0.077
-0.031
-0.014
0.087
-0.062
0.137
0.026
0.056
-0.014
0.076
0.178
0.072
0.057
0.046
0.158
0.033
0.117
0.065
0.150
0.135
0.037
-0.042
0.164
0.081
0.037
0.113
0.053
0.104
0.047
0.042
0.072
0.072
0.065
0.154
0.133
-0.016
-0.005
0.093
-0.019
-0.032
0.119
0.069
-0.071
0.022
0.099
0.081
0.023
-0.097
0.049
0.047
0.053
0.079
-0.036
-0.023
-0.047
0.053
-0.058
0.162
0.067
-0.089
0.147
-0.000
0.007
-0.035
0.117
0.062
0.147
0.009
0.023
0.027
0.111
0.120
-0.070
0.025
-0.009
-0.012
0.025
0.084
0.057
0.011
0.053
-0.012
0.095
-0.090
-0.022
0.133
0.090
-0.123
-0.113
-0.043
0.153
0.065
-0.044
-0.103
0.037
0.109
-0.016
-0.170
-0.023
0.141
-0.011
-0.011
-0.088
-0.157
-0.101
0.070
0.058
-0.005
-0.068
0.008
0.007
-0.072
-0.107
0.085
-0.011
-0.014
-0.049
0.085
0.052
-0.009
-0.045
0.114
0.014
0.018
-0.019
0.016
0.033
0.186
0.075
-0.219
0.033
0.228
0.789
0.756
1.070
1.074
0.659
0.318
0.211
0.199
0.076
-0.468
-1.383
-1.697
0.277
0.579
-0.007
-1.676
-1.228
-0.698
-0.700
-0.463
-0.420
-0.188
-0.081
0.205
0.290
0.656
0.825
0.886
0.859
0.872
0.866
0.702
0.391
0.406
0.193
-0.176
-0.546
-0.582
-0.271
0.235
0.458
0.125
-0.676
1.132
1.182
0.982
-2.245
-2.781
1.040
3.423
3.244
-2.115
-1.896
-0.341
0.296
0.245
-0.135
0.715
1.342
0.755
-0.374
-0.025
0.344
0.460
-2.743
-0.994
2.500
3.183
1.869
1.416
-1.487
-2.162
-2.402
-0.680
-0.994
0.211
0.503
1.347
2.452
0.108
-2.317
-0.658
2.092
1.091
0.188
0.321
0.758
1.826
-1.166
-1.582
-0.480
0.381
0.656
0.578
0.632
0.608
0.520
0.637
0.463
0.592
0.455
0.464
0.728
1.506
1.795
1.281
0.771
0.217
0.165
0.252
0.462
0.616
0.529
0.387
0.206
0.204
0.021
-0.197
-0.403
-0.442
-0.629
-0.670
-0.513
-0.476
-0.462
-0.672
-1.244
-2.035
-3.668
-0.591
3.259
4.384
2.907
0.127
-2.101
-2.468
-1.705
0.575
-1.665
-0.175
2.354
3.842
4.395
4.295
3.088
1.742
0.260
-0.536
-0.734
-0.693
-1.278
-0.344
0.275
-0.118
-0.346
-0.438
-1.150
-0.778
-0.266
0.009
-0.220
-0.417
-1.414
-3.541
-1.917
2.735
4.199
3.040
0.569
-1.313
-1.944
-1.657
-1.009
0.061
0.971
1.868
2.243
2.315
2.230
1.962
1.492
0.882
0.476
0.002
-0.194
-0.236
-0.390
-0.508
-0.468
-0.305
0.027
-0.091
-0.005
0.284
1.293
1.605
1.024
-1.122
-0.801
-1.214
1.259
1.997
1.676
1.231
0.436
0.052
-1.241
-1.993
0.907
2.049
1.557
0.837
0.201
-0.135
-0.195
-1.329
-3.569
0.156
3.348
4.143
2.418
-0.174
-2.017
-2.499
-2.079
-1.138
0.617
2.413
2.848
2.733
2.108
1.796
1.225
0.695
0.740
0.747
0.174
-0.503
-1.187
-2.113
-2.634
-2.584
-1.425
-0.545
0.126
0.131
-0.022
-0.210
-0.199
0.142
0.427
0.787
1.049
1.290
1.173
1.310
1.326
1.047
0.933
0.604
0.324
0.324
-0.002
-0.155
-0.140
-0.041
-0.235
-0.108
-0.091
-0.070
-0.075
-0.074
-0.055
-0.172
-0.110
0.007
-0.051
0.059
-0.073
-0.094
0.010
-0.176
-0.023
-0.160
-0.255
-0.105
0.042
-0.098
0.009
-0.013
-0.084
0.074
0.225
0.261
0.279
0.086
-0.236
-0.226
-0.206
-0.123
0.044
0.002
-0.061
-0.106
0.043
0.031
0.016
-0.257
-0.304
-0.064
-0.029
0.085
0.157
0.084
0.209
0.095
0.217
0.166
0.149
0.219
0.250
0.157
0.037
0.091
0.013
0.089
0.068
-0.043
0.007
0.152
-0.097
-0.075
-0.045
0.108
0.014
0.068
-0.086
0.098
-0.004
0.019
-0.022
-0.078
0.021
-0.010
-0.008
-0.123
0.068
-0.088
-0.018
-0.116
-0.075
-0.061
-0.033
0.123
-0.133
0.035
-0.045
0.103
-0.102
-0.050
0.066
0.005
-0.052
0.023
0.024
0.105
-0.051
-0.011
-0.055
0.084
0.131
0.207
0.037
0.040
0.019
0.137
0.144
0.056
0.057
0.051
0.084
0.111
0.125
0.037
0.059
0.081
0.031
0.079
-0.071
0.018
0.033
0.149
0.096
-0.009
0.030
-0.022
0.185
0.001
-0.021
0.043
0.090
0.081
-0.013
-0.104
0.014
0.079
-0.008
-0.011
-0.054
-0.003
-0.079
0.051
0.007
0.005
0.072
-0.082
0.046
0.020
0.042
-0.011
-0.016
-0.119
0.071
-0.003
-0.017
-0.054
0.067
0.004
-0.008
-0.074
0.079
-0.022
-0.133
-0.003
0.118
0.124
-0.102
0.013
0.017
0.050
-0.014
0.063
-0.004
0.084
0.050
0.119
0.048
0.071
0.014
-0.032
0.026
-0.001
-0.023
0.104
0.141
0.074
-0.030
-0.052
0.046
-0.081
0.070
0.103
-0.072
-0.055
0.008
0.016
0.050
0.089
-0.004
0.052
-0.033
0.106
-0.043
0.019
-0.047
0.017
0.008
0.059
0.058
-0.045
-0.037
0.127
0.143
0.067
-0.045
-0.078
-0.047
0.047
0.095
0.069
0.053
0.154
-0.024
-0.301
-0.090
0.103
0.208
0.032
-0.090
-0.102
-0.171
0.073
0.185
0.071
-0.100
-0.024
0.122
0.051
-0.056
-0.022
0.108
-0.064
0.081
0.075
0.043
0.006
-0.085
0.016
0.040
-0.044
0.034
0.007
-0.098
0.027
-0.006
0.184
0.113
0.029
0.026
-0.079
0.127
0.054
0.018
-0.032
0.066
0.120
0.004
-0.093
0.055
0.110
-0.052
0.021
0.044
-0.010
0.014
-0.010
0.077
-0.071
0.099
0.066
0.022
0.021
0.040
0.011
0.011
0.036
0.108
0.037
0.018
0.130
-0.052
-0.014
0.164
-0.097
-0.044
0.244
0.106
0.110
0.295
0.229
-0.012
0.038
0.544
0.528
0.299
0.095
-0.239
-0.062
-0.070
0.226
0.117
-0.162
-0.266
-0.091
-0.202
-0.105
-0.264
-0.395
-0.245
-0.259
-0.189
-0.059
0.000
0.054
0.091
0.120
0.001
0.096
0.198
0.195
-0.035
-0.039
0.021
0.402
0.218
0.122
0.127
0.097
0.020
0.064
0.127
0.141
0.121
0.168
0.005
0.089
0.004
0.120
0.010
-0.053
0.034
0.015
-0.051
0.001
-0.070
-0.154
0.085
-0.137
-0.043
-0.055
-0.136
0.014
-0.061
-0.024
0.111
0.093
-0.113
-0.050
-0.161
-0.039
-0.073
-0.094
-0.134
-0.057
0.060
0.176
-0.028
-0.143
0.028
0.025
-0.050
0.034
0.007
0.012
-0.081
0.141
0.074
-0.024
-0.021
0.213
0.031
0.067
0.069
0.032
0.053
0.003
0.030
-0.077
0.187
0.009
0.022
0.094
0.037
0.139
-0.024
0.168
0.019
-0.019
0.055
0.130
0.059
0.084
0.002
0.026
0.055
0.119
0.027
0.182
-0.010
-0.031
0.024
0.041
0.127
0.089
0.025
0.001
-0.039
0.101
0.036
0.007
-0.074
0.002
-0.009
0.004
0.139
0.080
-0.068
-0.015
0.067
-0.009
-0.037
0.121
-0.004
-0.123
0.089
0.051
-0.067
-0.134
0.028
-0.232
-0.287
-0.070
0.000
-0.358
-0.694
-0.139
0.485
0.471
0.512
-0.023
-0.254
-0.042
0.260
0.433
0.284
0.078
0.272
0.247
0.129
0.222
0.180
-0.178
-0.165
-0.106
-0.049
-0.057
-0.031
-0.253
-0.041
-0.012
-0.137
-0.133
-0.057
0.077
0.144
-0.021
-0.011
-0.017
0.011
0.059
-0.036
0.004
0.090
-0.057
-0.142
-0.176
0.022
0.088
0.084
0.090
0.036
-0.038
0.126
0.138
0.213
0.051
-0.025
-0.055
0.087
0.024
0.064
0.128
-0.141
-0.869
-0.393
0.173
0.369
0.529
0.706
0.547
0.145
-0.074
-0.093
-0.032
0.137
-0.101
0.196
0.374
0.283
0.163
0.175
-0.029
-0.101
-0.367
-0.172
-0.108
-0.242
0.087
-0.129
-0.303
0.220
0.184
0.131
0.247
0.203
0.188
-0.049
0.200
-0.046
0.305
0.263
0.172
0.002
-0.131
-0.012
0.098
0.033
-0.041
-0.048
-0.104
-0.123
-0.107
-0.098
-0.056
-0.097
-0.080
-0.089
0.012
-0.012
0.059
-0.178
0.016
0.005
0.077
0.058
0.125
0.013
-0.045
0.050
0.085
0.122
0.066
0.029
-0.090
0.189
0.241
0.127
0.092
0.074
-0.044
-0.083
-0.031
-0.061
0.084
-0.016
0.031
-0.105
-0.078
-0.131
-0.206
-0.144
0.126
0.139
0.040
0.031
-0.056
-0.135
-0.055
0.070
-0.096
-0.011
0.049
0.050
-0.024
-0.029
0.055
-0.105
-0.034
0.005
0.024
-0.157
0.031
0.154
0.059
-0.022
-0.010
0.048
-0.039
0.077
0.032
-0.080
0.003
-0.005
0.046
-0.012
0.058
0.045
0.160
-0.035
0.050
0.003
0.108
0.086
0.094
0.032
0.027
0.129
0.144
0.073
0.069
0.078
0.096
0.032
0.109
-0.060
0.084
0.012
-0.035
-0.026
0.020
0.036
0.086
0.004
0.015
-0.029
0.026
0.093
-0.007
-0.133
-0.020
-0.028
0.011
0.034
0.117
0.015
0.127
0.096
-0.096
0.138
0.007
-0.020
-0.020
0.002
-0.123
-0.191
-0.003
0.092
0.021
0.011
-0.189
-0.015
0.042
-0.233
-0.186
-0.015
0.020
0.228
0.249
0.299
0.115
0.031
-0.191
-0.025
0.064
0.386
0.278
0.131
0.045
-0.005
-0.025
-0.028
0.078
-0.037
0.025
0.062
-0.006
-0.022
-0.111
-0.229
-0.020
0.048
0.084
0.127
0.193
-0.044
-0.073
-0.176
0.015
0.035
-0.000
0.033
0.005
-0.021
-0.021
0.016
0.023
-0.152
-0.074
-0.056
0.041
0.115
0.083
0.006
-0.087
0.054
0.142
0.221
0.000
-0.132
-0.058
0.131
0.211
0.116
0.017
0.003
0.005
0.090
0.222
0.083
-0.063
0.101
0.041
0.051
0.049
0.007
0.137
0.026
0.046
0.163
0.081
0.107
0.118
-0.102
-0.007
0.118
0.092
-0.113
-0.019
0.044
-0.060
-0.111
-0.196
-0.243
0.215
0.845
-0.023
-3.114
-0.738
1.007
1.563
1.620
1.428
0.362
-0.451
-0.589
-0.344
-0.016
0.353
0.502
0.601
0.598
0.025
-3.101
-1.402
1.084
1.360
0.729
-0.191
-0.777
-1.098
-0.883
-0.514
-0.022
0.259
0.726
0.940
0.765
0.756
0.735
0.428
0.376
0.078
-0.014
-0.091
-0.259
-0.170
-0.180
-0.084
-0.265
-0.186
0.026
0.025
0.075
0.094
0.132
0.123
-0.070
0.083
0.178
0.089
0.190
-0.002
0.104
-0.092
-0.001
0.024
0.063
0.083
0.062
0.034
0.111
0.020
0.094
0.101
0.039
0.133
0.046
0.024
0.045
0.112
0.055
0.115
0.013
0.055
0.003
0.076
0.081
0.034
-0.121
0.074
0.033
0.055
0.151
0.055
-0.054
0.076
-0.023
-0.057
0.037
0.001
0.098
0.023
-0.091
0.009
0.081
-0.054
-0.207
0.101
0.022
0.057
-0.009
0.046
0.056
-0.086
0.022
0.867
-0.455
0.002
1.386
1.134
-0.333
-3.034
-1.030
0.741
1.167
0.767
0.415
-0.019
-0.658
-0.567
-0.434
-0.114
0.085
0.033
0.267
1.300
1.762
-1.569
-1.280
-0.555
0.855
2.425
1.880
0.701
-2.299
-1.074
1.289
1.710
1.025
0.272
-2.529
-3.228
0.498
2.080
1.543
0.751
-0.103
-0.699
-1.005
-0.841
0.322
1.648
-0.819
-1.903
0.031
1.280
1.377
1.160
0.816
0.313
0.036
-0.159
-0.350
-0.320
-0.062
-0.090
0.005
0.175
0.120
0.191
0.265
0.200
0.193
0.199
0.224
0.183
0.094
0.194
-0.050
0.097
0.097
0.048
0.084
0.145
0.020
0.043
0.183
-0.043
0.039
0.116
0.074
0.210
0.758
0.981
0.337
-0.097
-0.272
-0.153
0.117
-1.029
-2.328
-0.087
1.081
0.949
0.477
-0.050
-0.559
-0.711
-0.659
-0.352
-0.168
0.087
0.293
0.405
0.392
0.383
0.458
0.204
0.112
0.113
-0.003
-0.090
-0.199
-0.003
-0.117
-0.060
-0.214
-0.060
-0.024
-0.072
-0.030
0.036
-0.060
-0.013
0.020
-0.004
-0.096
0.103
-0.032
0.001
-0.022
-0.056
0.100
-0.115
0.063
0.029
0.101
-0.056
0.074
-0.003
-0.017
-0.032
0.022
0.169
0.061
0.143
-0.066
0.116
0.056
0.083
-0.078
0.009
0.037
0.091
0.003
0.119
0.021
0.004
0.151
0.087
0.093
-0.045
0.073
0.057
-0.007
-0.061
0.109
-0.066
-0.034
0.116
0.053
-0.010
0.170
0.076
0.011
0.133
0.024
-0.042
0.011
0.095
0.002
-0.011
0.066
0.169
1.136
1.083
0.283
-0.137
-0.354
-0.229
-0.154
0.117
0.170
0.090
0.125
-2.247
-1.893
0.493
1.260
0.795
0.162
-0.546
-0.837
-0.639
-0.282
-0.066
0.360
0.571
0.521
0.743
0.573
0.492
0.457
0.483
0.152
0.052
-0.095
-0.216
-0.318
-0.149
-0.304
-0.119
-0.128
-0.084
-0.019
0.040
0.154
-0.065
-0.037
-0.013
-0.072
0.144
0.009
-0.114
-0.016
0.025
0.032
0.022
0.028
-0.064
0.065
-0.005
-0.071
0.016
0.021
0.011
-0.010
0.078
0.173
0.080
0.022
0.007
0.040
0.048
0.056
-0.011
0.102
0.204
0.094
0.106
-0.032
-0.020
-0.127
0.077
0.123
-0.043
-0.040
-0.048
0.044
0.111
0.138
0.051
0.069
0.086
-0.046
0.043
0.050
0.087
-0.064
0.054
0.087
0.046
0.014
-0.100
0.066
0.015
0.120
0.103
0.049
0.218
-0.107
-0.231
-0.024
0.056
-0.050
0.050
0.004
0.134
0.084
-0.007
-0.089
0.005
-0.032
0.024
0.053
-0.035
0.030
0.008
-0.038
0.102
0.059
0.050
0.027
0.034
-0.095
-0.049
0.087
0.057
-0.009
-0.003
0.053
0.027
0.048
-0.087
-0.020
-0.086
0.142
-0.052
0.065
0.044
-0.134
0.103
0.010
0.096
-0.062
0.005
0.031
0.063
-0.043
0.063
0.013
0.044
0.029
0.078
-0.153
0.034
0.117
0.080
-0.058
0.019
0.005
0.033
-0.020
0.027
-0.042
-0.041
-0.013
0.017
-0.002
0.027
0.001
0.230
-0.020
0.063
0.001
0.017
-0.013
-0.046
0.036
0.109
-0.001
-0.053
0.072
0.078
-0.053
0.124
-0.006
0.053
0.004
-0.106
-0.027
-0.040
0.027
0.033
0.015
0.132
0.014
-0.045
0.150
0.053
0.061
0.045
-0.097
0.000
-0.073
0.145
0.143
-0.007
-0.037
-0.044
-0.066
0.002
-0.023
0.097
0.172
-0.073
-0.031
0.076
0.066
0.002
0.022
0.022
0.049
0.105
-0.037
-0.156
0.055
0.173
-0.018
0.004
-0.084
0.035
0.105
0.027
-0.033
-0.012
0.065
-0.033
-0.040
-0.012
0.128
0.080
0.005
0.015
0.074
-0.102
0.032
0.097
0.011
0.059
0.050
0.007
0.096
0.073
-0.004
-0.041
0.018
-0.085
0.109
0.074
-0.030
-0.024
-0.007
0.013
0.040
-0.022
0.008
-0.111
0.113
0.052
0.108
-0.001
-0.076
-0.066
-0.028
0.028
0.006
0.142
0.062
-0.027
-0.002
0.042
0.102
-0.033
-0.048
0.086
0.010
0.076
-0.034
0.088
-0.059
0.006
-0.073
-0.055
0.063
0.118
0.104
0.075
0.057
-0.038
-0.119
0.131
0.039
-0.041
0.015
-0.013
0.043
0.014
-0.028
0.020
-0.007
0.153
-0.039
0.048
-0.067
-0.019
0.067
0.003
0.061
0.038
-0.006
-0.061
0.012
0.003
0.096
-0.019
-0.000
0.127
-0.020
0.026
0.009
-0.006
-0.061
-0.001
-0.066
0.164
0.009
-0.001
-0.036
0.042
0.058
0.146
0.124
0.013
-0.008
0.083
0.098
-0.082
-0.036
0.027
0.046
0.108
-0.178
0.022
0.243
1.356
0.524
-2.137
-0.822
-0.159
0.493
0.565
0.349
0.133
-0.189
-0.205
-0.031
0.885
0.396
-0.810
-1.303
0.474
0.035
-0.025
0.552
0.192
0.245
0.207
0.300
-0.154
-0.643
-0.172
-0.256
-0.240
0.171
0.523
0.606
-0.187
-0.358
-0.019
0.299
0.499
-0.031
-0.185
-0.382
-0.140
0.165
0.118
0.122
-0.005
0.171
0.032
-0.053
-0.061
-0.031
0.163
-0.105
0.056
0.068
-0.012
-0.046
0.091
0.071
0.108
-0.035
-0.033
0.021
0.099
-0.016
-0.111
0.096
0.227
0.104
-0.427
0.077
0.117
0.157
0.121
0.063
0.037
-0.081
-0.027
-0.068
-0.207
0.167
0.304
0.193
-0.032
-0.003
-0.406
-0.081
0.134
0.332
0.171
0.034
-0.044
-0.082
0.001
0.048
0.081
0.133
0.213
0.047
-0.390
-0.145
0.439
-0.065
-0.153
0.026
0.119
-0.011
0.075
0.073
-0.014
-0.025
0.051
0.024
0.079
0.060
0.089
0.104
0.025
0.134
-0.012
0.004
-0.015
0.078
-0.051
0.001
-0.116
0.036
0.041
0.029
-0.064
-0.011
0.049
-0.009
0.169
-0.015
0.169
1.341
-0.707
-0.180
0.890
0.192
-0.092
-0.731
-0.796
-0.372
0.672
-0.788
-1.119
1.259
1.935
1.545
0.682
0.017
-0.342
-2.556
0.818
-2.211
-0.543
2.662
2.951
1.531
0.848
0.982
0.119
-0.846
-1.543
-0.402
0.552
1.143
1.360
1.469
1.373
1.274
0.810
0.579
0.178
-0.283
-0.403
-0.576
-0.708
-0.607
-0.535
-0.341
-0.262
-0.283
-0.209
-0.095
0.108
0.371
0.424
0.321
0.299
0.258
0.316
0.388
0.443
0.520
0.266
0.318
0.447
0.288
0.243
0.424
0.444
0.377
0.290
0.382
0.339
0.252
0.235
0.329
0.223
0.225
0.326
0.119
0.107
0.120
0.260
0.015
-0.019
0.069
0.142
0.007
0.013
0.006
-0.104
-0.085
-0.041
0.006
-0.182
-0.267
-0.150
-0.156
-0.147
-0.217
-0.091
-0.125
-0.208
-0.174
-0.303
-0.247
-0.310
-0.181
-0.166
-0.100
-0.047
-0.240
-0.173
-0.179
-0.134
-0.152
-0.065
-0.122
-0.129
-0.057
-0.004
-0.085
-0.022
0.074
-0.197
-0.102
0.052
0.031
-0.049
-0.026
-0.043
0.027
0.127
0.153
0.042
0.076
0.049
0.160
0.035
0.084
0.017
0.002
0.030
0.001
0.144
0.059
0.151
0.005
0.118
-0.033
0.016
0.030
0.127
-0.023
-0.059
0.133
0.040
0.013
0.061
0.027
0.059
0.064
-0.049
0.016
0.100
-0.181
-0.058
0.163
-0.086
-0.012
0.017
0.197
-0.091
-0.067
-0.014
0.041
0.052
0.014
0.024
0.078
0.171
0.023
-0.075
-0.058
0.125
0.013
0.036
-0.023
0.021
0.083
-0.023
0.055
0.046
-0.035
-0.004
0.034
0.058
0.071
-0.060
-0.009
0.007
0.036
0.023
0.026
-0.093
-0.014
0.054
0.104
-0.104
-0.020
-0.079
0.006
-0.053
0.039
0.007
-0.103
-0.068
-0.008
-0.073
0.000
-0.009
-0.077
-0.015
0.036
-0.040
-0.007
0.028
-0.184
-0.050
-0.043
0.043
0.126
-0.002
-0.091
-0.046
-0.091
-0.129
0.007
0.018
0.092
-0.028
-0.050
0.006
-0.001
0.072
-0.071
0.022
-0.035
-0.083
0.100
0.058
-0.063
0.043
0.052
-0.000
-0.048
-0.025
0.031
0.126
-0.038
0.097
0.009
0.163
0.033
0.006
0.009
0.096
0.058
0.046
0.033
-0.021
0.059
0.006
0.114
0.109
-0.033
-0.024
0.090
0.021
0.068
0.054
0.084
0.092
-0.016
0.052
0.024
0.024
-0.048
-0.046
0.047
0.058
0.062
0.051
-0.027
0.094
-0.005
-0.034
-0.136
0.051
-0.023
0.181
0.043
-0.034
-0.070
0.073
-0.070
0.012
-0.055
0.041
0.095
0.129
0.062
0.008
-0.047
-0.064
0.030
-0.040
-0.256
-0.216
0.059
0.011
-0.172
-0.244
-0.409
-0.266
-0.021
-0.078
-0.778
-0.198
0.156
0.328
0.076
-0.110
-0.052
-0.116
-0.050
0.050
-0.131
0.068
-0.086
-0.238
-0.122
-0.078
0.181
0.031
0.091
-0.022
-0.185
-0.163
-0.113
0.103
0.180
0.063
0.061
0.312
0.424
0.427
0.138
0.155
0.156
0.008
-0.035
-0.071
-0.053
0.136
0.258
0.093
-0.190
-0.314
-0.714
-1.067
-0.142
-0.425
-2.297
-3.469
-0.612
2.977
3.406
2.529
0.850
-0.835
-0.934
-0.859
-0.316
0.403
1.261
1.689
-1.257
-3.618
1.430
3.619
3.705
1.021
-1.635
-2.478
-2.566
-3.437
-2.114
-0.263
0.914
1.715
1.179
0.857
0.000
0.718
0.613
0.163
0.199
0.148
0.286
0.451
0.276
0.432
0.321
0.260
0.422
0.426
0.391
0.213
-0.221
-0.266
0.004
-2.288
-3.816
-4.161
-4.013
-0.979
3.314
3.639
-1.574
-3.376
-3.557
-2.149
0.336
3.088
4.532
4.814
4.266
3.389
3.400
3.846
3.856
3.728
3.527
3.078
0.647
0.357
0.163
0.625
0.893
-0.502
-2.159
-2.988
-3.367
-3.026
-1.530
-0.310
0.727
0.620
0.727
0.887
1.078
1.283
0.592
0.791
0.429
0.429
0.053
-0.319
-1.589
-1.269
-0.503
-0.246
0.160
0.650
0.609
0.663
0.701
0.722
1.216
1.744
1.547
1.178
1.632
2.124
2.504
1.816
1.369
0.995
1.243
1.528
1.909
1.715
1.350
0.998
0.614
0.385
0.448
0.343
0.307
0.352
0.349
0.247
0.242
0.162
0.237
0.033
-0.136
-0.379
-0.476
-0.795
-1.166
-0.978
-0.493
0.426
0.061
-0.328
-0.838
-1.912
-4.046
-3.874
-2.011
-0.346
-0.052
0.977
1.399
0.238
-0.675
-1.589
-2.263
-0.668
0.691
1.367
1.452
1.586
1.206
1.151
0.989
-0.568
-0.260
0.476
-0.654
-0.967
-1.562
-1.718
-1.581
-0.910
-1.297
-2.911
-2.338
2.492
3.910
1.572
-0.666
-0.790
0.578
1.073
1.582
1.527
1.550
1.790
3.053
2.457
1.557
0.706
-0.292
-0.678
-0.643
-0.671
-0.345
-0.366
-0.534
-0.785
-0.835
-0.822
-0.636
-0.803
-0.705
-0.514
-0.539
-0.085
0.186
0.228
-0.060
0.046
0.132
0.546
0.600
0.687
0.559
0.529
0.353
0.377
0.482
0.543
0.550
0.529
0.696
0.942
0.858
0.654
0.581
0.715
0.753
0.728
0.763
0.768
0.644
0.505
0.597
0.365
0.344
0.462
0.328
0.259
0.185
0.111
-0.098
-0.107
-0.270
-0.504
-0.203
0.153
-0.030
-0.182
-0.172
-0.337
-0.444
-0.098
-0.457
-0.725
-0.580
-0.241
-0.148
-0.212
-0.451
-0.346
-0.317
-0.167
-0.306
-0.127
-0.335
-0.267
-0.166
-0.239
-0.331
-0.376
-0.381
-0.308
-0.170
-0.200
-0.299
-0.330
-0.327
-0.289
-0.550
-0.374
-0.914
-1.224
-1.229
-0.626
-0.177
-0.275
-0.508
-0.502
-0.457
0.561
0.936
0.592
0.133
0.135
0.338
0.463
0.542
0.594
0.619
0.465
0.600
0.509
0.439
0.258
0.168
-0.208
-0.383
-0.337
-0.196
-0.357
-0.413
-0.153
-0.091
-0.064
-0.199
-0.012
0.087
0.084
-0.036
0.170
0.154
-0.176
0.011
-0.036
0.060
0.093
0.030
-0.057
0.106
0.058
0.121
0.214
0.114
0.182
0.254
0.244
0.201
0.299
-0.008
0.101
0.164
0.107
0.182
0.130
0.276
0.187
0.100
-0.075
-0.129
0.018
0.021
0.109
-0.114
-0.056
-0.078
-0.181
-0.286
-0.220
0.022
0.076
0.074
-0.037
-0.274
-0.237
-0.023
-0.087
-0.072
-0.020
0.077
-0.038
-0.464
-0.410
-0.145
-0.035
-0.171
0.105
0.214
-0.047
-0.011
0.079
-0.074
-0.208
-0.197
0.018
0.115
0.001
0.147
0.509
0.610
0.160
0.020
-0.233
-0.143
-0.142
-0.082
0.010
-0.389
-0.778
-0.705
-0.419
-0.224
-0.074
-0.526
-0.411
-0.300
-0.372
0.031
0.148
0.354
0.278
0.258
0.178
0.145
0.323
0.816
1.015
0.716
0.495
0.331
-0.356
-0.331
-0.260
-0.047
0.003
0.095
0.231
-0.133
-0.363
-0.272
0.075
-0.165
-0.611
-0.321
0.050
0.238
0.219
-0.537
-0.477
0.091
0.327
0.231
-0.065
-0.561
-0.449
0.273
0.607
0.993
0.802
0.460
0.221
0.074
0.102
0.268
0.451
0.735
0.514
0.289
-0.083
-0.451
-0.603
-0.304
-0.235
-0.299
-0.385
-0.163
-0.236
-0.238
-0.141
-0.302
0.055
0.420
0.053
0.252
-1.535
-1.369
-1.961
1.895
2.725
2.105
0.609
-0.400
-0.701
-0.641
-0.192
0.186
0.592
0.990
1.085
1.017
0.767
0.284
0.322
0.221
0.056
-0.442
-0.604
-0.371
-0.576
-0.655
-2.706
-1.656
1.285
1.790
1.028
-2.549
-3.803
-4.018
-0.458
2.952
4.377
4.767
4.147
0.975
-1.916
-2.526
-0.931
1.353
3.442
4.148
4.242
4.136
3.977
3.078
1.658
0.453
-0.696
-1.656
-2.332
-2.497
-2.597
-1.977
-1.460
-1.074
-0.687
-0.675
-0.145
0.141
0.454
0.548
0.520
0.494
0.563
0.433
0.587
0.430
0.335
0.260
-2.222
-0.090
2.270
2.131
1.171
0.514
0.111
0.084
0.263
0.614
0.830
0.979
0.922
1.086
0.839
0.741
0.572
0.145
-0.758
-2.803
-3.708
-3.911
-3.841
-2.150
3.102
4.658
2.401
-1.283
-3.226
-3.428
-2.594
-1.394
2.094
4.130
4.585
4.538
4.317
4.084
3.792
3.204
2.415
1.344
0.565
0.086
0.769
0.715
-0.453
-1.349
-1.949
-1.856
-1.594
-1.081
-0.861
-0.394
-0.318
-0.445
-0.518
-0.696
-1.075
-1.820
-4.059
-1.516
2.706
4.038
4.311
1.644
-1.723
-3.151
-3.152
-3.410
-1.016
2.432
3.060
-0.268
3.369
3.920
3.011
3.085
2.437
1.106
-0.098
-0.775
-0.615
0.362
1.217
0.568
0.730
2.884
2.981
0.525
1.745
2.406
2.247
1.623
2.409
-0.826
-1.192
-0.571
0.058
0.272
0.228
0.204
0.082
-0.109
0.003
0.046
-0.010
0.039
-0.123
-0.035
-0.182
-0.331
-0.327
-0.325
-0.247
-0.353
-0.424
-0.396
-0.542
-0.436
-0.529
-0.364
-0.269
-0.449
-0.199
-0.374
-0.279
-0.191
-0.293
-0.254
-0.118
-0.106
-0.188
-0.181
-0.088
-0.042
-0.077
-0.117
-0.137
-0.030
-0.099
0.049
0.084
0.023
0.112
0.057
0.052
0.107
0.050
0.087
0.143
0.091
0.149
0.034
0.038
0.123
0.126
0.103
0.087
0.026
0.009
0.052
-0.020
0.055
0.096
0.041
-0.001
-0.028
0.047
-0.061
-0.047
-0.067
-0.111
0.041
-0.124
-0.009
-0.002
0.077
-0.107
-0.074
-0.057
-0.103
0.024
0.124
0.046
0.048
-0.027
-0.008
0.068
-0.173
0.144
0.162
0.005
-0.018
0.067
0.173
0.038
0.031
0.092
0.139
0.255
0.129
0.133
0.177
0.269
0.154
0.108
0.261
0.268
0.138
0.209
0.359
0.157
0.116
0.137
0.199
0.186
0.183
0.105
0.035
0.077
0.023
0.201
0.063
0.170
-0.005
-0.163
-0.081
-0.002
0.092
0.134
0.323
1.230
1.636
0.806
0.392
-0.092
-0.253
-0.009
0.200
0.352
0.312
0.169
-0.057
-0.496
-0.474
-0.505
-0.998
-3.348
-4.016
-0.517
2.265
2.153
0.389
-0.950
-1.478
-1.340
-0.734
-3.102
-3.198
-0.344
2.577
3.043
2.895
1.666
-1.534
-1.647
-0.519
0.432
1.038
1.648
2.084
1.919
1.244
0.878
1.109
0.945
0.288
-2.635
-2.063
0.174
1.410
1.475
1.143
-1.787
-2.629
-1.994
-1.112
0.111
0.601
0.961
1.393
1.152
0.949
0.757
0.484
0.419
0.460
0.221
0.241
0.194
-0.071
-0.234
-0.474
-0.469
-0.507
-0.546
-0.517
-0.503
-0.428
-0.270
-0.195
-0.056
-0.012
0.005
0.075
0.284
0.149
0.132
-0.040
-0.574
-0.042
-0.568
-1.651
-3.074
0.033
3.315
4.434
2.657
-0.339
-0.984
-0.930
-0.526
-2.708
-2.086
2.257
3.881
3.491
1.995
0.633
-0.320
-0.353
0.294
-0.455
-1.137
-1.195
0.105
0.657
0.708
0.488
0.535
0.331
-0.018
-1.005
-0.497
-0.298
-0.429
-0.463
-0.505
-0.752
-0.778
-0.611
-0.281
-0.142
-0.082
-0.228
-0.010
0.107
0.180
0.304
0.387
0.256
0.322
0.294
0.313
0.543
0.451
0.237
0.253
0.284
0.336
0.537
0.568
0.416
0.376
0.397
0.295
0.326
0.259
0.214
0.106
0.289
0.579
0.285
-0.098
-0.154
0.127
0.105
0.216
0.029
-0.145
-0.248
-0.325
-0.177
-0.087
-0.001
-0.070
-0.176
-0.172
-0.150
-0.160
-0.080
-0.184
-0.189
0.167
0.106
-0.093
-0.266
-0.114
-0.180
-0.008
-0.033
0.097
-0.086
-0.010
0.014
-0.142
-0.239
-0.124
-0.070
-0.215
-0.130
0.007
-0.052
-0.213
-0.060
-0.039
-0.074
-0.137
0.119
0.090
0.250
0.232
-0.116
-0.033
-0.019
0.039
0.137
0.142
0.176
0.120
0.054
-0.001
0.233
0.001
0.078
0.050
0.075
0.044
0.039
0.110
0.164
0.089
0.156
-0.072
-0.019
0.126
-0.101
-0.116
0.143
0.475
0.120
-0.136
-0.084
-0.029
-0.133
0.039
0.103
0.019
-0.192
0.021
0.320
0.050
0.070
-0.040
-0.233
-0.224
-0.133
0.218
0.158
0.042
0.164
0.035
0.084
-0.050
-0.067
0.008
0.010
0.050
0.067
0.018
0.167
0.160
0.057
0.073
-0.021
-0.072
0.028
-0.094
0.119
0.101
0.027
0.076
-0.414
-0.302
-0.072
-0.333
0.078
0.158
0.108
0.225
0.033
-0.072
-0.140
0.075
0.033
0.145
0.231
0.192
0.293
0.155
0.135
0.097
0.067
0.051
-0.080
-0.120
-0.092
0.040
0.070
0.010
-0.025
-0.137
-0.068
-0.099
-0.035
-0.031
0.087
-0.016
0.023
0.032
0.039
-0.083
0.021
0.044
-0.066
-0.018
0.037
-0.006
-0.110
-0.098
0.046
0.055
0.117
0.054
0.080
0.149
-0.107
-1.303
0.428
0.891
-0.909
-0.466
0.752
0.927
-0.470
0.287
1.014
-0.127
-0.942
0.291
0.583
0.222
0.789
0.697
-0.245
-1.978
0.971
-0.131
-0.550
0.203
0.380
0.318
0.026
0.672
-0.943
-0.639
1.076
1.734
1.173
0.639
0.210
-2.555
-1.787
1.152
1.776
1.449
0.683
-0.232
-0.820
-1.163
-1.036
-0.163
0.536
-1.232
-0.205
1.706
-0.013
0.296
0.637
0.747
0.451
0.126
-0.476
-0.188
0.004
-0.091
-0.054
-0.085
-0.111
-0.011
0.038
-0.044
0.162
0.219
0.087
0.162
0.242
0.247
0.193
0.215
0.112
-0.003
0.114
0.052
0.075
0.086
-0.009
0.133
0.146
-0.062
0.105
0.124
0.306
0.716
0.119
-0.185
-0.380
-1.023
-0.206
0.645
1.025
0.440
-0.887
-0.792
-0.132
0.784
-0.163
-0.472
-0.079
0.610
0.531
0.119
-0.163
-0.307
0.024
-0.066
0.098
-0.123
-0.290
0.219
0.552
0.404
-0.018
-0.358
-0.443
-0.236
-0.143
0.100
0.054
-0.066
0.130
0.105
0.042
-0.049
-0.008
0.064
0.018
-0.001
-0.075
-0.149
0.068
0.001
-0.044
-0.107
0.201
-0.105
-0.241
-0.041
0.892
1.925
1.259
-2.725
-0.871
1.787
-0.385
1.076
2.241
1.378
-0.250
-0.679
-1.486
-3.320
-0.341
1.563
1.813
1.145
0.527
-0.130
-0.980
0.023
0.815
1.049
-1.014
-2.715
0.368
2.983
3.409
2.394
0.967
-0.221
-0.799
-0.279
-2.165
-3.036
1.872
3.291
2.511
2.313
1.178
-0.530
-1.279
-1.369
-1.008
-0.237
1.075
1.653
1.849
1.796
1.315
0.951
0.628
-0.169
-3.270
-2.487
2.404
3.956
2.627
0.348
-1.759
-2.606
-2.312
-1.384
-0.003
0.906
1.781
2.267
2.444
2.477
2.061
1.690
1.090
0.738
0.253
-0.148
-0.281
-0.415
-0.309
-0.296
-0.183
-0.102
0.006
0.002
0.259
0.228
0.357
0.385
0.392
0.234
0.090
0.214
0.238
0.197
0.113
0.086
0.063
0.139
0.109
0.244
0.447
1.603
1.697
0.854
0.477
0.123
0.182
0.285
0.504
0.509
0.419
0.407
0.228
0.085
-0.066
-0.391
-0.662
-0.517
-0.603
-0.689
-0.600
-0.557
-0.485
-0.268
0.044
-0.009
-0.322
-0.432
-0.478
-0.510
-0.501
-1.800
-3.453
-3.822
-3.851
-0.871
2.646
3.653
2.505
0.502
-0.824
-1.145
-0.732
0.282
1.348
2.148
2.703
2.890
2.654
2.164
1.689
1.012
0.144
-0.247
-0.698
-1.051
-1.197
-1.253
-1.100
-1.040
-0.923
-0.909
-0.655
-0.513
-0.441
-0.310
-0.162
-0.284
-0.456
-0.297
-0.235
-0.381
-0.276
-0.218
-0.264
-0.122
-0.035
-0.167
0.016
-0.101
0.112
0.199
0.065
0.190
0.235
0.277
0.240
0.321
0.201
0.301
0.476
0.885
1.351
1.184
0.494
0.991
1.185
0.925
0.630
0.554
0.617
0.673
0.831
0.583
0.550
0.411
0.190
0.119
-0.065
-0.176
-0.288
-0.236
-0.271
-0.265
-0.217
0.023
-0.015
0.104
0.177
-0.037
0.083
0.082
0.186
0.233
0.268
0.238
0.069
0.083
0.107
0.073
-0.018
0.118
0.104
0.010
-0.089
0.245
0.072
0.096
0.046
0.010
0.047
0.179
0.019
0.029
-0.027
0.050
0.114
-0.012
0.006
0.004
-0.045
0.004
0.050
0.039
0.023
0.039
0.091
-0.167
-0.028
-0.032
0.017
-0.182
-0.143
-0.130
-0.088
-0.150
-0.118
-0.118
-0.100
-0.137
-0.223
-0.073
-0.124
-0.243
-0.133
-0.067
-0.003
-0.074
-0.063
-0.202
0.051
-0.156
-0.001
-0.160
-0.038
-0.192
0.013
-0.053
-0.052
-0.074
0.017
-0.091
0.121
0.021
-0.024
-0.100
-0.013
-0.023
0.095
0.035
0.090
0.001
0.128
0.102
-0.018
-0.026
0.039
-0.029
0.074
0.120
-0.086
0.059
0.143
0.044
-0.035
0.095
0.073
-0.149
0.073
0.130
0.156
0.059
0.061
0.025
-0.093
0.057
0.069
0.210
0.106
-0.028
0.028
0.069
-0.004
0.058
0.072
0.012
0.087
0.025
0.151
-0.071
-0.067
0.030
0.063
-0.061
0.019
0.005
0.032
0.007
-0.076
-0.035
-0.115
0.050
-0.053
-0.015
-0.014
0.040
-0.053
0.016
0.022
-0.159
-0.087
-0.064
-0.027
0.010
0.056
-0.061
-0.060
-0.129
-0.012
-0.125
0.029
0.015
-0.033
-0.071
0.011
0.013
-0.168
-0.103
-0.096
-0.030
-0.152
0.046
0.021
-0.023
0.035
-0.126
-0.040
0.040
-0.049
0.014
0.079
-0.048
-0.048
-0.102
-0.078
-0.097
0.181
0.076
-0.067
-0.057
0.007
-0.069
-0.081
-0.031
0.051
0.038
-0.033
0.224
0.053
-0.004
0.104
-0.174
-0.106
0.145
0.100
0.040
0.117
0.200
0.154
0.194
0.128
0.043
-0.100
0.031
0.033
0.020
-0.071
-0.113
-0.681
-0.902
-1.802
-1.593
-1.566
-3.180
-3.852
-3.920
-3.140
-3.403
-3.485
-3.422
2.508
4.761
5.320
2.808
-1.885
-3.382
-3.583
-0.029
3.559
4.564
4.685
4.519
4.274
4.025
3.738
3.487
2.789
0.719
-1.358
-3.184
-4.186
-4.747
-4.634
-3.972
-3.118
-2.339
-1.344
-0.607
-0.369
-0.010
0.245
0.184
-0.022
0.076
-0.022
-0.140
-0.118
-0.210
-0.173
-0.189
-0.142
0.000
-0.148
-0.101
0.150
0.189
0.663
0.471
0.396
0.532
0.537
0.544
0.604
0.530
0.419
0.621
0.648
0.488
0.514
0.518
0.534
0.530
0.528
0.522
0.443
0.520
0.542
0.450
0.700
0.613
0.480
0.230
0.230
0.261
0.439
0.706
0.609
0.306
0.055
0.062
-0.173
0.064
0.034
-0.044
-0.115
-0.168
-0.250
-0.211
-0.478
-0.457
-0.280
-0.269
-0.317
-0.352
-0.283
-0.428
-0.189
-0.085
0.146
-0.223
-0.170
-0.070
0.065
0.058
-0.035
-0.305
-0.336
-0.316
0.079
0.251
-0.075
-0.223
-0.301
-0.162
-0.170
-0.212
-0.018
0.117
-0.020
-0.134
0.084
-0.009
0.157
0.265
0.234
0.284
-0.007
0.165
0.107
0.125
0.422
0.314
0.150
-0.049
0.021
-0.091
0.008
0.012
0.036
0.031
-0.071
-0.273
-0.197
-0.086
-0.069
-0.068
-0.219
-0.430
-0.287
-0.121
-0.092
-0.022
-0.085
0.089
0.148
0.144
-0.006
-0.142
-0.136
-0.007
0.041
0.053
0.213
0.147
0.156
0.101
0.001
0.064
-0.001
-0.045
0.104
0.088
0.038
-0.040
0.052
0.082
0.128
-0.012
0.087
0.095
0.159
0.078
0.022
0.084
0.223
0.221
0.231
0.043
0.103
0.156
0.128
0.039
0.158
0.142
0.044
0.084
0.066
0.074
0.115
0.027
0.012
0.113
-0.076
-0.113
-0.056
-0.017
-0.082
-0.018
-0.170
-0.164
-0.052
0.007
0.032
-0.119
0.023
-0.382
-0.663
-0.683
-0.431
-0.085
-0.354
-0.189
-0.024
0.132
0.317
0.087
-0.238
0.083
-0.148
-0.109
0.291
0.439
0.351
0.197
0.171
0.448
0.313
0.180
0.090
-0.108
-0.133
-0.284
-0.136
-0.315
-0.008
-0.114
-0.148
-0.044
-0.032
-0.152
-0.066
0.020
-0.080
-0.064
0.229
0.082
0.036
-0.110
0.061
0.058
0.155
0.190
0.102
0.076
0.261
0.145
0.001
-0.010
0.181
0.117
0.172
0.238
0.172
0.064
0.151
0.231
0.210
0.047
0.054
0.109
0.048
0.195
0.185
0.158
0.235
-0.066
-0.034
-0.042
-0.067
0.171
0.144
0.054
0.096
0.078
-0.011
0.042
-0.004
-0.044
0.069
0.083
0.020
-0.073
-0.109
-0.014
0.175
0.154
0.080
-0.149
-0.062
-0.127
-0.126
-0.059
-0.020
-0.036
-0.081
0.098
-0.078
-0.077
-0.084
-0.204
-0.067
-0.001
-0.169
-0.186
0.052
0.092
-0.054
0.127
-0.094
0.133
0.037
0.120
0.050
0.074
0.098
-0.045
-0.004
-0.077
0.093
0.110
0.084
0.098
-0.057
0.118
-0.120
-0.073
0.025
0.123
-0.100
0.161
0.032
-0.052
-0.085
-0.108
0.137
0.095
0.115
0.105
0.054
-0.012
-0.027
0.206
0.150
-0.238
-0.059
0.066
0.078
0.153
0.074
0.070
0.076
0.081
-0.070
-0.140
-0.022
0.128
-0.046
0.067
0.045
0.117
0.008
-0.059
-0.034
-0.029
0.115
0.004
-0.010
-0.079
0.033
-0.084
0.008
0.044
0.043
-0.132
-0.943
0.555
0.950
0.416
-0.088
-0.422
-0.342
-0.067
0.107
0.197
0.050
0.080
0.073
0.011
0.036
0.015
0.079
0.061
-0.054
-0.232
0.037
0.089
0.093
-0.040
-0.046
-0.050
0.096
0.116
0.045
0.044
-0.071
0.151
0.010
0.041
0.082
0.021
-0.021
-0.015
-0.022
0.026
0.007
-0.011
0.210
0.092
0.061
-0.051
-0.102
-0.112
0.006
-0.014
-0.063
0.010
-0.023
0.074
0.331
0.520
0.454
-0.022
-0.169
-0.107
-0.316
-0.052
0.078
0.156
0.513
0.425
-0.309
-0.452
-0.355
-0.173
0.116
0.104
-0.154
-0.649
-0.555
-0.178
0.057
0.264
-0.101
-0.027
0.247
0.285
0.164
-0.006
0.133
0.069
0.119
0.241
0.120
0.411
0.485
0.124
0.189
0.058
-0.034
-0.153
0.021
-0.033
-0.030
0.046
-0.095
-0.058
-0.040
0.004
0.014
0.102
-0.225
-0.169
-0.070
-0.023
0.100
-0.045
0.144
-0.065
-0.172
0.009
-0.044
-0.069
0.128
0.157
0.011
-0.111
-0.082
-0.144
0.032
0.094
-0.015
0.125
-0.104
-0.073
0.017
0.044
0.146
0.032
0.047
-0.011
0.149
0.112
-0.007
0.075
-0.083
0.154
0.123
-1.510
-0.437
0.515
0.982
0.780
0.655
0.168
-0.279
-1.692
-1.174
0.216
0.873
0.889
0.699
0.782
0.715
-0.408
-0.423
-0.010
-0.375
-0.129
0.276
0.133
0.242
0.047
-0.380
-0.214
-0.088
-0.087
-0.068
0.036
-0.063
-0.157
-0.098
-0.218
-0.167
0.124
0.019
0.180
0.193
0.043
0.045
0.255
0.126
0.010
-0.026
0.046
0.121
0.210
0.043
0.209
-0.214
-0.174
-0.181
0.014
0.101
0.162
0.041
-0.074
-0.035
-0.151
0.113
-0.057
-0.155
0.084
0.177
0.062
-0.006
0.129
0.076
0.012
-0.014
0.119
0.088
0.010
0.035
-0.047
0.075
-0.026
-0.116
0.114
0.065
-0.034
0.043
0.022
0.024
0.007
0.098
0.181
0.215
0.068
-0.090
0.040
-0.110
-0.006
-0.032
0.155
0.114
0.043
-0.082
-0.175
-0.019
0.052
-0.017
-0.175
-0.098
0.061
-0.027
-0.094
0.210
0.049
0.005
0.064
-0.024
0.122
0.143
0.047
0.027
0.028
0.126
-0.018
-0.007
0.039
0.083
0.069
0.069
-0.090
0.084
0.094
-0.011
0.032
0.055
0.078
-0.085
0.069
0.109
0.111
-0.137
0.138
0.014
-0.118
0.019
0.077
0.044
-0.023
-0.035
-0.023
-0.016
0.042
0.014
0.022
-0.055
0.178
-0.073
0.058
-0.059
0.039
0.017
-0.059
0.148
0.036
0.054
0.001
0.019
0.095
0.174
-0.147
0.021
-0.080
0.016
0.070
0.104
-0.011
-0.025
-0.035
-0.142
0.021
0.094
0.114
0.061
-0.049
0.015
0.052
0.034
0.154
-0.100
-0.022
0.027
-0.048
0.049
0.116
0.143
0.095
-0.033
0.052
-0.037
-0.022
0.050
0.048
-0.005
-0.007
0.052
-0.072
0.034
0.024
0.069
0.099
0.060
0.117
0.050
-0.111
0.008
-0.040
-0.071
-0.013
0.003
0.050
0.129
0.110
-0.054
0.168
-0.055
-0.110
-0.035
0.126
0.094
0.101
-0.038
0.069
0.009
0.039
0.086
0.015
-0.090
0.014
-0.034
0.003
-0.012
-0.008
0.071
-0.006
-0.032
0.130
0.029
-0.095
-0.069
-0.065
0.055
0.245
0.171
0.074
-0.136
-0.060
-0.103
0.088
0.157
-0.012
0.124
-0.071
-0.051
-0.034
0.025
0.121
-0.020
-0.012
-0.020
-0.015
-0.004
0.019
0.006
0.099
0.023
0.010
-0.045
-0.026
0.128
0.100
0.037
-0.008
0.000
-0.030
-0.049
-0.005
0.067
0.146
0.019
0.039
-0.018
0.060
-0.004
-0.077
0.023
-0.030
0.108
0.003
0.039
0.076
0.020
0.025
0.009
-0.010
0.027
0.066
0.037
0.046
-0.058
0.078
-0.066
-0.026
-0.058
0.105
0.042
-0.046
0.044
0.021
-0.012
-0.013
0.108
0.107
0.176
-0.000
0.020
0.039
0.009
-0.011
-0.019
0.047
-0.066
0.059
0.059
0.082
-0.005
-0.079
-0.154
0.203
-0.216
-0.061
0.041
0.117
0.097
-0.026
-0.014
0.024
0.046
0.026
-0.085
0.052
0.169
0.044
0.026
0.052
-0.039
0.030
0.087
-0.094
0.016
-0.004
-0.114
0.065
0.019
0.109
-0.005
-0.080
0.028
-0.008
-0.039
0.070
0.056
0.068
0.092
-0.044
-0.010
0.021
0.160
-0.078
0.014
0.078
0.099
-0.089
0.018
-0.000
0.061
0.065
0.020
0.077
-0.013
-0.072
0.029
0.080
-0.174
0.086
-0.041
0.045
-0.012
-0.001
-0.041
-0.041
-0.022
0.061
-0.080
0.006
0.056
0.172
0.031
0.048
0.056
0.040
-0.010
0.029
-0.015
0.011
0.077
0.005
-0.024
-0.001
-0.004
-0.054
-0.041
0.043
-0.103
0.007
0.073
0.010
0.183
0.050
0.025
-0.021
-0.047
0.100
-0.034
-0.024
0.072
0.006
0.076
-0.008
0.087
-0.014
0.076
0.010
0.067
-0.047
0.030
0.038
-0.020
0.032
0.060
0.086
-0.034
-0.023
0.050
-0.070
0.007
0.017
-0.009
0.022
-0.042
0.057
0.050
-0.020
-0.001
-0.048
0.036
0.209
-0.003
-0.152
-0.004
0.059
0.057
0.030
-0.018
0.011
0.135
0.055
0.071
-0.034
0.112
0.025
0.093
0.020
-0.028
0.090
0.008
0.008
0.028
0.090
0.052
-0.041
-0.082
-0.024
-0.026
0.071
0.036
0.056
-0.049
0.151
0.238
0.073
-0.104
-0.065
-0.081
0.139
-0.068
0.050
-0.056
-0.035
0.039
-0.106
0.084
0.030
0.110
0.006
0.093
-0.129
-0.067
0.023
0.207
-0.070
0.072
-0.044
0.025
0.078
-0.023
0.007
-0.059
0.019
0.004
-0.024
-0.037
0.139
0.119
-0.028
-0.008
-0.129
-0.002
-0.014
0.105
-0.024
-0.074
-0.069
0.109
-0.009
-0.014
0.015
0.026
-0.054
0.052
0.020
0.024
0.076
-0.053
-0.008
0.040
-0.058
-0.002
0.004
0.024
-0.013
0.029
0.074
-0.048
-0.084
0.036
-0.068
0.062
0.094
-0.025
-0.006
0.001
0.004
-0.072
0.059
0.010
0.097
0.023
0.030
0.091
0.047
-0.031
0.059
0.011
-0.062
0.036
-0.005
-0.126
0.083
0.066
0.024
-0.048
0.061
-0.060
0.004
0.061
0.004
0.022
0.011
0.089
-0.000
0.052
0.100
-0.089
-0.105
0.115
0.039
0.065
0.022
0.109
0.074
0.085
0.055
0.154
-0.084
-0.148
0.043
-0.049
0.028
0.054
0.014
-0.060
0.092
0.103
0.021
-0.015
-0.077
0.054
-0.011
-0.021
0.078
0.024
0.138
0.085
-0.066
0.088
0.051
-0.015
-0.041
0.103
0.041
-0.003
0.072
0.035
0.036
-0.005
-0.101
-0.084
0.015
-0.014
0.109
0.087
-0.146
-0.016
0.148
0.050
0.043
-0.033
0.090
-0.085
0.038
0.068
0.080
-0.001
0.011
-0.009
-0.106
0.033
0.070
0.008
0.010
0.116
-0.033
-0.020
0.139
-0.014
-0.021
-0.022
0.000
0.020
0.239
-0.095
-0.019
0.012
-0.058
0.054
0.068
0.075
0.042
-0.073
0.033
-0.070
0.023
0.026
-0.015
0.068
0.069
-0.045
-0.009
0.028
-0.056
-0.003
-0.012
0.036
0.020
0.056
-0.049
0.092
-0.003
-0.047
0.081
0.085
-0.047
-0.095
-0.018
0.105
0.093
0.067
-0.046
0.028
0.009
-0.040
-0.027
-0.015
0.088
0.063
-0.053
0.045
0.045
0.053
0.047
0.105
-0.106
0.021
-0.041
-0.065
0.082
0.048
-0.021
-0.013
0.024
0.081
-0.055
0.027
-0.046
0.026
0.130
-0.036
0.054
0.021
0.192
-0.029
-0.020
0.012
-0.012
0.018
0.047
0.095
0.001
0.047
-0.036
-0.062
0.091
-0.103
-0.022
-0.011
0.028
0.037
0.030
-0.021
0.050
0.022
0.065
0.035
0.080
-0.028
-0.109
0.192
-0.054
0.032
0.003
0.116
0.004
0.111
0.004
0.046
-0.059
0.013
0.025
0.013
0.016
0.129
-0.025
-0.011
0.075
-0.001
0.068
-0.024
0.048
0.125
-0.002
-0.018
-0.035
0.122
0.056
0.004
0.022
-0.098
0.038
-0.020
0.013
0.009
0.046
0.029
0.033
0.010
0.013
-0.011
0.132
-0.053
-0.064
-0.044
-0.046
0.029
0.133
0.024
0.017
0.058
0.009
0.006
-0.056
-0.087
0.090
0.005
0.057
0.172
0.031
0.067
0.003
-0.047
-0.010
0.031
0.049
0.007
0.085
0.033
0.068
-0.016
0.009
-0.075
-0.016
0.078
0.061
0.050
-0.023
-0.051
-0.015
0.123
-0.007
-0.022
-0.009
0.021
-0.019
-0.090
0.101
0.088
0.047
0.098
0.043
-0.060
-0.048
-0.070
0.042
-0.044
0.051
0.049
0.027
-0.043
-0.065
0.088
0.082
-0.103
-0.029
0.032
0.035
0.040
-0.001
0.042
-0.031
0.078
0.014
0.075
-0.018
0.006
-0.067
0.100
0.067
0.080
-0.050
-0.065
0.066
0.023
-0.033
0.104
0.018
0.076
0.100
-0.141
-0.028
0.121
0.060
0.101
-0.016
0.023
0.026
0.005
-0.059
-0.093
0.095
-0.038
-0.068
-0.026
0.120
-0.069
-0.007
0.087
0.065
0.037
-0.189
0.046
0.076
-0.014
-0.042
0.152
0.103
-0.029
-0.003
0.045
0.123
-0.029
-0.048
0.127
0.061
-0.065
0.131
0.087
0.015
-0.048
0.023
-0.074
0.075
0.092
0.034
-0.024
0.124
-0.028
-0.014
0.053
-0.046
0.000
0.045
-0.057
0.100
0.106
-0.015
0.002
0.090
-0.040
-0.021
0.043
0.061
0.031
-0.026
-0.059
0.150
0.061
0.014
0.024
-0.012
0.046
-0.066
0.165
-0.038
0.064
0.108
-0.088
-0.036
0.025
0.026
0.024
0.069
0.173
0.036
-0.123
-0.041
0.038
0.009
0.045
0.014
0.092
-0.055
0.019
0.008
0.017
0.009
0.181
0.053
-0.032
-0.031
-0.037
-0.045
-0.013
-0.059
0.037
0.022
0.095
-0.001
0.064
0.008
-0.011
-0.067
0.053
0.024
0.102
0.022
0.089
-0.049
0.071
0.124
0.036
-0.084
0.112
0.050
0.042
-0.051
-0.014
0.031
0.044
-0.011
0.073
0.004
0.054
0.064
-0.049
0.002
0.055
-0.025
0.062
0.038
0.024
0.039
-0.048
0.057
0.068
-0.025
0.060
-0.093
0.094
0.052
0.008
-0.000
0.078
0.057
0.070
0.021
0.027
0.006
0.110
-0.045
-0.003
-0.069
0.075
0.008
-0.069
0.055
-0.015
0.028
-0.050
0.075
-0.013
-0.014
0.029
0.007
0.036
0.041
0.107
-0.007
0.067
0.048
0.020
-0.040
0.084
-0.010
-0.025
0.002
0.097
0.031
0.065
0.052
0.048
-0.082
-0.017
0.095
-0.005
0.076
0.031
0.060
0.018
0.037
-0.041
-0.054
0.128
-0.062
-0.018
-0.025
0.018
0.085
-0.120
0.022
0.037
0.011
-0.051
-0.021
-0.040
0.089
0.089
0.041
-0.084
0.084
0.008
0.008
0.024
0.109
-0.074
0.004
0.203
-0.085
-0.020
0.003
-0.028
-0.128
0.095
0.058
0.060
0.005
-0.103
0.092
0.024
0.070
0.102
-0.029
0.064
0.032
-0.002
0.010
0.022
-0.036
-0.075
0.147
0.113
0.025
-0.028
-0.098
0.009
0.070
0.053
-0.040
0.052
0.108
0.108
0.060
-0.148
0.159
0.009
0.064
0.034
0.023
0.009
-0.095
-0.122
0.080
0.069
0.006
-0.023
0.071
-0.053
0.073
-0.009
0.149
-0.001
-0.092
0.007
0.044
0.128
0.004
0.057
0.024
0.048
-0.070
0.008
0.075
-0.002
-0.061
0.178
0.054
0.074
-0.092
-0.118
0.043
0.156
0.005
-0.056
0.121
0.077
0.080
-0.022
-0.078
0.126
-0.011
0.149
0.029
-0.042
-0.010
0.100
-0.051
0.052
-0.017
-0.011
0.088
0.035
0.133
-0.057
0.022
0.037
0.059
0.059
-0.001
0.017
-0.011
0.105
-0.038
0.085
0.018
0.091
-0.034
-0.025
0.068
-0.052
0.097
-0.031
0.037
-0.063
-0.034
0.044
0.161
0.024
0.080
-0.024
-0.036
0.057
-0.007
-0.020
0.109
0.075
-0.035
0.025
0.083
0.006
0.005
0.057
-0.069
0.044
0.069
0.050
0.106
-0.002
-0.033
0.009
0.126
0.103
-0.063
-0.052
0.139
0.035
-0.063
-0.013
0.037
0.165
0.026
-0.052
0.137
0.113
-0.021
0.032
0.042
0.087
0.034
0.013
0.040
0.030
-0.032
0.064
0.081
-0.027
-0.069
0.101
0.093
0.069
-0.001
0.009
0.038
0.043
0.035
-0.029
0.029
0.106
0.082
0.077
0.036
-0.054
0.038
0.047
0.025
0.083
-0.042
0.071
0.067
-0.036
0.043
-0.086
0.054
0.085
-0.024
0.038
0.011
-0.050
0.043
0.012
0.141
0.190
-0.094
-0.064
0.041
0.145
0.107
0.092
0.000
0.037
-0.033
0.134
-0.047
-0.035
-0.064
0.030
0.115
-0.031
-0.015
0.019
0.049
-0.099
-0.005
0.012
0.025
0.145
0.004
0.090
-0.066
-0.011
-0.084
0.101
0.037
0.059
0.173
-0.061
0.078
-0.014
0.007
0.056
-0.024
-0.022
-0.079
0.058
0.000
0.078
0.003
-0.003
-0.024
-0.015
0.091
-0.116
0.027
0.044
-0.038
0.100
-0.219
0.006
0.082
0.024
0.001
0.188
0.090
-0.066
-0.120
0.136
0.069
0.179
0.050
-0.017
0.150
0.034
0.040
-0.075
0.013
0.021
0.011
0.121
0.049
0.026
-0.111
0.109
0.056
-0.003
0.126
0.003
-0.024
0.017
0.152
0.021
-0.028
0.037
-0.168
0.032
0.203
0.019
-0.022
-0.000
-0.138
0.076
0.082
0.065
-0.016
0.031
-0.087
0.140
0.055
0.044
0.096
0.023
0.000
-0.004
0.081
0.025
0.137
-0.082
0.111
0.028
-0.014
0.113
0.090
0.011
0.024
-0.068
-0.042
-0.015
0.087
0.179
-0.046
0.024
0.009
0.081
0.011
-0.006
0.024
0.030
-0.058
0.057
0.180
-0.020
-0.007
0.118
0.065
-0.085
0.026
0.027
0.022
0.088
-0.045
0.124
-0.163
0.059
-0.048
0.006
-0.034
0.136
0.002
0.086
-0.026
-0.037
0.039
0.010
0.009
0.082
-0.084
0.156
-0.029
0.125
-0.003
0.008
-0.059
0.105
-0.086
0.038
0.048
-0.041
-0.016
0.105
0.013
0.052
0.085
0.144
0.052
-0.002
0.062
-0.032
-0.014
0.042
0.050
-0.033
0.065
0.014
-0.004
0.086
-0.020
-0.122
0.101
0.015
-0.121
0.081
0.109
0.127
0.049
0.005
0.024
-0.002
0.036
0.027
0.004
-0.001
0.062
0.051
0.003
0.024
-0.002
0.122
-0.000
0.071
-0.098
0.070
0.095
0.057
-0.041
-0.032
0.062
-0.041
0.047
0.071
0.020
-0.003
0.027
-0.038
0.058
-0.050
-0.030
0.001
-0.001
0.017
0.097
0.114
0.074
-0.129
0.009
0.061
0.050
-0.006
0.097
0.070
0.222
-0.027
-0.049
0.036
0.000
-0.039
-0.172
-0.015
0.182
0.261
0.040
-0.125
-0.135
0.003
0.128
0.089
0.035
-0.110
0.136
0.071
0.035
0.094
-0.014
0.033
0.138
0.010
-0.146
-0.033
-0.009
0.060
-0.023
-0.018
0.096
-0.063
-0.001
0.044
0.036
0.064
0.012
-0.151
0.185
0.045
0.016
0.216
-0.015
-0.026
-0.069
-0.126
0.126
0.134
-0.044
-0.008
0.054
0.022
-0.016
0.097
0.013
0.051
-0.068
0.079
0.054
0.128
-0.023
0.033
0.114
-0.043
-0.119
0.003
0.027
-0.076
0.047
0.002
0.051
0.101
0.082
0.067
-0.025
-0.017
-0.023
0.093
0.020
0.042
0.054
-0.011
0.312
-0.052
-0.029
0.209
-0.134
-0.008
0.004
0.058
0.064
-0.042
0.081
0.037
0.074
-0.024
-0.075
-0.051
-0.015
-0.094
-0.018
0.121
0.057
0.021
-0.058
-0.022
0.161
0.063
0.026
-0.022
0.068
0.056
0.057
-0.020
-0.090
0.020
0.116
0.032
0.053
0.051
-0.039
0.117
0.006
-0.085
0.060
0.123
0.122
-0.066
-0.069
0.172
0.045
-0.040
-0.007
0.017
0.077
-0.002
0.126
0.019
-0.110
-0.002
0.078
-0.012
0.048
0.115
-0.077
-0.012
0.038
0.023
0.067
0.042
-0.025
0.033
0.011
0.021
0.022
-0.014
-0.034
0.041
0.068
0.066
-0.008
-0.079
0.056
0.047
0.180
-0.026
-0.059
-0.032
0.025
0.055
0.081
-0.030
-0.103
-0.122
0.017
0.163
0.165
0.135
-0.007
-0.274
-0.113
0.046
0.316
0.050
0.049
0.201
-0.200
-0.191
-0.031
0.067
0.166
0.199
0.049
-0.006
0.114
-0.144
-0.083
-0.088
0.007
0.221
0.018
0.041
-0.004
-0.009
0.073
-0.021
-0.039
-0.033
0.006
-0.004
0.032
0.126
-0.165
0.013
0.028
-0.003
0.109
-0.033
0.099
0.036
0.002
-0.022
0.010
0.119
0.094
-0.061
0.046
0.075
0.007
0.092
-0.027
0.043
0.052
-0.041
0.030
0.090
-0.050
-0.069
0.062
0.069
0.023
0.036
0.094
-0.045
-0.016
0.051
0.104
-0.114
0.028
0.038
0.058
-0.082
-0.032
0.077
0.127
0.053
0.044
-0.135
0.119
0.071
0.116
0.047
0.004
-0.065
-0.001
0.062
0.032
-0.027
0.031
0.024
0.009
0.109
-0.024
-0.024
0.112
-0.034
0.104
-0.017
0.008
0.002
0.109
0.059
0.029
-0.072
0.153
0.083
0.046
-0.101
0.038
-0.156
0.044
0.010
0.032
0.133
-0.005
-0.011
0.019
0.013
-0.097
0.015
0.023
0.029
-0.011
-0.088
-0.083
0.206
0.025
0.241
-0.030
-0.029
0.062
0.112
0.040
-0.026
-0.030
0.080
-0.052
0.115
-0.097
-0.049
0.037
0.044
0.029
-0.029
-0.046
0.074
0.035
0.031
0.037
0.217
-0.083
0.037
0.056
-0.023
-0.022
-0.028
0.095
0.002
0.083
-0.022
-0.060
-0.034
0.024
0.086
-0.004
-0.024
0.006
-0.013
0.030
0.122
0.031
0.026
-0.023
0.081
-0.065
-0.004
0.065
0.107
-0.004
0.104
-0.048
0.005
0.036
0.006
0.058
0.116
-0.026
-0.062
0.088
0.016
0.124
0.105
0.007
-0.035
0.113
0.029
-0.021
0.067
0.208
-0.072
-0.021
-0.085
0.109
0.063
-0.052
0.001
0.041
0.070
0.023
0.058
0.018
0.009
0.062
-0.042
0.003
-0.006
-0.016
0.175
0.023
-0.102
0.039
-0.076
-0.066
0.020
-0.011
0.026
0.070
0.087
0.029
0.020
-0.099
0.080
0.043
0.030
-0.029
0.044
-0.103
0.017
0.007
0.049
0.032
0.051
-0.051
0.033
0.083
-0.055
0.088
-0.043
0.027
0.159
0.035
-0.061
0.163
0.038
-0.021
0.053
-0.130
-0.005
-0.057
0.097
0.115
0.035
-0.011
0.026
0.035
-0.105
-0.037
0.070
0.045
0.059
0.020
-0.016
-0.013
-0.089
0.011
0.126
-0.078
-0.109
0.084
0.135
-0.002
0.046
0.012
0.002
0.046
0.046
0.036
0.012
0.051
0.046
0.114
0.026
-0.012
0.065
0.137
0.015
0.082
-0.045
-0.044
-0.042
-0.011
0.047
-0.053
0.144
0.043
-0.062
0.022
-0.125
0.079
0.206
0.042
0.074
0.079
0.017
0.012
-0.017
0.089
0.057
-0.163
0.076
0.175
-0.018
-0.079
-0.148
-0.067
0.177
0.162
0.105
0.014
-0.073
-0.009
0.058
0.186
-0.076
0.070
0.019
0.017
0.045
0.190
0.155
-0.001
-0.060
-0.170
-0.032
0.024
-0.089
0.148
-0.043
-0.110
0.153
0.031
-0.208
-0.066
-0.041
-0.052
0.133
0.281
0.126
-0.235
-0.064
0.066
0.052
0.106
0.032
0.025
-0.027
-0.063
0.048
-0.131
0.044
0.046
0.029
-0.010
0.114
0.061
-0.037
0.003
0.109
0.016
0.059
0.035
0.116
-0.022
-0.028
0.002
0.109
0.126
0.081
-0.150
0.073
-0.010
0.139
0.090
0.058
-0.078
-0.080
0.022
0.081
0.138
0.063
-0.152
-0.034
0.050
-0.008
-0.003
0.023
0.034
-0.071
-0.009
0.053
-0.023
-0.022
0.172
0.035
-0.149
-0.180
0.046
0.088
0.142
0.101
0.025
0.002
0.061
0.013
-0.044
0.094
0.076
0.130
0.097
0.010
0.075
0.100
-0.133
0.032
0.027
0.056
0.073
0.020
-0.050
-0.030
0.077
0.073
0.034
-0.058
0.016
-0.034
-0.002
0.048
-0.029
0.078
0.015
0.004
0.049
-0.001
0.014
0.055
-0.001
0.302
0.803
0.981
0.995
-0.330
-0.447
0.123
-0.077
-0.600
-1.400
-0.040
2.228
2.300
1.107
0.029
-0.632
-0.520
-0.299
0.107
0.075
0.450
-0.007
-0.304
-0.875
0.772
1.245
0.776
-0.146
-0.930
-1.343
-0.287
-0.088
-0.455
-3.192
0.251
3.476
4.387
3.032
-0.229
-2.095
-2.544
-1.770
-0.439
1.165
2.222
1.513
0.419
3.245
3.712
2.656
1.027
-0.305
-0.983
-1.346
-1.175
-1.174
-0.803
-0.698
-0.568
-0.135
0.096
-0.073
-0.141
-0.218
-0.188
0.150
-0.104
-0.245
-0.375
0.105
0.281
0.296
0.000
-0.184
-0.365
0.051
0.327
0.177
0.456
0.693
0.715
0.539
0.153
0.054
-0.249
-0.090
-0.174
-0.008
0.059
-0.234
-0.214
-0.410
-0.446
-0.233
0.059
-0.541
-1.130
-0.620
-0.648
-0.105
0.060
0.063
0.430
-0.668
0.638
1.139
0.870
0.164
0.163
0.241
0.360
0.165
-0.048
0.084
-0.031
-1.064
-0.618
-0.177
-0.042
-0.221
-0.541
-0.703
-0.894
-0.760
-0.532
-0.204
-0.176
0.067
0.023
-0.898
-1.855
-0.846
0.265
0.730
0.575
0.303
0.067
-0.175
-0.490
-0.184
0.101
0.124
0.593
0.686
0.645
0.697
0.722
0.491
0.274
0.790
0.400
0.116
-0.112
-0.309
-0.340
-0.180
0.039
0.210
0.106
-0.064
-0.013
0.072
0.200
0.235
0.173
-0.022
0.106
0.017
0.334
0.371
0.354
0.274
0.023
-0.127
-0.043
0.028
-0.092
0.175
0.072
0.032
0.300
0.148
0.110
0.090
0.067
-0.035
0.195
0.268
0.189
0.064
-0.101
-0.211
-0.257
-0.031
0.061
0.094
-0.014
0.071
0.178
-0.032
-0.072
-0.043
0.098
0.057
0.119
0.045
0.073
0.138
0.159
0.140
0.091
0.123
-0.000
-0.088
0.453
0.519
0.123
0.105
-0.098
-0.019
0.048
0.058
-0.199
-0.037
0.071
-0.074
-0.850
-0.848
-0.064
0.199
-0.111
-0.152
0.147
0.226
0.061
0.385
0.304
-0.125
-0.094
0.080
0.280
0.300
0.295
0.242
0.198
0.106
-0.035
-0.092
0.078
0.008
-0.102
-0.286
-0.158
-0.301
-0.225
-0.427
-0.114
0.077
0.125
0.290
-0.023
-0.092
-0.154
-0.178
-0.106
-0.081
-0.004
0.197
0.042
0.016
0.102
0.139
0.141
0.155
0.113
0.194
0.462
0.264
0.235
0.175
-0.264
0.067
0.379
0.173
0.138
0.189
0.381
0.298
0.114
-0.018
-0.076
-0.036
0.062
-0.108
-0.109
-0.046
0.062
-0.005
-0.185
-0.219
-0.099
0.019
-0.097
-0.053
-0.193
-0.174
-0.211
-0.252
0.123
0.264
0.138
0.019
-0.142
-0.101
-0.063
-0.058
0.200
0.144
0.014
-0.209
-0.084
0.097
0.309
0.129
-0.216
-0.273
-0.127
0.081
0.115
0.333
0.258
0.567
0.212
-0.091
-0.205
-0.329
-0.210
-0.130
0.454
0.647
0.279
0.175
-0.036
-0.347
-0.594
-0.272
-0.306
0.148
-0.083
-0.316
0.088
0.484
0.504
0.054
-0.061
-0.130
0.095
0.416
0.264
0.178
0.194
0.306
0.069
0.075
-0.067
-0.141
-0.136
-0.193
-0.118
-0.069
-0.174
-0.228
-0.314
-0.185
0.008
-0.097
-0.059
-0.115
0.066
0.132
0.134
0.109
0.147
0.175
0.025
0.002
0.140
0.037
0.102
0.089
0.149
0.330
0.259
0.295
0.078
-0.016
0.068
0.108
0.129
0.164
0.077
0.096
0.097
0.076
-0.097
-0.097
-0.084
-0.148
-0.052
0.049
-0.049
-0.060
0.028
-0.051
-0.303
-0.166
-0.030
-0.099
-0.049
-0.057
0.027
-0.080
-0.164
0.021
-0.117
-0.027
-0.227
-0.047
-0.042
-0.103
-0.014
-0.014
-0.082
-0.120
0.115
0.099
0.126
0.078
-0.082
-0.194
0.031
0.131
-0.001
0.151
0.251
0.166
0.119
0.159
0.019
-0.025
-0.034
0.073
0.002
0.057
0.127
-0.016
0.046
-0.080
-0.072
-0.010
-0.008
-0.075
-0.179
0.118
-0.060
-0.150
0.013
0.037
0.042
-0.101
0.093
0.049
0.035
0.092
0.076
-0.039
-0.009
-0.037
-0.030
0.036
-0.043
0.124
-0.023
0.051
0.062
0.130
-0.003
-0.077
0.041
0.000
0.116
0.214
-0.036
-0.407
-0.470
-0.322
-0.662
-0.265
-0.641
-0.836
0.177
1.138
1.071
0.228
-0.184
-0.270
-0.234
-0.003
-0.619
0.314
0.675
1.065
0.576
-0.234
-0.874
-1.806
-0.565
-0.019
0.382
0.461
0.185
-0.107
-0.227
-0.187
-0.009
0.190
0.437
0.436
0.622
0.636
0.646
0.539
0.430
0.187
-0.026
-0.066
-0.186
-0.413
-0.400
-0.344
-0.240
-0.274
-0.228
-0.267
-0.158
-0.017
-0.127
0.024
-0.071
-0.093
-0.027
0.065
0.210
0.026
-0.044
0.065
-0.015
0.044
0.191
0.103
0.146
0.113
0.196
0.014
0.198
0.205
0.123
0.201
0.207
0.235
0.253
0.117
0.252
0.218
0.395
0.305
0.291
0.212
0.260
0.405
0.185
0.294
0.352
0.555
0.385
-0.553
-0.785
0.146
0.581
0.837
0.673
0.472
-0.021
-0.408
-0.513
-0.395
-0.250
0.121
0.022
0.102
0.101
-0.088
-0.135
-0.389
-0.181
-0.283
-0.295
-0.270
0.059
0.002
0.072
-0.040
0.023
0.044
-0.033
0.113
0.196
0.061
0.046
-0.073
-0.112
0.023
-0.071
0.187
0.005
-0.053
-0.097
-0.103
-0.013
0.058
0.024
-0.014
0.078
-0.109
0.048
0.144
0.045
0.045
0.198
-0.005
0.032
-0.184
0.062
0.018
0.012
-0.093
-0.113
-0.084
-0.276
-0.092
-0.075
-0.131
-0.124
-0.191
-0.093
-0.074
-0.099
-0.071
-0.285
-0.242
-0.117
-0.185
-0.043
0.029
0.060
-0.088
-0.050
-0.138
0.203
0.172
0.156
0.073
-0.039
-0.058
0.152
0.214
0.051
0.081
0.162
0.114
0.102
0.064
0.089
0.002
0.028
0.083
0.019
0.143
0.128
-0.092
-0.106
-0.033
0.045
0.108
0.094
0.122
-0.020
0.008
0.046
0.057
-0.045
0.149
-0.052
0.114
0.185
0.050
-0.016
0.079
0.124
0.131
0.087
-0.120
0.040
0.057
0.120
0.131
-0.029
0.038
-0.005
0.013
0.023
0.057
0.028
0.006
0.073
-0.099
-0.038
-0.098
0.008
0.170
0.092
0.209
0.032
0.042
0.093
-0.076
-0.149
-0.248
-0.568
-0.670
-0.245
0.348
0.254
0.465
0.056
0.019
-0.055
-0.301
-0.275
-0.013
0.339
0.134
-0.394
-0.069
0.515
0.151
-0.113
0.021
0.418
0.457
0.056
-0.214
-0.201
0.039
0.242
-0.016
-0.096
-0.151
-0.049
0.128
0.311
-0.004
0.061
-0.118
-0.169
0.121
-0.109
-0.077
-0.151
-0.203
-0.145
0.013
0.025
-0.102
-0.282
-0.011
0.307
-0.204
-0.298
-0.165
-0.121
0.143
0.242
-0.148
-0.169
0.143
0.261
0.081
-0.282
-0.443
0.011
0.227
1.009
1.109
0.609
0.008
-0.223
-0.283
-0.191
-0.226
-0.231
-0.263
0.410
0.540
0.103
-0.185
-0.403
-0.553
-0.364
0.055
0.405
0.786
0.399
0.333
0.104
0.190
-0.227
-0.413
0.043
0.147
0.107
0.282
0.030
-0.070
-0.098
-0.249
-0.231
-0.327
-0.235
-0.178
-0.294
-0.196
-0.047
-0.041
-0.148
0.019
0.142
-0.545
-1.108
0.475
1.633
1.224
0.612
0.718
-1.044
-3.437
-1.644
2.855
4.034
2.726
0.919
-0.003
-0.278
-0.228
0.137
0.443
-2.970
-1.466
2.702
3.918
2.961
0.402
-1.707
-2.630
-2.655
-2.076
-1.212
-0.071
0.832
1.467
1.684
1.668
1.502
1.227
0.811
0.452
0.159
-0.223
-0.380
-0.301
-0.301
-0.402
-0.319
-0.374
-0.042
0.062
0.100
0.209
0.307
0.334
0.220
0.351
0.340
0.194
0.120
0.251
0.353
0.270
0.269
0.190
0.350
0.250
0.219
0.165
0.307
0.269
0.232
0.168
0.347
0.122
0.267
0.212
0.048
0.086
0.117
0.161
0.113
0.213
0.115
-0.009
-0.053
-0.021
-0.016
0.065
0.059
-0.002
-0.090
-0.097
-0.030
-0.036
-0.073
0.031
-0.138
-0.171
0.016
-0.082
0.067
-0.140
-0.140
-0.086
-0.074
-0.072
-0.121
-0.062
-0.061
0.021
-0.125
-0.166
-0.045
-0.142
0.122
-0.117
-0.071
-0.183
0.033
0.077
-0.049
-0.062
0.109
-0.117
0.033
0.065
0.088
0.143
0.270
1.054
1.623
1.278
0.551
-0.246
-3.241
-1.753
1.515
2.479
1.742
0.608
-0.348
-1.106
-1.157
-0.928
-0.730
-0.323
0.042
0.325
0.572
0.743
0.971
1.837
2.047
1.469
-2.174
-2.174
0.655
2.553
-0.074
-0.186
-0.070
-0.230
-0.335
-0.455
-0.380
-0.180
-0.192
0.044
0.335
0.319
0.484
0.457
0.436
0.487
0.287
0.250
0.192
0.116
0.094
0.101
0.098
0.105
0.064
0.088
0.005
0.197
0.141
0.010
0.051
0.177
0.258
0.179
0.069
-0.061
0.080
0.077
0.297
0.640
0.518
0.157
0.054
0.428
-0.224
-0.850
-0.809
0.006
0.275
0.482
0.181
-0.023
-0.342
-0.425
-0.338
-0.252
-0.240
-0.158
0.004
0.006
0.089
0.217
0.134
0.212
0.077
0.119
-0.002
-0.084
-0.082
-0.105
-0.165
-0.015
0.167
0.015
-0.139
-0.051
-0.117
0.030
0.027
0.063
-0.074
-0.095
-0.062
-0.020
-0.002
0.134
-0.002
-0.031
-0.088
-0.012
0.022
-0.018
0.083
0.092
-0.050
-0.022
0.074
0.025
0.043
-0.114
0.010
0.151
0.066
0.090
0.004
-0.005
-0.128
0.056
0.042
0.015
0.096
0.106
-0.053
0.038
0.112
0.282
0.498
0.914
-0.310
-1.643
-1.256
-0.118
1.174
1.411
1.333
-0.472
-2.854
-1.153
1.997
2.757
0.628
-2.740
-1.102
0.915
1.371
0.881
0.245
-0.214
-0.199
0.537
1.583
1.420
0.696
0.435
0.276
0.419
0.660
0.524
0.364
0.520
0.510
0.323
0.066
-0.252
-1.723
-2.377
-1.804
0.785
0.813
-1.292
-0.353
0.144
0.063
-0.588
-0.492
-0.781
-0.280
0.674
1.494
1.220
1.019
0.412
0.211
0.121
0.485
0.307
0.402
0.260
0.289
0.293
0.332
0.379
-0.235
-0.361
-0.645
-0.953
-0.687
-0.311
-0.087
-0.248
0.067
0.339
0.783
0.796
0.384
0.058
-0.029
0.148
0.428
0.701
0.718
0.871
0.622
0.473
0.212
-0.027
-0.347
-0.379
-0.669
-0.682
-0.490
-0.639
-0.477
-0.430
-0.413
-0.978
-3.353
-2.727
1.224
2.354
0.122
0.529
0.628
0.185
-0.411
-0.470
-1.045
-3.453
-3.123
2.408
4.105
4.487
1.647
-2.447
-3.909
-3.563
-1.864
0.411
2.607
3.990
4.406
4.334
3.818
2.857
1.592
0.342
-0.457
-1.311
-1.703
-1.960
-1.879
-1.728
-1.336
-1.022
-0.614
-0.358
-0.037
0.011
0.275
0.306
0.275
0.267
0.226
0.128
0.170
0.161
0.245
0.184
0.240
0.096
0.315
0.396
0.361
0.257
0.212
0.411
0.436
0.388
0.448
0.381
0.377
0.381
0.243
0.379
0.429
0.289
0.283
0.121
0.160
0.236
0.200
0.226
0.172
0.103
0.162
0.024
0.112
0.068
-0.027
-0.006
-0.107
-0.109
0.030
-0.090
-0.106
-0.144
-0.208
-0.240
-0.122
-0.125
-0.229
-0.111
-0.180
-0.258
-0.271
-0.305
-0.163
-0.172
-0.135
-0.141
-0.179
-0.092
-0.171
-0.189
-0.182
-0.195
-0.130
-0.204
-0.143
-0.133
-0.101
-0.105
-0.146
-0.082
-0.135
-0.104
-0.081
-0.146
0.049
-0.108
-0.051
-0.033
0.008
0.050
-0.051
-0.061
-0.017
-0.114
-0.038
0.079
-0.112
-0.053
-0.006
0.158
0.098
0.069
-0.015
-0.058
-0.012
0.083
0.027
0.203
0.050
0.121
0.147
0.239
0.074
0.059
0.049
0.068
0.049
0.109
0.119
0.061
0.147
-0.012
0.094
0.030
-0.085
-0.086
0.024
0.033
-0.124
-0.007
0.061
-0.075
0.030
-0.090
0.123
-0.095
-0.140
-0.073
0.187
0.032
0.085
-0.020
0.082
0.064
0.092
0.017
0.031
0.060
-0.091
0.142
0.067
0.125
-0.023
0.068
0.097
0.067
0.065
-0.083
0.036
-0.021
0.092
-0.065
-0.019
0.014
-0.015
-0.041
0.069
0.027
-0.031
-0.058
-0.087
0.027
0.060
-0.007
0.046
-0.067
-0.010
-0.076
-0.191
-0.164
-0.000
-0.114
-0.042
0.005
0.013
-0.122
-0.038
-0.086
0.042
-0.058
0.086
-0.088
-0.112
0.065
0.008
0.050
0.028
-0.129
0.104
-0.057
-0.099
-0.310
-1.325
-2.658
-3.858
-4.103
-3.814
2.009
4.229
4.801
3.644
-0.627
-3.171
-3.600
-1.902
0.644
3.258
4.313
4.516
4.416
4.228
3.575
2.407
0.906
-0.380
-1.476
-2.158
-2.474
-2.379
-2.385
-2.026
-1.404
-1.113
-0.589
-0.352
-0.308
-1.780
-1.485
-2.504
2.234
3.935
2.945
-0.233
-3.199
0.196
3.418
4.324
3.710
-1.929
-3.763
-4.203
-1.743
-0.165
-0.728
3.287
4.522
4.805
4.745
4.619
4.408
1.938
0.919
0.788
-0.224
-1.135
-1.680
-0.003
-2.163
-1.510
-1.287
-3.282
1.610
0.827
2.717
3.421
1.775
-1.423
-0.219
1.050
1.968
1.563
0.896
0.095
-0.190
-0.107
0.498
0.632
0.505
0.242
0.517
0.462
0.335
0.223
-0.009
0.059
-0.194
-0.272
-0.128
-0.125
-0.129
-0.101
-0.807
-2.304
-2.127
1.609
3.198
2.881
0.272
-2.715
2.234
4.218
4.687
3.715
-0.272
-3.335
-2.531
1.100
3.485
4.121
2.290
-1.820
1.163
3.113
2.191
3.159
1.522
-3.340
-2.195
-0.446
0.092
1.385
1.389
-0.326
-3.834
-2.290
0.032
0.991
0.738
0.302
-0.116
-0.381
-0.521
-0.351
-0.188
-0.134
0.235
0.313
0.297
0.546
0.572
0.591
0.545
0.576
0.491
0.499
0.474
0.531
0.613
0.558
0.515
0.661
0.642
0.609
0.691
0.609
0.662
0.606
0.674
0.590
0.591
0.522
0.568
0.348
0.405
0.506
0.459
0.381
0.395
0.908
1.678
1.012
0.958
-1.655
-2.677
-0.249
1.330
1.441
0.969
1.826
0.905
-0.967
-0.287
-0.243
-0.019
-1.242
-2.101
1.392
2.480
1.813
0.743
0.185
-3.335
-1.159
1.913
3.464
-1.223
-2.846
-0.780
0.831
1.991
0.915
-0.032
-0.474
-0.465
-2.417
0.077
0.114
1.063
-0.350
0.576
1.182
0.904
0.409
-0.169
-0.946
-1.183
-1.225
-0.657
-0.165
0.485
0.962
1.183
1.375
1.309
1.220
1.058
0.854
0.599
0.439
0.319
0.299
0.081
0.019
0.031
0.082
0.123
0.159
0.074
0.022
0.115
0.205
0.058
0.062
0.182
0.141
-0.016
0.047
0.022
-0.080
-0.080
-0.062
-0.026
-0.026
-0.175
-0.081
-0.096
0.053
0.056
-0.066
-0.263
-0.186
-0.087
-0.088
0.028
0.025
-0.110
-0.164
-0.056
-0.012
0.040
0.052
-0.005
0.123
0.035
-0.157
-0.058
0.141
0.032
0.106
0.059
0.022
0.037
0.024
0.063
0.095
0.016
0.100
0.053
-0.019
0.050
0.092
0.061
0.055
0.017
0.006
0.107
0.074
0.067
-0.023
0.013
0.056
0.077
0.024
-0.119
0.003
0.035
0.031
-0.080
-0.143
-0.082
-0.026
-0.004
-0.003
-0.053
-0.101
-0.153
-0.184
0.082
0.183
-0.049
-0.161
-0.054
0.001
-0.001
-0.082
-0.089
0.061
0.025
0.063
-0.014
-0.098
-0.078
0.059
-0.066
0.080
-0.063
0.088
-0.075
0.028
0.008
0.115
0.198
0.056
0.060
0.036
0.009
0.130
0.044
0.063
0.276
0.135
0.021
0.126
0.086
0.095
0.062
0.126
0.138
0.126
0.090
0.085
0.049
0.144
0.081
0.033
0.101
0.200
0.002
0.099
-0.025
0.135
0.130
0.014
-0.053
-0.038
-0.005
0.119
-0.012
0.025
0.063
-0.006
-0.041
-0.116
0.042
0.001
0.054
-0.012
-0.101
-0.033
-0.007
-0.092
-0.008
-0.103
-0.056
0.035
-0.043
-0.058
-0.050
-0.100
-0.007
-0.003
0.076
-0.245
-0.057
-0.030
0.046
-0.069
0.082
0.010
0.022
-0.050
-0.068
0.022
0.018
0.012
0.094
-0.068
0.096
0.067
-0.033
-0.020
0.003
0.037
0.126
0.012
-0.011
0.058
0.065
0.013
0.040
0.108
0.051
0.114
-0.014
-0.018
0.162
0.083
0.105
-0.076
0.063
0.070
0.096
0.037
0.023
0.029
0.020
0.078
0.064
-0.008
0.047
0.181
0.005
-0.026
0.024
0.009
-0.019
0.049
0.073
0.067
0.069
-0.073
0.086
-0.020
0.018
-0.042
-0.069
0.136
-0.038
0.081
-0.118
0.002
0.012
-0.081
0.079
0.003
0.292
0.772
1.362
1.080
0.571
0.285
0.150
0.317
0.394
0.395
0.557
0.428
0.336
0.144
0.121
-0.113
-0.287
-0.412
-0.656
-0.348
-0.350
-0.235
-0.330
-0.323
-0.222
-0.032
-0.024
0.011
0.217
0.248
0.217
0.043
0.183
0.240
0.278
0.153
0.159
0.252
0.134
0.273
0.247
0.300
0.323
0.377
0.309
0.164
0.146
0.123
0.208
0.194
0.136
0.194
0.037
0.158
0.102
0.081
0.102
-0.138
-0.009
0.125
-0.030
-0.109
-0.175
-0.141
-0.070
-0.164
-0.107
-0.345
-0.434
-0.250
-0.377
-0.307
-0.617
-0.143
-0.108
-0.612
-0.933
-1.776
-3.373
-2.729
-3.171
-0.268
-0.548
-2.341
-3.501
0.930
0.360
0.781
0.484
-0.191
-0.946
-1.533
0.317
2.023
2.450
3.051
1.249
1.651
2.104
2.013
1.301
0.723
0.014
-0.239
-0.333
-0.229
-0.230
-0.216
-0.324
-0.380
-0.307
-0.385
-0.598
-0.579
-0.712
-0.847
-0.860
-0.790
-0.813
-0.727
-0.585
-0.572
-0.534
-0.297
-0.183
-0.115
0.090
0.013
0.068
0.177
0.251
0.373
0.237
0.439
0.449
0.556
0.503
0.483
0.581
0.539
0.660
0.732
0.834
0.691
0.682
0.702
0.683
0.584
0.707
0.633
0.621
0.641
0.655
0.471
0.632
0.490
0.475
0.535
0.344
0.407
0.334
0.320
0.263
0.203
0.207
0.130
0.014
0.174
-0.106
0.003
-0.005
-0.041
-0.034
-0.093
-0.144
-0.259
-0.283
-0.146
-0.096
-0.339
-0.289
-0.123
-0.233
-0.310
-0.313
-0.217
-0.430
-0.128
-0.197
-0.154
-0.322
-0.270
-0.085
-0.273
-0.145
-0.230
-0.210
-0.120
-0.132
-0.111
-0.125
-0.027
-0.150
-0.146
-0.027
-0.019
0.093
-0.058
-0.042
-0.038
-0.013
-0.020
0.096
-0.081
-0.029
0.043
-0.080
0.019
0.203
0.172
0.027
-0.026
0.033
0.122
0.106
0.044
0.224
0.002
0.021
-0.102
-0.013
-0.022
0.123
0.220
-0.028
0.036
0.129
0.016
-0.112
0.064
-0.014
0.018
0.067
0.013
0.164
0.100
0.081
0.031
0.002
-0.046
0.086
0.043
0.177
0.107
0.096
0.123
0.035
0.067
0.032
0.084
0.031
0.161
0.079
0.103
0.102
-0.019
0.081
0.073
0.160
-0.021
0.018
0.115
0.156
0.105
0.046
-0.080
0.138
0.212
0.032
-0.053
0.048
0.109
0.091
0.058
-0.066
0.081
0.134
0.091
0.105
0.008
-0.072
-0.005
0.177
-0.118
-0.039
0.034
-0.078
-0.000
-0.068
-0.046
-0.143
-0.012
-0.027
0.023
-0.034
-0.106
-0.134
0.011
-0.103
-0.103
-0.114
-0.155
-0.101
-0.079
0.064
-0.119
-0.122
-0.140
-0.093
-0.004
-0.029
-0.079
0.036
0.034
0.037
0.052
-0.037
-0.096
-0.031
-0.069
-0.001
0.072
0.058
0.092
0.065
-0.099
0.012
0.096
-0.002
0.159
0.133
0.010
0.093
0.272
0.087
0.033
0.124
0.213
0.099
0.116
0.072
0.073
0.109
0.124
0.027
-0.021
0.200
0.053
0.114
0.102
0.069
-0.025
-0.002
0.021
0.113
0.071
0.077
-0.019
0.007
0.105
0.048
0.113
-0.101
0.016
-0.098
0.021
0.075
0.073
-0.215
0.026
0.011
-0.014
0.007
0.088
-0.001
-0.054
-0.116
-0.066
0.097
0.060
-0.044
-0.185
-0.041
-0.012
-0.071
-0.146
0.033
0.044
0.009
-0.053
-0.099
-0.165
-0.002
0.075
0.004
0.015
-0.049
-0.063
0.044
0.015
-0.060
-0.043
0.028
-0.032
0.095
-0.102
0.059
0.029
0.020
0.048
-0.096
0.040
0.026
0.064
-0.015
0.019
0.026
-0.090
0.051
0.138
0.033
0.105
0.028
0.092
-0.017
0.028
0.059
0.068
0.046
0.121
-0.062
0.049
0.147
0.148
-0.070
0.037
0.119
0.092
-0.009
0.038
0.126
0.055
-0.020
0.056
0.050
-0.029
0.022
-0.008
0.223
0.010
-0.169
-0.039
0.057
-0.034
0.034
-0.077
-0.027
0.011
0.037
0.094
-0.034
-0.034
-0.064
0.028
0.103
0.036
0.019
-0.098
0.005
0.068
0.119
0.110
0.098
-0.006
-0.065
-0.013
-0.080
0.099
-0.046
0.111
0.082
-0.134
0.003
0.114
0.021
0.079
-0.004
-0.094
0.133
0.073
-0.037
-0.062
0.121
-0.167
0.115
0.007
0.108
0.037
0.067
-0.089
-0.014
-0.045
0.107
0.030
-0.040
-0.025
0.081
0.139
0.084
0.025
-0.035
0.077
-0.109
-0.046
0.078
0.075
-0.020
0.002
0.055
0.009
0.052
-0.044
-0.090
-0.023
-0.013
0.089
0.449
0.797
0.387
0.034
-0.216
-0.285
-0.131
-0.047
-0.017
0.349
0.207
0.151
-0.070
-0.288
-0.216
-0.240
-0.157
-0.119
-0.186
-0.025
-0.076
0.115
0.012
0.088
0.053
0.067
0.117
0.119
0.134
0.122
-0.052
0.058
-0.024
0.111
0.102
0.133
0.007
0.008
0.041
0.025
-0.016
0.101
-0.079
0.023
0.035
0.078
0.111
0.033
0.044
-0.013
-0.057
-0.109
0.062
-0.020
-0.041
0.004
0.002
-0.048
-0.104
0.084
0.104
-0.042
-0.044
0.023
-0.044
-0.036
0.074
0.017
-0.013
0.004
0.031
-0.073
-0.016
0.110
-0.100
0.040
-0.042
-0.058
0.133
0.052
0.017
0.068
0.054
-0.112
0.025
-0.023
-0.058
0.155
0.093
0.030
-0.082
0.056
0.113
0.024
0.093
0.026
-0.036
0.075
0.036
0.030
0.075
-0.045
0.054
-0.006
-0.073
0.011
0.071
0.081
0.100
0.067
0.079
-0.010
0.133
0.193
0.045
0.002
0.062
0.004
0.025
-1.146
-1.916
0.339
1.161
0.948
0.340
0.033
0.520
0.519
-0.036
-0.216
-0.129
0.005
-0.622
-1.520
0.272
1.424
1.195
0.624
-0.119
-0.430
-0.745
-0.705
-0.588
-0.235
0.011
0.109
0.353
0.318
0.400
0.290
0.352
-0.001
0.163
0.133
0.019
0.007
-0.025
-0.025
-0.035
-0.074
-0.109
-0.095
-0.046
0.091
0.034
-0.016
0.031
0.046
0.015
0.085
0.017
0.017
0.058
0.120
0.022
-0.007
-0.066
0.064
0.075
-0.003
-0.005
0.118
0.137
-0.053
0.048
0.001
0.166
0.033
0.068
-0.024
0.145
0.008
0.047
0.096
-0.035
0.099
-0.146
-0.002
0.068
0.104
0.057
0.027
-0.018
0.091
0.100
0.048
0.076
-0.038
-0.022
0.031
0.071
0.033
-0.018
-0.070
0.083
0.008
0.050
-0.013
-0.054
0.000
-0.066
0.130
-0.030
-0.033
-0.048
-0.075
0.111
0.012
-0.092
0.152
0.023
-0.007
-0.064
0.033
0.014
-0.046
0.083
-0.051
0.057
0.005
0.013
0.019
-0.008
-0.002
0.054
-0.002
-0.040
-0.026
-0.022
0.121
0.149
-0.050
-0.088
0.187
0.081
-0.100
-0.005
0.037
0.017
-0.074
0.118
0.048
0.058
-0.003
-0.053
-0.028
0.072
-0.014
0.106
-0.043
-0.044
0.074
0.077
0.047
-0.014
0.046
-0.033
-0.026
-0.009
0.002
0.052
-0.016
0.098
-0.052
0.083
-0.001
-0.074
0.148
-0.007
-0.020
0.042
0.093
-0.091
-0.094
0.134
0.029
-0.028
-0.038
0.061
0.086
0.080
-0.115
0.041
-0.023
0.009
0.006
-0.068
0.216
0.075
0.685
1.097
0.457
-0.066
-0.478
-0.293
-0.016
0.206
0.385
0.363
0.080
-0.015
0.169
0.339
0.335
-1.852
-3.300
0.049
1.954
1.946
0.805
-0.316
-0.649
-0.913
-0.668
-0.311
0.094
0.299
0.806
0.839
0.894
0.829
0.559
0.433
0.286
0.186
-0.074
-0.147
-0.186
-0.153
-0.182
-0.107
-0.058
-0.133
-0.022
0.002
-0.038
0.032
0.015
0.233
0.136
0.068
0.040
0.102
0.177
0.055
-0.019
0.010
0.091
0.021
0.002
0.146
-0.018
0.069
-0.005
0.131
0.029
0.163
0.210
0.030
0.027
0.086
0.129
0.022
0.130
0.232
0.107
0.047
0.065
0.129
0.289
0.038
-0.831
-0.405
0.003
0.273
0.345
0.069
-0.024
-0.022
-0.135
-0.121
0.102
0.135
-0.197
0.003
0.162
0.096
0.083
0.496
0.701
0.063
-0.166
-0.426
-0.222
-0.066
-0.251
-0.284
0.287
0.590
0.129
-0.211
-0.313
-0.346
-0.239
-0.075
0.026
-0.015
0.037
0.035
0.015
0.078
-0.139
-0.088
-0.041
-0.049
0.076
0.126
0.275
0.041
-0.071
0.037
0.094
-0.001
0.062
0.115
0.068
0.145
0.041
0.066
0.077
0.164
0.128
0.034
-0.038
-0.029
0.029
0.037
-0.001
-0.092
0.000
-0.134
0.027
0.087
0.111
-0.004
-0.055
0.010
0.025
-0.006
0.003
-0.138
0.070
0.225
0.096
0.018
-0.051
-0.066
-0.037
0.060
-0.001
0.076
0.073
-0.015
0.128
-0.115
0.143
-0.097
0.151
0.071
0.016
0.114
-0.034
0.012
-0.014
-0.011
-0.032
-0.013
0.117
0.066
0.167
0.109
-0.088
-0.050
0.127
-0.022
0.023
-0.074
0.004
-0.008
0.103
-0.028
0.123
-0.014
-0.062
0.002
0.147
-0.098
-0.114
-0.044
0.096
0.111
-0.051
-0.037
0.081
-0.058
-0.056
0.016
-0.057
0.019
0.231
0.120
-0.137
0.015
0.097
-0.038
-0.082
-0.116
0.089
0.022
0.063
0.037
0.034
-0.092
0.033
0.113
0.043
0.094
-0.001
0.051
0.027
-0.021
-0.057
0.041
0.063
0.006
0.022
-0.004
-0.012
-0.033
0.209
-0.001
0.003
0.033
-0.078
-0.035
0.099
0.051
-0.015
0.131
-0.017
-0.054
0.000
-0.044
0.054
0.123
-0.032
0.026
0.140
0.049
0.017
0.035
-0.027
0.123
-0.016
0.014
0.039
0.061
-0.063
-0.100
-0.035
0.097
0.146
0.048
-0.042
-0.067
0.081
-0.043
0.109
0.019
0.014
0.113
0.505
0.224
0.153
0.246
-0.007
-0.296
-0.581
-0.101
-0.031
-0.509
-0.505
0.254
0.842
1.265
-1.148
-0.725
0.386
0.610
-1.577
-1.116
0.307
0.619
0.605
0.549
0.254
0.225
0.003
-0.100
-0.192
-0.045
0.090
0.019
0.059
-0.029
0.483
-0.073
0.244
-0.285
0.366
0.563
-0.745
-0.420
1.117
0.805
0.165
-0.303
-0.563
-0.327
-0.594
0.253
0.412
0.181
-1.029
-1.734
0.011
1.203
1.391
0.420
-0.380
-0.700
-0.636
-0.354
0.084
0.371
0.462
0.383
0.121
-0.026
-0.001
0.039
0.191
-0.251
-0.018
-0.103
-0.004
-0.292
-0.106
0.008
0.008
0.167
0.072
0.179
0.234
-0.689
0.231
0.738
0.232
-0.077
-0.171
-0.113
-0.056
-0.043
-0.003
-0.118
0.236
-0.869
0.855
1.019
0.585
-0.370
-1.989
-0.018
1.343
-0.123
-0.309
-0.003
1.098
0.896
-1.173
-2.070
-0.275
0.592
0.669
0.511
0.102
-0.015
-0.094
-0.160
-0.303
-0.095
0.078
0.091
0.129
0.309
0.184
-0.008
0.138
0.093
-0.026
0.006
0.059
-0.101
-0.035
-0.093
0.002
-0.003
-0.034
0.041
0.158
0.054
0.051
-0.017
0.002
0.080
0.120
0.033
0.131
-0.029
-0.029
0.136
-0.002
0.068
0.103
0.054
0.096
0.569
0.555
-0.429
-0.888
-0.283
0.174
0.469
1.520
1.992
1.154
0.486
-0.122
-0.041
0.127
0.404
0.528
0.683
0.554
0.483
0.343
0.023
-0.309
-0.359
-0.413
-0.376
-0.346
-1.023
-3.486
-0.777
3.076
1.302
0.303
1.954
0.849
-0.870
-1.687
-1.180
0.039
1.353
2.411
3.182
1.793
-2.621
-0.782
3.005
4.123
3.822
0.751
-1.821
-2.935
-2.756
-1.858
-0.563
0.689
1.519
-1.606
-3.164
1.874
3.981
4.383
2.142
-0.584
-2.377
-2.926
-2.363
-1.456
-0.331
0.858
1.693
2.054
2.336
2.092
1.799
1.392
0.877
0.440
0.193
-0.240
-0.578
-0.598
-0.524
-0.564
-0.347
-0.282
-0.090
0.003
-0.050
-0.044
0.151
0.143
0.107
0.228
0.193
0.039
-0.025
-0.047
0.044
0.077
-0.054
0.050
-0.001
0.181
0.005
0.007
0.093
0.189
0.112
0.033
0.014
0.056
-0.026
0.209
0.139
-0.002
0.094
0.012
0.020
0.199
0.096
0.014
0.069
0.174
0.036
0.092
0.090
0.082
0.489
1.574
1.590
1.003
0.307
-0.001
0.114
0.184
0.481
0.659
0.597
0.352
0.251
0.046
-0.198
-0.322
-0.387
-0.527
-0.576
-0.550
-0.413
-0.492
-0.340
-0.105
-0.061
0.001
0.077
0.177
0.106
0.188
0.217
0.340
0.164
0.172
0.256
0.262
0.283
0.196
0.176
0.292
0.186
0.388
0.323
0.124
0.296
0.263
0.204
0.303
0.234
0.227
0.241
0.167
0.061
0.100
0.159
0.194
0.162
0.156
0.156
-0.140
0.046
0.145
-0.029
-0.114
-0.144
-0.049
-0.091
0.026
0.022
-0.160
-0.109
0.065
-0.118
-0.225
-0.258
-0.003
-0.061
-0.134
-0.066
-0.129
-0.204
-0.219
-0.076
-0.126
-0.274
-0.078
-0.120
-0.225
-0.163
-0.217
-0.101
-0.051
0.014
-0.204
-0.106
0.105
0.017
-0.025
-0.185
-0.011
-0.088
0.060
0.018
-0.047
-0.140
0.016
0.066
-0.017
0.036
0.067
0.063
-0.016
-0.072
-0.088
0.028
-0.062
-0.101
0.063
0.223
-0.032
0.006
0.050
0.014
0.009
0.057
0.067
-0.055
-0.006
0.046
0.011
0.014
0.066
0.236
0.000
-0.069
-0.091
-0.153
0.022
0.107
0.061
-0.243
0.068
-0.126
0.022
-0.092
0.016
0.051
0.086
-0.046
-0.137
-0.166
-0.041
0.057
-0.002
0.058
-0.006
-0.165
-0.009
0.047
-0.053
-0.126
-0.071
0.014
-0.023
-0.014
0.012
0.041
-0.072
-0.024
0.001
-0.031
-0.079
0.129
0.062
0.027
0.005
-0.076
-0.186
-0.186
0.007
-0.008
0.019
-0.138
-0.053
-0.022
0.005
-0.194
-0.239
-0.154
-0.100
-0.003
0.032
0.012
0.033
0.226
0.100
0.033
0.098
-0.099
-0.052
-0.104
0.092
0.173
-0.063
-0.009
0.049
-0.056
-0.103
-0.114
0.060
-0.028
-0.152
-0.024
-0.039
-0.023
-0.107
-0.167
-0.136
0.027
0.104
0.020
-0.051
0.004
-0.066
0.033
-0.041
-0.058
-0.011
-0.054
0.002
0.081
0.128
0.187
-0.012
0.090
-0.092
-0.012
0.023
0.156
0.192
0.083
0.091
0.135
0.120
-0.012
0.023
-0.031
-0.132
-0.084
-0.241
-0.130
-0.059
0.064
-0.193
-0.042
-0.117
-0.246
-0.234
-0.489
-0.268
-0.093
-0.201
-0.473
-0.581
-0.145
-0.238
-0.647
-0.981
-0.577
-0.552
-0.348
-0.047
-0.453
-0.618
-0.472
-0.248
0.002
0.169
0.219
0.149
0.131
-0.043
0.237
0.555
0.426
0.479
0.161
0.272
0.171
0.153
0.057
-0.115
0.062
-0.047
-0.030
-0.172
-0.209
-0.097
-0.317
-0.205
-0.408
-0.259
-0.276
-0.175
-0.293
-0.242
-0.223
-0.418
-0.466
-0.542
-0.597
-0.787
0.089
0.216
0.036
0.006
0.018
-0.079
0.258
0.252
0.229
-0.145
-0.017
0.473
0.399
0.571
0.728
0.420
0.211
0.157
0.027
0.117
0.242
0.329
-0.269
-0.308
0.427
0.514
0.431
0.303
-0.198
-0.517
-1.302
-1.359
-0.884
-0.606
-0.179
0.299
0.297
0.127
0.024
0.127
0.102
-0.434
-0.680
-0.354
-0.065
0.636
1.221
1.530
1.217
0.868
0.535
0.522
0.424
0.102
-0.188
0.267
0.478
0.414
0.413
0.351
0.265
0.039
0.063
-0.352
-1.831
-1.266
-0.333
0.259
0.797
0.853
0.153
-0.502
-0.733
-0.699
-0.507
-0.075
0.012
0.064
0.295
0.462
0.346
0.004
-0.105
-0.081
0.004
-0.155
-0.184
-0.083
-0.006
0.067
0.067
-0.364
-0.464
0.021
0.467
0.678
1.037
0.892
1.195
0.840
0.316
-0.030
0.207
0.494
0.642
0.222
-0.359
0.093
0.809
0.874
0.690
0.327
0.033
-0.048
-0.225
-0.090
0.028
0.187
0.238
0.263
0.412
0.500
0.339
0.534
0.374
0.247
0.277
0.170
-0.080
-0.016
-0.218
-0.183
-0.079
-0.069
-0.093
-0.172
-0.133
-0.136
-0.303
-0.320
-0.381
-0.433
-0.119
0.081
0.090
0.072
-0.119
-0.213
-0.195
-0.110
0.008
0.117
0.034
0.056
-0.012
-0.150
-0.081
0.127
0.126
0.095
0.265
0.097
0.042
-0.155
-0.073
-0.036
-0.039
-0.022
0.011
0.023
0.092
0.274
0.198
-0.030
0.011
-0.067
-0.026
-0.119
0.095
0.106
0.063
-0.032
-0.087
-0.025
0.120
0.094
-0.146
-0.045
-0.047
0.059
0.011
-0.009
-0.121
-0.281
-0.047
0.081
0.155
-0.118
-0.068
-0.154
-0.201
-0.166
0.102
0.091
0.086
-0.017
-0.112
0.017
0.079
0.034
0.138
0.143
0.046
0.023
0.112
0.112
0.161
0.084
0.006
0.015
0.122
0.074
0.015
0.147
0.121
0.172
0.049
0.020
0.011
0.055
0.224
0.218
0.080
0.036
0.202
0.139
0.075
-0.030
0.042
0.012
0.173
-0.022
0.029
0.004
0.188
0.023
0.082
0.096
0.016
0.031
-0.086
-0.091
-0.161
-0.190
0.006
0.114
0.117
0.186
0.041
-0.152
-0.109
-0.125
-0.197
-0.043
-0.046
0.063
-0.017
-0.085
-0.003
0.041
-0.016
-0.106
-0.031
-0.053
-0.014
-0.225
0.048
0.026
-0.076
-0.064
0.019
-0.122
-0.018
-0.034
-0.049
-0.027
-0.016
-0.165
-0.055
0.002
0.082
0.071
0.113
0.032
-0.123
0.006
0.107
0.057
-0.048
0.182
-0.060
0.014
0.090
0.134
0.046
-0.034
0.109
0.027
0.027
0.184
0.086
0.008
0.106
0.093
0.186
0.083
0.265
0.039
0.201
0.023
0.092
0.137
0.063
0.119
0.118
-0.006
0.132
0.140
-0.055
-0.058
-0.032
0.148
0.048
-0.042
-0.035
0.147
0.109
-0.018
0.076
0.044
0.000
0.117
0.015
-0.165
-0.071
-0.120
0.064
0.042
0.013
0.023
0.005
-0.079
-0.035
0.067
-0.043
0.058
0.031
-0.057
0.013
0.026
0.008
0.034
0.026
0.006
0.018
-0.012
0.081
0.012
-0.117
0.024
0.058
0.047
-0.016
0.098
0.089
0.098
-0.026
-0.042
0.059
0.016
-0.027
0.052
0.045
0.115
0.135
-0.109
0.005
-0.021
-0.005
0.105
0.105
-0.055
-0.003
-0.030
-0.025
0.135
0.180
-0.058
-0.010
0.092
0.035
0.015
-0.041
0.093
0.145
-0.029
-0.042
0.056
-0.139
-0.107
-0.027
0.015
0.122
0.053
0.026
-0.059
-0.109
0.103
0.082
0.068
-0.018
0.095
0.048
0.015
0.024
0.037
0.074
0.078
0.067
-0.028
-0.080
0.037
0.200
-0.000
-0.108
-0.067
0.098
-0.025
0.080
0.027
0.072
-0.116
0.040
0.063
-0.042
-0.165
0.112
-0.070
0.122
-0.007
0.014
0.038
-0.032
-0.031
-0.026
0.077
0.136
-0.036
0.038
0.041
0.069
-0.088
-0.008
0.019
0.025
0.091
0.068
-0.121
-0.001
0.045
0.005
0.019
0.001
0.035
-0.005
0.061
0.008
0.090
0.029
-0.032
-0.016
-0.029
0.065
0.032
0.116
-0.050
-0.030
0.031
-0.008
0.143
0.010
0.004
-0.065
0.140
0.067
0.036
0.032
-0.021
-0.058
0.013
-0.003
0.003
0.115
-0.048
-0.038
-0.004
-0.013
-0.029
0.096
0.077
0.095
-0.016
0.020
-0.142
0.040
0.179
-0.041
0.078
-0.014
0.030
0.176
-0.031
-0.016
0.068
-0.033
-0.048
0.014
0.070
0.082
0.097
0.055
0.020
0.045
-0.020
0.067
0.043
-0.008
0.000
-0.055
0.028
-0.040
-0.346
-0.098
0.099
0.252
0.098
0.128
-0.022
-0.066
-0.044
0.168
0.011
0.007
0.136
0.187
0.065
0.057
0.086
0.200
-0.046
-0.307
-0.193
-0.015
0.043
0.108
0.134
-0.008
-0.021
-0.095
-0.033
0.011
-0.068
0.071
-0.043
0.194
0.056
0.010
0.137
0.135
0.083
-0.070
-0.043
0.057
0.005
0.252
0.044
-0.169
0.026
0.017
-0.016
-0.069
0.112
0.049
0.012
0.043
0.072
-0.020
-0.041
-0.006
-0.037
-0.052
0.137
0.039
0.095
0.063
-0.011
0.029
0.051
-0.055
-0.001
0.130
-0.037
0.000
0.020
0.144
0.073
0.083
0.197
-0.107
0.068
-0.027
0.001
0.084
-0.038
0.034
-0.021
0.082
0.126
-0.107
-0.008
0.013
-0.101
-0.025
-0.021
0.019
0.036
-0.018
0.009
0.019
0.088
0.049
0.130
0.152
0.101
0.112
-0.245
-0.264
-0.026
0.047
0.134
0.290
0.454
0.048
-0.302
-0.194
-0.011
0.096
-0.057
-0.036
0.023
0.084
-0.113
-0.213
0.125
0.320
0.074
-0.249
-0.073
-0.089
-0.169
0.120
0.026
0.000
0.145
0.062
0.034
0.118
0.069
0.028
0.005
-0.118
0.079
0.017
0.106
0.073
-0.043
0.041
0.048
0.084
0.001
0.077
0.046
0.072
-0.057
0.092
0.085
-0.017
0.031
0.024
-0.043
0.040
-0.040
-0.015
0.016
-0.044
0.015
-0.005
0.004
-0.028
-0.046
0.044
0.011
-0.016
0.060
0.013
-0.004
-0.102
0.052
0.071
0.048
-0.035
0.089
-0.070
0.103
0.045
-0.002
0.060
-0.027
0.125
-0.047
0.084
0.020
0.020
0.077
0.007
-0.106
-0.007
0.090
0.073
0.023
-0.020
0.105
-0.070
-0.006
-0.029
0.021
0.026
0.090
0.065
-0.028
-0.022
-0.047
0.076
-0.016
0.021
0.065
-0.035
0.130
0.074
-0.085
0.054
-0.032
-0.001
0.015
0.083
0.119
-0.004
-0.060
0.037
0.114
-0.078
-0.023
-0.010
0.023
0.059
0.028
0.157
-0.044
-0.015
0.074
0.055
0.012
-0.057
-0.023
0.007
0.032
-0.006
-0.024
-0.016
-0.035
0.159
-0.001
-0.034
-0.010
0.013
-0.322
-0.202
0.114
0.185
0.134
0.123
0.021
0.050
-0.021
-0.046
-0.010
0.075
0.098
0.072
0.174
0.026
0.214
0.027
-0.024
-0.051
0.078
-0.009
-0.029
-0.102
0.012
0.173
0.116
-0.255
-0.056
0.022
-0.107
0.034
0.242
0.080
0.001
-0.010
0.043
0.035
0.198
0.182
0.044
-0.000
-0.199
-0.353
-0.062
0.172
0.110
0.214
0.073
-0.015
-0.095
-0.119
-0.078
-0.048
-0.011
0.107
0.284
0.018
0.047
0.153
0.059
0.118
-0.031
0.009
-0.044
0.066
0.084
-0.000
-0.043
-0.066
0.055
-0.041
0.078
0.022
0.007
-0.017
0.104
0.125
-0.015
0.015
0.027
0.051
-0.014
0.058
0.009
0.027
-0.034
0.035
0.081
0.069
0.043
-0.011
0.046
0.005
-0.021
-0.109
-0.090
0.164
-0.001
-0.051
0.021
0.002
0.086
0.048
0.069
0.156
-0.034
0.071
-0.029
-0.035
0.080
-0.008
-0.020
0.063
0.127
0.060
-0.123
0.030
-0.061
-0.011
-0.050
0.115
0.056
0.031
-0.008
-0.019
0.045
0.053
0.043
0.077
0.027
0.014
-0.029
0.024
0.130
-0.052
-0.063
-0.056
0.073
0.080
0.021
0.011
0.041
0.082
0.035
-0.019
-0.023
0.039
-0.011
0.110
0.041
-0.013
0.053
-0.092
0.013
-0.002
0.041
-0.019
0.032
0.029
0.006
0.052
0.040
0.069
-0.040
0.077
0.028
-0.030
-0.016
0.120
0.062
-0.008
0.003
-0.008
0.074
-0.042
0.122
-0.038
-0.036
0.017
0.199
-0.007
-0.093
0.052
0.031
0.011
0.071
-0.115
0.059
-0.032
0.129
0.027
-0.018
0.120
0.042
-0.034
0.252
0.263
0.090
-0.223
-0.387
-0.201
0.135
0.264
0.272
-0.027
0.012
-0.095
-0.079
-0.164
-0.075
-0.001
0.175
0.342
0.046
-0.181
-0.079
0.095
-0.081
-0.374
0.330
0.507
0.303
0.066
-0.248
-0.088
-0.897
-0.289
0.183
0.338
0.341
0.274
-0.074
-0.223
0.507
-0.360
-0.143
0.131
0.210
0.088
0.240
0.076
1.128
1.281
0.749
0.347
-1.692
-2.521
-1.651
0.937
1.424
1.048
0.443
0.175
-0.619
-0.181
-1.541
-0.899
0.579
2.071
1.859
1.127
0.624
0.451
0.485
0.514
0.504
0.456
0.555
0.360
0.120
0.023
-0.190
-0.390
-0.535
-0.697
-0.491
-0.351
-0.326
-0.186
-0.177
-0.252
-0.177
-0.111
0.152
0.144
-0.595
-2.340
2.515
3.791
0.149
-1.509
2.264
3.497
3.958
1.446
-2.758
0.279
2.010
-1.999
-0.620
2.186
3.494
3.260
2.509
1.712
0.916
0.372
0.914
0.913
-2.695
-1.867
-0.605
0.064
0.347
0.979
0.692
-0.504
-0.014
0.137
-1.041
-1.766
-0.227
0.821
1.027
1.006
0.555
0.288
0.075
0.095
0.150
0.351
0.351
0.584
0.809
0.912
0.820
0.711
0.822
0.552
0.702
0.647
0.547
0.375
0.467
0.461
0.281
0.335
0.342
0.159
0.459
0.293
0.225
0.132
0.238
0.211
0.189
0.053
0.076
1.269
0.948
-0.169
-2.477
-0.847
0.383
0.860
0.362
-0.069
-0.339
-0.452
-0.630
-0.474
-0.376
-0.119
1.207
1.491
0.759
0.075
-0.145
-0.076
0.224
0.405
0.436
0.250
-0.050
-0.049
-0.177
-0.404
-0.726
-0.816
-0.640
-0.605
-0.650
-0.588
-0.563
-0.377
-0.221
-0.106
0.183
0.223
0.413
0.313
0.164
0.266
0.257
0.425
0.403
-0.112
-0.408
0.679
1.322
0.896
0.376
0.304
0.064
0.227
0.190
0.397
0.462
0.307
-0.369
-0.409
-0.719
-0.468
-0.718
-0.848
-0.204
-0.124
-0.407
-0.453
-0.531
-0.360
-0.050
0.066
0.003
-0.148
0.213
0.288
0.612
0.711
0.589
0.371
0.234
-0.073
-3.027
-4.152
-0.692
3.023
4.079
3.048
0.062
-2.292
-3.062
-2.518
-1.153
0.422
1.746
2.861
3.362
3.404
3.054
2.840
2.960
1.770
0.386
-0.722
-1.098
-1.117
-1.228
-0.947
-0.735
-0.391
-0.439
-0.388
-0.330
-0.484
-0.520
-0.451
-0.437
-0.369
-0.297
-0.027
0.020
-0.200
0.037
0.242
0.434
0.373
0.525
0.597
0.679
0.725
0.831
0.703
0.849
0.839
0.859
0.661
0.753
0.796
0.642
0.934
0.808
0.720
0.712
0.646
0.644
0.553
0.610
0.444
0.380
0.423
0.382
0.169
0.137
0.027
0.195
0.018
0.022
0.045
-0.093
-0.185
-0.178
-0.226
-0.210
-0.200
-0.277
-0.337
-0.279
-0.145
-0.344
-0.367
-0.491
-0.416
-0.346
-0.389
-0.348
-0.416
-0.392
-0.399
-0.354
-0.262
-0.302
-0.280
-0.384
-0.362
-0.230
-0.246
-0.148
-0.140
-0.188
0.023
-0.162
-0.124
-0.101
-0.076
-0.020
-0.019
0.001
0.078
0.016
-0.031
-0.093
0.002
-0.048
0.076
0.003
0.136
0.063
0.025
-0.099
0.106
0.059
-0.056
0.056
-0.022
-0.048
0.062
0.088
0.038
0.056
0.061
0.045
0.071
0.058
-0.045
0.036
-0.165
-0.121
-0.035
-0.064
-0.088
0.047
0.075
-0.102
0.171
0.119
0.178
0.176
0.147
0.200
0.257
0.128
0.176
0.191
0.197
0.195
0.097
0.099
0.120
-0.000
0.182
0.067
0.018
-0.097
-0.043
-0.032
-0.163
-0.019
0.107
-0.010
0.049
0.100
0.260
0.090
0.079
0.128
0.019
0.173
0.162
0.068
0.072
0.199
0.182
0.002
0.060
0.055
0.094
0.014
0.080
0.006
-0.051
0.156
0.045
0.046
-0.109
0.029
0.015
-0.071
-0.143
-0.053
0.001
0.011
-0.018
-0.121
0.008
-0.119
-0.077
0.005
-0.073
-0.103
-0.213
-0.051
-0.210
-0.191
-0.114
-0.096
-0.095
-0.074
-0.174
-0.120
-0.107
-0.115
-0.033
-0.090
-0.148
-0.163
-0.083
0.035
-0.115
-0.057
-0.054
0.044
-0.009
-0.005
-0.113
-0.214
-0.117
0.074
0.017
0.191
-0.056
-0.051
0.307
0.258
0.289
0.212
0.099
0.023
0.166
0.264
0.247
0.277
0.313
0.218
0.078
0.103
0.064
0.037
0.080
0.128
-0.087
-0.101
0.130
0.065
0.022
0.086
0.034
0.054
0.075
0.006
0.011
0.114
-0.155
0.069
-0.001
0.074
-0.099
-0.043
-0.070
-0.029
0.072
-0.043
-0.087
-0.043
0.051
-0.105
0.037
-0.096
0.001
-0.014
-0.023
-0.071
-0.084
0.062
-0.056
-0.120
-0.047
-0.066
-0.045
-0.053
-0.030
0.019
0.033
0.077
-0.084
0.013
-0.123
0.019
-0.013
0.106
-0.009
-0.087
-0.072
-0.015
-0.051
-0.008
0.095
0.049
0.055
-0.034
-0.071
0.027
-0.016
0.162
0.030
0.061
-0.062
0.152
-0.016
-0.015
-0.014
0.180
0.066
0.068
0.039
0.119
0.014
0.120
-0.003
-0.062
-0.023
0.066
0.102
0.043
0.027
-0.014
0.027
0.173
0.026
0.085
0.044
0.033
-0.044
-0.018
0.098
0.004
0.054
-0.077
0.041
0.054
0.003
0.107
-0.022
-0.029
0.054
0.026
-0.103
-0.052
0.132
-0.094
-0.018
-0.040
-0.041
-0.106
-0.058
-0.138
-0.072
0.021
0.026
0.002
-0.105
-0.088
0.040
0.072
-0.134
-0.124
-0.304
-0.026
-0.032
-0.136
-0.062
-0.139
-0.083
0.036
0.071
0.034
0.055
0.047
-0.110
-0.105
0.079
0.043
0.009
0.163
0.090
-0.061
0.023
0.160
-0.027
-0.108
0.061
-0.094
0.012
0.014
-0.072
-0.066
-0.025
-0.015
-0.076
-0.189
-0.069
0.106
0.136
0.025
0.010
-0.115
0.038
-0.005
-0.018
0.149
0.095
0.152
-0.017
0.101
0.001
0.107
0.179
0.210
0.006
0.056
0.248
-0.021
-0.034
0.146
0.158
-0.042
0.095
0.116
0.166
-0.009
-0.052
0.044
0.107
0.050
0.107
0.052
-0.000
-0.010
0.120
0.103
-0.047
-0.121
-0.522
-0.154
-0.042
-0.165
-1.081
-1.052
-0.822
-0.361
-0.142
0.507
-0.213
-1.075
-0.911
0.023
0.366
0.217
0.241
-0.454
-0.466
0.081
0.015
-0.085
0.384
0.586
0.906
0.975
-0.155
-0.635
-0.145
-0.546
-1.388
-0.793
-0.163
0.015
-0.075
-0.284
0.020
0.715
0.650
0.324
-0.199
-0.558
-3.522
-4.420
-0.535
1.073
0.064
-0.755
-1.772
-1.657
-3.147
-2.501
-1.619
-2.558
-1.669
0.576
0.138
-1.243
-0.259
0.939
1.306
1.589
2.416
1.011
0.567
0.571
-1.179
-1.052
0.279
2.761
3.749
3.225
1.739
0.343
-0.829
-0.026
0.541
-0.289
-0.151
0.598
0.362
0.471
-0.199
-0.588
-0.762
-1.210
-1.644
-1.573
-1.466
-1.104
-0.620
-0.272
-0.177
0.307
0.790
0.921
1.037
0.735
0.699
0.563
0.473
0.713
0.640
0.855
0.973
1.517
1.519
1.074
0.888
0.488
0.488
0.619
0.966
1.009
1.310
1.158
0.909
0.780
0.627
0.456
0.331
0.318
0.743
0.735
0.104
-0.007
0.196
0.665
0.555
0.512
0.714
0.679
0.329
0.103
-0.257
-0.336
-0.224
-0.025
0.165
0.501
0.450
0.409
0.140
-0.103
-0.200
-0.598
-1.228
-1.960
-1.173
-0.372
0.319
0.651
0.308
0.063
-0.335
-0.425
-0.457
-0.387
-0.177
0.084
0.284
0.389
0.289
0.455
0.192
0.160
0.081
-0.097
-0.089
-0.262
-0.456
-0.576
-0.541
-0.412
-0.559
-0.439
-0.494
-0.226
-0.233
-0.126
-0.231
-0.081
-0.141
-0.133
-0.007
0.055
0.019
-0.090
-0.064
-0.103
-0.080
0.099
-0.024
-0.017
-0.009
0.066
0.217
0.244
0.227
0.113
0.065
-0.009
0.166
0.227
0.172
0.228
0.325
0.209
0.232
0.132
0.291
0.290
0.276
0.589
0.841
0.123
-0.109
0.117
0.237
0.201
0.187
0.465
0.655
0.535
0.338
-0.034
-0.096
-0.058
0.035
-0.132
-0.063
0.059
0.224
0.181
0.201
0.257
0.160
-0.307
-0.317
0.057
0.298
0.546
0.360
0.287
0.085
0.021
0.711
0.600
0.388
0.464
0.315
-0.120
-0.052
0.347
0.087
-0.009
-0.137
0.021
0.255
-0.004
-0.129
-0.127
-0.432
-0.382
-0.398
-0.198
0.056
0.164
0.043
-0.184
-0.249
-0.138
-0.094
0.046
-0.003
-0.057
-0.168
0.077
0.092
-0.142
-0.071
-0.221
-0.072
0.301
0.398
0.042
0.043
-1.011
-1.302
-1.152
1.085
1.730
1.080
0.444
-0.060
-2.363
-3.739
1.748
3.890
4.443
2.701
-1.130
-2.999
-3.232
-2.281
-0.455
1.847
3.709
4.297
4.305
4.067
3.293
2.366
1.326
0.295
-0.833
-1.240
-1.866
-2.685
-3.300
-3.211
-3.523
-4.077
-2.069
0.582
0.747
0.249
0.357
0.479
0.339
0.514
0.805
1.187
1.380
1.800
2.029
2.134
2.111
1.992
1.484
0.835
0.535
0.329
0.159
-0.004
-0.018
-0.177
-0.316
-0.373
-0.127
0.041
-0.061
0.150
0.084
-0.012
0.249
0.010
0.003
0.011
-0.115
-0.068
0.019
-0.102
-0.191
-0.035
-0.079
-0.035
-0.079
-0.237
-0.201
-0.158
-0.084
0.000
-0.073
-0.128
-0.132
-0.125
-0.043
-0.020
-0.022
-0.137
-0.072
-0.059
0.059
-0.022
0.019
-0.193
-0.048
0.008
-0.047
0.005
-0.124
-0.164
0.002
0.694
1.700
1.810
0.899
0.280
-0.164
-2.401
-3.505
0.683
3.050
2.751
1.466
-0.265
-1.145
-1.423
-1.384
-0.975
-0.513
0.085
0.320
0.631
0.750
0.910
0.801
0.644
0.534
0.341
0.286
-0.014
-0.181
-0.015
-0.042
-0.209
0.006
-0.138
0.037
0.165
0.225
0.063
0.151
0.176
0.144
0.260
0.084
0.173
0.098
0.106
0.079
0.096
0.196
-0.007
0.195
0.189
0.106
0.083
0.061
0.023
0.161
-0.005
0.020
-0.047
0.072
0.103
-0.008
0.045
0.043
0.001
0.088
0.039
0.068
-0.008
-0.039
-0.066
0.025
0.008
0.062
-0.015
-0.066
0.067
-0.012
-0.032
0.073
0.068
-0.090
-0.034
-0.083
-0.069
-0.018
0.025
0.030
-0.007
-0.080
-0.058
-0.098
0.014
-0.047
0.109
-0.012
-0.091
-0.036
-0.098
0.038
0.068
0.070
0.312
1.571
-0.983
-1.842
-0.500
0.427
0.566
0.391
0.122
0.024
-0.073
-0.241
-0.148
0.057
-0.036
-0.171
0.142
0.272
0.047
0.186
0.227
0.205
0.574
1.213
0.993
-0.407
-2.954
-1.215
0.597
1.185
0.742
0.362
-0.023
-0.372
-0.446
-0.415
-0.215
-0.108
0.133
0.022
0.348
0.297
0.286
0.350
0.204
0.090
0.152
0.067
0.113
0.013
0.010
-0.008
0.978
1.087
-1.134
-0.430
1.067
0.863
-0.093
-0.451
-0.365
-0.163
0.080
-0.031
0.192
0.083
-0.377
-0.348
-0.259
-0.328
-0.276
-0.158
-0.000
0.143
0.065
-0.037
-0.089
0.097
0.198
0.216
0.113
0.036
-0.206
-0.142
0.020
-0.517
-2.019
-1.410
0.386
0.958
0.841
0.413
0.063
-0.051
-0.257
-0.109
0.184
0.436
0.632
0.658
0.631
0.540
0.642
0.370
0.287
0.052
-0.127
-0.204
-0.297
-0.286
-0.409
-0.324
-0.270
-0.119
-0.098
0.207
0.855
0.936
0.447
-0.131
-0.201
-0.039
-0.154
-0.331
-3.334
-0.567
2.124
3.640
0.253
-2.290
-1.581
-1.064
-0.576
0.673
1.298
0.885
-2.614
-1.415
0.992
1.910
1.817
1.201
0.614
0.074
-0.038
-0.373
-0.304
-0.186
0.078
0.140
0.350
0.248
0.376
0.188
0.318
0.301
0.255
0.172
0.121
0.165
0.114
0.016
0.061
0.042
-0.025
0.114
-0.120
0.051
0.145
0.152
0.148
0.179
0.046
0.008
-0.074
0.105
-0.048
0.071
0.026
0.036
0.068
0.015
-0.104
-0.049
0.010
0.031
-0.026
0.047
0.054
-0.066
0.012
0.022
-0.136
-0.011
-0.043
0.025
-0.098
-0.032
0.022
-0.011
-0.176
-0.026
0.033
0.040
0.039
-0.005
0.028
-0.025
-0.123
0.039
0.035
0.032
0.109
-0.008
-0.096
-0.004
-0.086
0.047
0.096
0.030
0.049
0.025
0.089
-0.045
0.001
0.063
0.039
0.075
0.053
-0.071
-0.001
0.054
0.066
0.074
-0.005
0.048
0.077
-0.039
0.121
-0.016
-0.005
-0.009
0.040
0.015
-0.114
-0.048
0.116
0.044
-0.069
0.052
0.029
0.035
-0.030
0.016
0.052
0.011
-0.070
0.034
-0.004
-0.042
0.058
0.016
0.062
-0.003
0.086
0.060
0.028
0.108
0.045
-0.011
0.020
0.078
0.014
0.125
-0.035
0.064
0.198
0.028
0.021
0.116
0.008
0.010
0.080
-0.033
-0.002
0.007
0.108
0.064
-0.071
0.091
0.065
-0.123
0.096
0.096
-0.031
-0.053
0.026
-0.065
0.054
0.053
-0.017
0.044
0.074
-0.092
0.031
0.006
-0.079
-0.010
0.063
-0.029
-0.129
0.022
0.043
0.026
0.041
-0.008
0.076
-0.026
-0.076
-0.028
-0.006
0.045
0.015
-0.102
0.079
0.013
0.036
0.013
-0.119
-0.013
0.064
0.069
0.007
0.064
-0.044
-0.007
0.114
0.032
0.025
0.075
0.027
-0.079
0.042
-0.058
-0.031
-0.017
0.024
0.073
-0.004
0.038
0.093
0.013
0.079
-0.002
-0.056
0.072
0.128
0.050
-0.063
0.069
-0.063
0.106
0.024
0.055
0.004
0.067
0.098
-0.016
0.093
0.011
0.101
-0.053
0.052
0.073
-0.020
0.003
-0.004
0.113
0.002
0.057
0.114
0.001
0.042
-0.024
-0.025
0.057
0.014
-0.040
-0.008
0.086
0.010
0.055
0.027
0.096
0.048
0.035
-0.140
-0.012
0.076
0.005
-0.053
0.056
-0.017
-0.007
-0.137
0.024
0.094
0.095
0.022
0.399
-0.216
-0.105
1.096
-0.989
0.195
1.951
1.721
0.091
0.217
0.352
0.274
-1.269
-2.912
1.022
3.240
2.490
0.809
-0.556
-0.608
-2.290
-1.997
-0.507
1.409
1.721
1.275
-1.606
1.221
2.349
-0.690
-1.918
1.665
2.443
2.851
2.447
0.637
-0.971
-2.606
-3.744
-0.401
1.995
3.352
3.650
2.395
0.863
-2.733
-2.362
0.423
1.742
1.575
0.981
0.230
-0.069
-0.464
-0.343
-0.311
-0.161
0.223
0.500
0.576
0.647
0.639
0.569
0.500
0.544
0.329
0.393
0.349
0.252
0.260
0.384
0.313
0.043
0.427
2.150
1.905
1.204
0.542
0.089
-3.011
1.081
3.355
-1.255
-0.173
2.727
-0.937
0.096
0.253
0.006
0.330
0.029
-0.156
-0.245
-0.877
-2.595
-1.763
2.764
3.582
2.349
0.805
-2.818
-3.109
-0.203
1.754
3.041
1.597
-0.310
-0.086
0.167
-3.011
-1.796
1.527
2.655
2.216
1.019
0.040
-0.660
-0.940
-0.890
-0.639
-0.469
-0.057
0.302
0.287
0.297
0.456
0.528
0.375
0.282
0.181
0.002
0.101
-0.098
-0.115
0.097
-0.040
0.123
0.052
0.139
0.367
0.191
0.971
1.130
-1.623
-0.594
0.358
0.950
0.632
0.217
-0.012
0.019
0.271
0.555
0.451
0.026
-0.329
-0.080
0.025
0.287
0.330
0.364
0.278
0.209
0.077
-0.057
-0.222
-0.220
0.175
0.145
0.191
-0.008
-0.086
-0.030
-0.035
0.036
0.063
-0.004
0.109
0.112
-0.663
-0.206
0.241
0.536
0.491
0.057
-0.224
-0.152
-0.299
-0.134
0.078
0.139
0.160
0.139
0.133
0.037
-0.011
0.018
-0.221
-0.138
-0.148
-0.091
-0.037
-0.109
0.000
-0.100
0.013
0.039
-0.018
-0.042
0.118
0.022
-0.040
-0.121
0.016
0.092
0.027
0.059
0.022
-0.018
-0.018
-0.130
0.081
0.001
-0.067
0.056
0.004
-0.077
0.031
-0.001
0.108
-0.025
-0.035
0.112
-0.027
-0.016
0.030
0.118
0.032
0.055
0.032
-0.153
0.136
-0.032
-0.008
-0.048
0.063
0.029
0.061
0.041
-0.009
-0.010
0.077
-0.076
0.001
-0.046
-0.084
0.159
0.100
0.003
0.141
0.035
0.073
-0.006
-0.032
0.132
0.251
-0.001
-0.114
0.009
0.012
0.085
-0.107
0.126
0.071
-0.049
0.116
0.144
-0.082
0.120
-0.006
0.162
-0.005
0.124
0.034
0.213
0.016
-0.094
-0.088
0.118
-0.005
-0.004
-0.018
0.028
0.127
0.001
-0.006
-0.056
0.002
0.035
-0.034
0.129
0.024
-0.111
-0.001
-0.115
-0.025
-0.022
-0.005
0.056
-0.063
-0.140
-0.086
0.051
-0.034
-0.002
0.182
-0.003
-0.111
0.007
0.094
-0.072
0.032
-0.027
0.080
0.115
0.031
0.067
-0.001
0.013
-0.005
-0.014
-0.002
0.049
-0.044
0.238
0.042
0.115
-0.037
-0.027
0.133
-0.060
0.071
0.045
0.015
0.026
-0.013
-0.013
0.052
0.092
0.012
-0.063
0.111
0.109
-0.056
0.113
-0.035
0.038
0.089
0.186
-0.049
-0.118
0.117
-0.076
0.134
0.098
0.060
0.060
0.041
0.050
0.048
0.074
0.074
0.095
-0.115
-0.037
0.060
0.106
-0.044
0.032
-0.052
0.055
0.062
-0.120
0.084
0.007
0.044
0.013
-0.033
-0.020
-0.025
0.093
-0.094
0.028
0.127
0.033
-0.089
0.066
-0.015
-0.080
0.015
0.029
0.087
0.030
0.057
0.022
0.005
-0.102
-0.012
0.083
0.079
0.104
-0.046
0.036
-0.120
0.001
0.069
-0.119
-0.079
0.042
0.077
-0.019
-0.001
-0.003
0.048
0.012
0.026
0.010
-0.011
0.184
0.020
-0.027
0.092
0.080
0.035
-0.030
0.079
0.036
0.034
0.033
-0.036
-0.057
-0.033
0.072
0.059
0.123
0.056
0.044
-0.059
-0.005
0.097
0.049
-0.080
0.020
-0.045
0.073
0.070
0.038
0.086
-0.069
0.080
0.085
-0.056
0.040
-0.060
-0.051
0.083
0.037
0.041
-0.043
0.021
-0.033
0.106
0.012
-0.056
0.020
-0.111
0.027
-0.084
0.081
-0.027
0.053
0.062
-0.089
0.134
-0.007
0.037
-0.003
0.030
0.121
-0.090
-0.119
-0.006
0.138
0.077
-0.115
-0.012
0.007
-0.130
0.078
0.049
-0.048
0.068
-0.092
0.013
0.158
-0.056
0.057
0.054
0.168
-0.047
-0.018
0.058
-0.036
-0.014
-0.049
0.048
-0.058
0.120
0.063
0.029
0.160
-0.129
-0.118
0.064
0.280
0.121
0.007
0.065
0.083
-0.067
-0.044
0.017
0.091
0.371
0.140
-0.100
-0.206
0.024
-0.090
0.038
0.194
-0.045
0.091
0.028
0.174
0.311
0.052
-0.179
-0.076
-0.032
0.054
0.158
0.151
0.010
0.151
0.284
-0.012
0.020
-0.057
-0.028
-0.100
0.068
0.112
0.154
0.152
0.277
0.267
0.102
-0.315
-0.280
-0.229
0.184
0.340
0.237
0.172
0.103
-0.051
-0.047
0.007
-0.075
0.068
0.057
0.207
0.055
0.151
0.023
-0.103
-0.027
-0.032
-0.011
-0.041
0.060
0.178
0.156
0.136
0.051
-0.069
-0.069
0.059
0.144
0.092
0.018
-0.014
0.046
-0.137
-0.606
-0.701
-0.439
-0.189
-0.039
-0.205
-0.007
-0.010
-0.007
-0.065
-0.067
-0.168
-0.107
0.063
0.102
0.289
0.483
0.262
0.453
1.329
1.303
0.792
0.197
0.105
-0.069
0.059
0.298
0.282
0.188
0.273
0.218
0.037
-0.149
-0.368
-0.192
-0.532
-0.540
-0.436
-0.403
-0.530
-0.513
-0.042
0.148
0.224
0.086
-0.101
-0.165
-0.022
-0.037
0.102
0.192
0.260
0.578
0.446
0.306
0.189
0.133
0.162
0.252
0.231
0.344
0.187
0.267
0.316
0.131
0.186
0.017
0.108
0.142
0.167
0.126
-0.043
-0.024
0.075
0.063
0.052
0.018
-0.008
0.064
0.118
0.168
0.060
-0.056
0.069
-0.044
-0.109
-0.052
0.028
-0.024
-0.133
-0.019
0.038
-0.051
0.017
-0.117
0.010
-0.005
-0.068
-0.096
-0.057
-0.117
-0.030
-0.114
-0.249
-0.089
0.157
-0.012
0.005
0.021
-0.027
-0.019
-0.018
-0.043
-0.179
0.008
0.093
0.004
-0.010
0.028
-0.023
-0.227
-0.026
0.083
-0.097
-0.002
-0.037
-0.010
0.040
0.032
-0.006
-0.076
0.073
-0.018
0.044
-0.010
-0.072
0.038
0.059
0.070
0.149
-0.039
0.026
0.169
0.090
0.046
0.056
0.048
-0.020
0.048
0.192
0.086
-0.097
-0.033
0.116
-0.037
0.066
-0.070
0.005
-0.055
0.142
0.130
-0.140
-0.016
-0.052
-0.025
-0.009
0.047
0.046
-0.044
-0.017
-0.035
0.118
-0.047
-0.092
-0.050
0.019
0.049
0.064
-0.014
0.001
-0.045
-0.038
0.022
0.047
0.102
0.125
-0.013
-0.050
0.049
-0.040
0.028
-0.040
0.044
0.082
0.064
-0.011
-0.005
-0.018
-0.017
0.136
-0.018
-0.037
-0.018
0.014
0.035
-0.096
0.028
0.031
-0.073
0.007
0.024
-0.058
-0.074
-0.037
-0.026
-0.042
-0.139
-0.171
-0.019
0.029
-0.002
-0.028
-0.151
-0.012
-0.064
-0.007
-0.068
-0.044
-0.012
0.009
-0.017
0.012
-0.008
-0.007
0.090
0.054
0.115
0.041
-0.059
0.103
0.006
0.013
0.088
0.074
-0.056
0.095
0.085
0.013
-0.032
0.062
-0.098
0.024
0.118
-0.139
-0.118
0.060
-0.007
0.011
0.054
-0.087
-0.103
0.053
0.049
0.016
0.009
-0.040
-0.092
0.046
-0.070
-0.025
0.210
0.360
0.121
0.097
-0.060
0.057
0.059
-0.024
0.057
0.116
0.233
0.015
0.064
0.037
0.039
-0.010
0.056
-0.145
0.005
-0.062
-0.043
-0.036
-0.029
-0.075
0.093
-0.069
-0.303
-0.267
-0.152
0.292
0.305
0.034
0.063
-0.040
-0.198
-0.179
-0.189
0.084
0.091
0.288
0.134
0.035
0.048
-0.022
0.010
0.020
0.128
0.012
0.099
0.267
0.247
0.057
0.087
0.072
0.041
0.022
0.068
0.050
-0.025
0.117
0.024
0.088
-0.030
-0.126
-0.147
-0.062
0.041
0.086
-0.036
-0.071
0.051
0.064
-0.005
0.010
0.092
0.165
0.073
-0.016
0.103
-0.106
0.087
0.082
-0.058
0.038
0.138
0.174
0.040
0.001
0.001
0.016
0.046
0.167
0.088
0.091
-0.020
0.002
0.083
0.079
0.056
0.109
0.135
0.063
-0.069
-0.015
0.198
0.107
-0.121
0.037
0.020
0.013
0.105
-0.004
-0.117
0.056
-0.208
0.006
-0.039
-0.093
-0.065
-0.153
0.118
0.034
-0.040
0.088
0.127
-0.074
-0.038
-0.066
0.141
-0.126
0.047
0.133
0.067
0.069
0.171
0.041
0.213
0.092
-0.030
0.049
0.037
-2.700
-3.967
-4.215
0.840
3.694
4.483
4.449
-1.370
-3.660
-4.271
-4.008
0.914
3.706
4.451
4.544
4.427
4.245
4.054
3.864
2.466
-0.317
-2.712
-4.480
-5.079
-5.082
-4.819
-3.973
-3.074
-1.871
-0.901
-0.063
0.447
0.924
1.313
1.192
1.111
1.023
0.617
0.508
0.354
0.030
0.062
0.094
0.046
0.069
0.184
0.323
0.170
0.117
0.336
0.255
0.323
0.190
0.102
-0.062
-0.194
-0.162
-0.083
-0.162
-0.120
-0.118
-0.152
-0.136
-0.050
-0.180
-0.257
-0.309
-0.280
-0.179
-0.187
-0.150
-0.191
-0.234
-0.183
-0.438
-0.316
-0.488
-0.284
-0.351
-0.390
-0.363
-0.390
-0.442
-0.350
-0.436
-0.335
-0.271
-0.369
-0.205
-0.267
-0.341
-0.272
-0.200
-0.028
-0.087
-0.160
-0.121
0.005
-0.018
0.026
-0.047
-0.121
0.006
0.232
0.449
0.561
0.324
0.174
0.085
0.174
0.052
-2.782
-3.891
-4.106
1.585
4.023
4.647
4.604
-1.138
-3.524
-4.174
-4.015
0.417
3.601
4.504
4.620
4.522
4.330
4.136
-1.007
-1.904
2.146
3.309
-0.777
-3.257
-3.088
-4.369
-4.762
0.204
3.164
4.006
3.284
2.313
0.741
0.151
1.074
1.891
2.390
2.646
2.334
1.755
2.787
3.186
1.922
0.516
-0.311
-0.582
-0.544
-0.316
0.215
0.517
0.583
0.575
0.503
0.466
0.383
0.224
0.112
0.159
0.089
0.317
0.364
0.557
0.637
0.778
0.803
1.046
1.143
1.222
1.229
1.092
1.166
1.291
1.141
1.157
1.022
1.067
0.965
0.963
0.897
0.809
0.746
0.691
0.754
0.440
0.438
0.496
0.476
0.344
0.092
0.177
0.032
0.075
0.028
-0.176
-0.181
-0.266
-0.277
-0.528
-0.325
-0.281
-0.266
-0.511
-0.584
-0.630
-0.882
-0.970
-1.220
-1.194
-1.328
-1.001
-0.580
-0.443
-0.515
-0.720
-0.975
-1.157
-0.791
-0.629
-0.488
-0.386
-0.221
-0.109
-0.221
-0.244
-0.079
-0.018
-0.020
-0.190
-0.159
-0.055
-0.221
-0.129
-0.280
0.002
-0.014
-0.019
-0.038
-0.071
-0.084
0.110
0.041
0.048
0.091
-0.082
-0.191
0.057
-0.808
0.743
1.633
1.086
0.570
0.176
-0.048
-0.037
0.255
0.386
0.511
0.507
0.383
0.340
0.148
-0.026
-0.064
-0.131
-0.159
-0.488
-0.245
-0.192
-0.161
-0.116
-0.089
-0.033
0.063
0.082
0.234
0.151
0.220
0.312
0.201
0.245
0.285
-0.601
-3.095
-3.805
-3.888
-2.927
2.829
4.665
5.082
3.965
-1.280
-3.305
-3.863
-2.181
1.251
3.945
4.719
4.753
4.634
4.395
4.194
3.168
1.479
-0.167
-1.523
-2.570
-3.116
-3.407
-3.871
-4.665
-4.778
-4.681
-4.281
-4.236
-2.132
2.978
4.505
4.560
0.421
-2.864
-3.845
-3.596
-0.961
2.696
4.360
4.750
4.713
4.527
4.342
4.112
3.139
1.701
0.204
-1.155
-2.137
-2.581
-2.705
-2.548
-2.008
-1.528
-1.178
-0.722
-0.427
-0.083
0.043
0.275
0.315
0.282
0.255
0.108
0.062
0.190
0.045
-0.009
0.574
2.165
1.303
-0.021
-2.863
-0.812
1.420
1.744
1.426
0.767
0.308
0.084
-0.137
-0.127
0.069
0.093
0.418
0.699
0.806
0.787
0.589
0.658
0.732
0.559
0.590
0.301
0.321
0.429
0.299
0.242
0.093
0.197
0.184
0.186
0.143
0.244
0.212
0.068
0.002
0.012
0.009
-0.088
0.073
0.049
-0.089
-0.062
-0.059
-0.217
-0.047
-0.054
-0.028
-0.135
-0.206
-0.339
-0.135
-0.062
-0.208
-0.207
-0.133
-0.129
-0.152
-0.195
-0.208
-0.235
-0.142
-0.205
-0.226
-0.176
-0.015
-0.082
-0.061
-0.201
-0.155
-0.119
-0.054
-0.059
-0.028
-0.082
-0.098
-0.041
0.002
-0.067
0.007
0.034
0.091
-0.048
0.040
0.028
0.114
-0.072
-0.046
0.079
0.123
0.041
0.039
0.088
0.004
0.198
0.064
0.024
0.020
0.156
-0.020
0.080
0.176
0.096
0.054
-0.018
0.037
0.147
0.096
0.060
0.148
0.063
-0.020
0.154
0.136
-0.044
0.097
-0.061
0.069
0.151
0.069
-0.053
0.023
0.067
0.201
-0.057
0.078
0.048
0.047
0.133
0.170
-0.003
-0.013
0.031
0.067
0.011
0.074
0.134
0.017
-0.124
0.114
0.097
-0.066
-0.002
0.099
0.039
0.075
-0.058
-0.053
0.038
0.125
-0.009
0.040
0.040
-0.156
-0.046
0.104
0.031
-0.031
0.018
-0.001
-0.149
-0.108
0.015
0.046
0.036
-0.074
-0.076
0.021
-0.148
-0.018
0.065
0.104
0.009
-0.142
-0.004
0.019
-0.109
-0.065
-0.002
-0.009
0.123
-0.076
-0.023
-0.086
-0.022
-0.147
0.022
-0.040
0.053
0.015
-0.073
0.059
-0.034
0.044
-0.025
0.033
0.039
0.111
-0.070
0.006
0.151
0.072
0.043
-0.022
0.089
0.058
0.159
0.036
0.031
-0.143
0.080
0.142
0.080
0.078
0.140
0.018
0.027
0.058
-0.038
0.125
0.163
0.058
0.132
-0.024
0.037
0.058
0.052
0.094
0.048
0.039
