0.086
0.365
0.117
-0.003
-0.115
-0.115
0.079
-0.036
-0.121
-0.118
-0.136
0.122
0.546
0.116
-0.066
0.154
0.184
-0.065
-0.081
0.042
-0.089
-0.042
0.009
0.010
0.080
0.060
-0.081
0.031
0.044
-0.023
0.054
-0.079
-0.177
0.077
0.140
0.014
0.047
-0.104
-0.046
0.156
0.164
0.150
0.108
-0.060
0.106
-0.056
-0.026
0.105
0.124
0.124
0.011
0.140
-0.095
-0.105
0.052
0.083
0.061
-0.072
-0.013
0.043
0.015
0.022
0.071
0.046
-0.005
0.154
0.022
-0.034
0.027
0.126
-0.092
0.120
0.101
0.058
0.154
0.019
-0.097
-0.090
0.112
0.040
0.082
-0.060
0.014
-0.068
-0.112
-0.033
0.143
0.048
-0.041
0.028
-0.147
-0.093
-0.064
-0.006
0.051
0.031
-0.329
-0.177
0.168
0.405
0.011
-0.311
-0.342
-0.444
-0.602
-0.540
0.192
0.472
0.117
0.109
-0.052
-0.122
-0.011
0.089
0.305
0.209
0.263
0.204
0.482
0.341
0.275
0.262
0.222
0.097
-0.005
0.055
-0.058
-0.133
-0.169
-0.089
-0.070
-0.177
-0.075
-0.243
-0.064
-0.065
-0.147
-0.126
-0.043
-0.162
-0.189
-0.153
0.030
-0.262
-0.259
0.004
0.376
0.133
-0.473
-0.346
-0.153
-0.038
-0.114
0.304
0.470
0.141
-0.063
-0.003
-0.015
0.023
0.157
-0.960
-1.983
0.882
2.132
1.558
0.700
-0.046
-0.114
-0.229
0.105
0.323
0.347
0.477
0.586
0.342
0.307
-0.035
0.137
0.570
0.045
-0.151
-1.767
-2.158
-3.851
-4.016
1.852
3.937
4.025
0.808
-1.851
-2.880
-2.318
-0.919
0.655
2.051
2.868
3.123
2.964
2.484
1.837
1.075
0.375
-0.259
-0.691
-1.086
-1.184
-1.158
-1.132
-0.961
-0.673
-0.537
-2.538
-3.813
-3.317
1.587
2.878
3.639
2.279
0.403
-0.903
-1.293
-0.735
0.223
1.023
1.727
2.030
2.011
1.904
1.615
1.043
0.585
0.400
0.029
-0.362
-0.527
-0.614
-0.581
-0.541
-0.555
-0.434
-0.005
0.036
0.131
0.115
0.194
0.074
0.220
0.130
0.084
0.128
0.162
0.073
0.064
0.117
0.049
-0.047
-0.098
0.035
-0.035
-0.372
-0.419
0.252
-0.095
-0.310
0.141
0.294
-0.206
-0.196
-0.077
0.125
0.194
0.113
0.113
0.148
0.015
0.217
0.316
0.320
0.421
0.338
0.239
-0.039
-0.196
0.103
0.342
0.602
0.442
0.169
-0.003
-0.175
-0.061
0.045
-0.024
-0.150
-0.086
-0.173
-0.104
-0.204
-0.216
-0.336
-0.309
-0.271
-0.339
-0.299
-0.337
-0.306
-0.040
-0.278
-0.106
0.026
0.035
-0.070
0.068
0.026
0.168
0.079
0.077
0.143
0.084
-0.041
-0.131
-0.012
0.116
0.343
0.306
0.266
0.215
0.068
0.185
0.182
0.219
0.178
0.319
0.269
0.283
0.187
0.279
0.131
0.213
0.069
0.166
0.074
0.127
0.145
0.206
-0.003
0.036
-0.095
-0.125
0.051
-0.076
0.054
0.098
0.311
0.119
-0.155
-0.163
-0.207
-0.305
0.034
0.422
0.259
0.005
0.056
-0.097
-0.186
-0.111
-0.169
-0.149
-0.184
-0.005
0.123
0.050
-0.126
-0.064
-0.138
-0.044
-0.023
-0.012
-0.046
0.129
0.081
0.011
-0.004
0.212
-0.104
0.138
-0.090
-0.079
0.011
0.103
0.017
-0.004
-0.142
-0.030
-0.047
-0.007
-0.010
0.078
-0.005
0.049
-0.047
-0.051
0.072
0.028
0.095
-0.004
-0.093
-0.027
-0.078
-0.001
0.014
-0.007
0.106
0.048
-0.053
-0.054
0.059
0.061
-0.034
-0.058
-0.058
0.003
-0.005
-0.052
0.061
0.085
0.002
0.043
-0.045
0.033
-0.022
0.010
0.039
0.176
0.007
-0.154
-0.261
-0.013
0.217
0.158
0.172
-0.065
-0.056
-0.098
-0.153
0.171
0.385
0.214
0.169
0.074
-0.050
-0.069
-0.132
-0.033
0.181
0.305
0.314
0.006
-0.078
0.034
-0.052
0.003
-0.011
0.041
-0.035
0.122
-0.087
0.090
-0.005
0.143
-0.076
-0.033
0.076
0.083
-0.015
0.030
0.035
0.107
0.003
0.012
-0.006
-0.039
0.063
0.052
-0.005
0.080
-0.033
-0.003
-0.046
-0.068
0.152
0.066
0.061
-0.125
-0.112
-0.033
-0.026
0.078
0.006
-0.069
0.045
0.047
-0.113
0.012
-0.208
0.112
-0.093
-0.017
0.092
0.033
0.091
-0.079
0.100
0.002
-0.048
-0.024
-0.040
0.007
0.200
0.143
0.006
-0.160
-0.080
-0.239
0.332
0.268
0.110
0.010
0.012
-0.011
-0.082
0.002
0.108
0.069
0.018
0.115
-0.066
-0.009
-0.034
0.034
0.036
0.070
0.048
0.069
-0.024
-0.037
0.060
0.010
0.066
0.040
-0.043
0.040
0.078
-0.085
-0.076
-0.033
0.046
0.047
0.031
0.071
-0.003
-0.054
0.035
0.008
0.004
0.003
0.107
0.056
-0.045
0.006
-0.051
-0.001
0.076
-0.003
-0.047
-0.010
-0.024
-0.048
0.101
0.075
-0.097
-0.031
0.053
0.007
-0.019
-0.009
0.067
-0.099
0.036
0.130
0.005
-0.018
-0.068
-0.072
0.012
0.150
0.098
0.091
-0.181
-0.038
0.006
0.047
-0.001
0.058
0.002
0.020
0.111
-0.063
-0.363
-0.125
0.209
0.355
0.176
0.051
0.091
-0.082
-0.247
-0.096
0.064
-0.011
0.164
0.093
0.193
0.070
-0.168
-0.399
0.003
0.199
0.142
0.195
-0.140
-0.133
-0.137
-0.113
-0.125
-0.049
-0.084
-0.019
0.135
-0.059
-0.210
-0.668
0.024
0.236
0.447
0.404
0.132
-0.081
-0.113
0.146
0.104
0.155
0.154
0.053
0.002
0.151
0.099
0.131
-0.034
-0.157
-0.368
-3.261
-0.194
-1.827
-3.300
2.297
4.028
4.457
1.456
-2.834
-4.119
-4.370
-2.510
1.353
3.758
4.434
0.555
2.953
3.915
4.077
3.286
0.828
-1.246
-2.784
-3.026
-2.830
-2.302
-1.727
-0.843
-0.462
0.012
-0.029
0.316
0.548
0.476
0.524
0.268
0.100
-0.158
-0.261
-0.435
0.223
0.261
0.287
-0.001
0.062
0.005
0.182
0.391
0.439
0.314
0.255
0.407
0.487
0.216
0.155
0.173
0.104
0.313
0.476
0.373
0.280
0.113
0.033
0.101
0.104
0.175
0.144
0.160
0.143
0.119
0.163
-0.046
-0.015
-0.003
0.199
0.058
-0.065
-0.046
-0.050
-0.148
-0.071
-0.031
-0.059
-0.196
-0.215
-0.143
-0.293
-0.158
-0.054
-0.146
-0.036
-0.116
-0.210
-0.243
-0.028
-0.004
0.054
-0.063
-0.270
-0.172
-0.185
-0.036
0.052
-0.132
-0.032
-0.055
-0.034
0.024
-0.246
-0.125
0.018
0.042
0.081
0.060
0.037
0.081
-0.104
-0.064
0.032
-0.028
-0.053
0.027
0.010
0.197
0.361
-0.183
-0.553
0.056
0.457
0.285
0.082
-0.068
-0.068
-0.242
-0.090
0.078
-0.050
0.099
-0.301
-0.540
-0.522
-0.255
0.223
0.158
0.062
-0.266
-0.666
-0.515
-0.173
0.143
0.316
0.115
-0.051
0.024
0.038
-0.001
0.217
0.142
0.146
-0.040
0.034
0.054
0.064
-0.028
-0.254
-0.234
-0.199
-0.153
0.177
0.200
0.186
0.026
0.005
-0.202
-0.006
-0.054
0.064
0.110
0.145
0.102
0.350
0.222
0.181
0.145
0.115
0.030
-0.002
0.130
0.055
-0.009
-0.036
-0.091
0.178
0.222
0.217
0.156
-0.022
0.115
0.087
0.052
0.205
0.009
0.108
-0.006
0.275
-0.136
-0.166
0.081
0.455
0.222
-0.027
-0.018
-0.044
-0.048
0.016
0.098
0.164
0.218
0.199
0.066
0.125
0.081
0.139
0.060
0.080
-0.217
-0.252
-0.091
0.202
0.463
0.294
-0.220
-0.431
-0.208
0.110
0.303
0.671
0.487
0.327
0.007
-0.249
-0.034
0.204
0.423
0.443
0.260
0.101
0.081
0.096
-0.154
-0.074
-0.051
0.066
0.016
-0.092
-0.124
-0.118
-0.133
-0.149
-0.072
-0.059
-0.235
-0.128
-0.008
-0.148
-0.226
0.010
-0.006
-0.068
0.069
0.046
-0.000
0.109
0.089
-0.019
0.014
0.098
0.178
-1.812
-3.042
-1.865
0.954
3.291
2.366
0.727
-0.195
-0.568
-1.103
-1.708
-0.073
1.217
-2.027
-2.408
-0.587
1.262
2.164
1.862
0.915
-0.085
-0.643
-1.098
-0.608
-0.468
0.201
0.784
1.120
1.222
1.288
1.167
0.743
0.502
0.368
-0.003
-0.108
-0.487
-0.529
-0.631
-0.600
-0.544
-0.484
-0.224
-0.037
0.132
-0.221
-0.164
-0.082
0.350
0.366
0.294
0.303
-0.003
0.083
0.107
0.151
0.136
0.150
0.154
0.147
0.099
0.140
0.076
0.238
0.160
0.189
0.074
0.105
0.192
0.254
0.325
0.094
0.261
0.316
0.180
0.181
0.354
0.334
0.270
0.125
0.053
0.098
0.158
0.158
0.256
0.121
0.091
0.134
0.123
0.106
-0.103
-0.180
-0.178
0.202
0.206
0.132
-0.100
0.073
-0.187
-0.179
-0.140
-0.045
-0.021
0.047
-0.012
-0.058
0.022
-0.065
-0.074
-0.165
-0.207
-0.048
-0.061
-0.151
-0.210
-0.141
-0.168
-0.077
0.121
-0.076
-0.107
-0.137
-0.050
-0.054
-0.126
0.024
0.007
-0.002
-0.068
0.007
-0.026
-0.016
0.006
0.106
0.013
-0.059
-0.062
0.058
0.089
-0.078
-0.048
0.079
0.101
0.239
0.131
0.025
0.082
0.061
0.083
-0.081
0.114
0.038
0.153
0.041
0.068
0.047
0.018
0.108
0.045
0.055
0.157
0.014
0.059
-0.059
-0.147
-0.031
0.122
0.143
0.136
0.067
-0.007
-0.086
-0.006
-0.044
-0.102
0.001
0.273
0.098
0.107
0.111
-0.090
-0.151
-0.030
-0.034
0.050
-0.006
0.059
-0.207
-0.439
0.106
0.097
0.073
-0.135
-0.166
-0.236
0.057
0.172
0.235
0.112
0.034
-0.199
0.007
0.115
0.017
0.422
0.359
0.159
0.067
0.050
-0.083
-0.045
-0.023
-0.062
-0.131
-0.222
-0.217
-0.069
-0.049
-0.643
0.119
0.333
-0.140
0.070
-0.004
-0.106
-0.049
-0.404
-1.769
-3.648
-0.730
3.108
3.802
2.059
0.235
-0.851
-1.186
-0.776
-0.423
0.314
0.802
1.125
1.219
1.066
0.789
0.471
0.256
-0.122
-0.449
-0.474
-0.530
-0.533
-0.421
-0.451
-0.561
-0.492
-0.281
0.306
0.183
0.208
0.103
-0.036
0.046
0.073
0.147
0.275
0.121
0.037
0.106
0.235
0.187
0.150
0.079
0.146
0.085
-0.026
0.187
0.295
0.231
0.290
0.267
0.126
0.185
0.217
0.216
0.193
0.268
0.232
0.048
0.088
0.107
0.100
0.291
0.128
0.070
0.018
0.031
0.084
0.088
0.021
0.032
-0.049
0.073
-0.054
0.008
0.092
0.133
-0.276
-0.453
-0.090
0.169
0.073
0.072
-0.083
-0.075
-0.121
-0.112
-0.198
-0.001
-0.093
-0.085
-0.025
-0.026
-0.120
-0.179
-0.018
-0.010
-0.019
-0.119
-0.027
-0.041
-0.093
-0.105
-0.085
0.218
-0.053
-0.214
-0.172
-0.005
0.347
0.309
0.095
-0.009
-0.151
-0.217
-0.106
0.041
0.142
0.116
0.145
0.080
0.085
0.045
0.076
-0.011
-0.030
-0.125
-0.013
-0.001
0.159
-0.010
-0.047
-0.012
-0.021
0.108
0.184
0.041
-0.000
0.095
0.028
0.054
0.044
0.074
0.018
-0.012
-0.011
0.024
0.036
0.007
0.067
0.152
0.192
-0.040
-0.028
-0.004
-0.078
0.136
0.017
0.098
-0.021
0.038
0.043
-0.014
0.024
0.062
0.013
-0.088
-0.030
0.101
0.257
0.153
-0.136
-0.314
-0.226
0.057
0.072
-0.016
0.227
0.008
0.161
0.012
-0.013
-0.098
0.008
0.132
0.054
-0.028
0.157
-0.029
0.062
0.141
-0.014
0.006
-0.084
-0.269
-0.231
0.190
0.388
0.198
-0.115
-0.248
-0.093
-0.035
0.123
0.008
-0.008
0.013
0.096
0.025
-0.040
-0.090
0.009
-0.108
-0.049
-0.207
0.076
-0.219
-0.195
-0.040
0.043
-0.001
-0.006
-0.009
0.037
-0.090
-0.132
-0.031
0.011
-0.047
0.076
0.091
0.043
0.054
0.019
-0.030
0.012
0.194
-0.070
-0.269
-0.129
0.241
0.045
0.357
0.064
0.141
0.194
-0.007
0.019
-0.063
0.048
0.094
0.130
-0.114
-2.160
-0.122
2.625
2.525
1.275
-0.004
-0.658
-1.078
-0.857
-0.691
-0.137
0.373
0.792
0.808
0.697
0.442
0.339
0.195
-0.037
-0.213
-0.277
-0.435
-0.355
-0.062
0.220
0.074
-0.139
-0.310
-0.235
0.009
0.158
0.230
0.154
0.184
0.147
0.222
0.240
0.171
0.302
0.217
0.120
0.062
0.191
0.278
0.119
0.089
0.156
0.191
0.026
0.072
0.078
0.161
0.045
-0.015
0.213
0.143
0.129
0.022
0.101
-0.152
-0.109
-0.213
-0.166
-0.011
0.203
0.181
0.128
0.082
-0.058
-0.005
-0.041
0.022
0.097
0.094
0.029
0.031
0.040
0.021
-0.106
-0.368
-0.004
0.060
0.096
-0.191
-0.325
-0.272
-0.179
-0.289
-0.143
0.150
-0.014
-0.030
0.052
-0.171
-0.178
-0.482
-0.270
0.082
0.031
-0.009
-0.129
-0.115
0.103
0.032
-0.190
-0.172
0.004
0.066
-0.136
-0.356
-1.492
-0.662
1.337
1.551
0.906
-0.002
-0.565
-0.433
-1.150
-1.009
-0.455
0.686
0.599
0.641
0.127
-0.147
-0.553
-0.224
0.591
0.535
0.246
0.252
0.198
0.026
-0.128
-0.060
0.004
0.405
0.897
0.670
0.463
0.012
0.006
-0.194
-0.323
-0.245
-0.194
0.065
0.099
-0.183
-0.107
-0.023
-0.000
-0.106
-0.057
-0.034
-0.083
-0.011
0.008
-0.154
-0.147
0.041
0.206
0.323
0.277
0.192
0.071
0.102
0.115
0.162
0.164
0.212
-0.083
-0.182
-0.309
-0.273
-0.152
0.265
-0.275
-0.293
0.716
0.799
0.511
0.115
-0.204
-0.213
-0.158
0.347
0.967
1.157
0.662
0.322
0.218
0.081
-0.079
-0.196
-0.011
-0.055
0.061
-0.204
-0.148
-0.162
-0.297
-0.186
-0.232
-0.117
-0.177
-0.182
-0.203
-0.212
-0.137
0.052
0.011
-0.138
-0.152
-0.144
-0.236
0.070
-0.018
0.075
-0.018
-0.156
-0.052
-0.034
0.018
0.098
0.083
0.006
-0.007
-0.114
-0.041
0.063
-0.038
-0.025
0.028
0.112
-0.615
-3.083
-0.403
2.462
2.422
1.056
0.112
-0.495
-0.715
-0.433
-0.258
0.456
0.663
0.677
0.647
0.506
0.568
0.580
0.050
-0.246
-0.180
-0.215
-0.056
-0.120
-0.092
-0.149
-0.166
0.030
0.031
0.044
-0.100
-1.972
-0.272
1.097
1.166
0.544
-0.066
-0.210
-0.300
-0.241
-0.136
0.162
0.080
0.305
0.307
0.406
0.255
-0.274
-0.453
0.180
0.341
-0.088
-3.095
-1.122
1.851
2.398
1.391
0.052
-0.519
-0.597
-0.343
-0.015
0.399
0.744
0.844
0.835
0.754
0.578
0.428
0.095
0.042
-0.098
-0.126
-0.244
-0.330
-0.303
-0.267
-0.301
-0.227
-0.035
-0.076
-0.067
0.174
0.151
0.034
0.053
-0.004
0.064
-0.081
0.026
0.072
-0.132
0.012
0.082
0.097
0.179
0.028
-0.051
0.052
0.193
0.120
-0.117
0.005
0.041
0.065
0.162
0.137
0.130
0.039
-0.091
-0.034
0.119
0.300
0.060
-0.060
0.065
-0.100
-0.182
0.195
0.420
0.183
0.148
-0.159
-0.038
-0.030
-0.090
0.061
0.010
0.084
0.069
0.058
0.045
-0.059
-0.097
-0.019
0.034
-0.064
-0.130
0.004
-0.017
0.119
0.067
0.066
0.091
-0.027
-0.003
-0.170
0.014
0.009
0.004
0.093
-0.003
-0.138
0.063
-0.042
-0.071
-0.286
-1.307
0.139
0.760
0.623
0.255
-0.096
-0.160
-0.071
0.002
0.059
0.041
0.102
0.257
0.294
0.165
0.100
0.184
0.105
0.101
0.009
-0.100
-0.177
0.049
0.087
-0.263
-0.303
-0.041
0.189
0.001
-0.224
0.090
0.322
0.148
0.011
-0.109
-0.196
-0.119
0.025
0.127
0.083
0.173
-0.112
-1.154
-1.139
0.614
1.081
0.691
0.048
-0.115
-0.309
-0.208
-0.147
-0.018
0.182
0.404
0.530
0.353
0.356
0.085
0.065
0.135
0.179
-0.086
-0.153
-0.113
0.049
-0.104
-0.044
-0.325
-0.202
-0.182
0.145
0.333
0.123
-0.023
0.004
-0.129
-0.137
-0.046
0.118
-0.223
-1.575
-2.278
0.502
1.941
1.409
0.503
-0.169
-0.359
-0.351
-0.224
0.074
0.308
0.474
0.570
0.616
0.609
0.389
0.229
0.038
-0.097
-0.126
-0.148
-0.213
-0.226
-0.171
-0.130
-0.223
-0.465
-0.174
0.301
0.138
-0.107
-0.180
0.167
0.205
0.046
-0.140
0.084
0.014
-0.189
0.044
0.162
0.236
0.065
0.029
0.040
-0.101
0.031
0.088
-0.026
0.010
-0.025
0.156
0.124
-0.073
0.024
0.087
-0.011
0.151
0.060
0.114
0.064
0.105
0.148
0.077
0.078
0.055
-0.093
0.072
0.123
0.081
-0.034
0.025
0.027
-0.058
0.036
0.070
-0.119
-0.088
0.027
0.147
-0.046
-0.094
0.048
-0.090
-0.007
0.162
-0.096
-0.253
-0.194
0.170
0.195
0.027
-0.006
-0.057
-0.059
0.010
0.026
-0.021
-0.091
-0.033
0.023
0.076
-0.231
0.035
0.335
-0.001
0.128
0.217
-0.026
-0.189
0.016
0.012
-0.042
0.015
-0.113
0.016
0.130
0.063
0.011
-0.019
-0.003
0.032
0.016
-0.065
-0.176
0.051
0.069
0.066
0.034
-0.031
-0.038
0.115
-0.017
0.156
0.022
-0.076
-0.012
-0.057
0.136
0.005
0.228
0.011
-0.107
0.001
-0.011
0.042
0.121
-0.057
0.054
0.061
0.114
-0.047
0.075
-0.012
0.062
0.078
0.093
0.112
0.020
-0.085
-0.062
-0.003
0.023
0.110
0.029
0.034
-0.015
0.100
0.015
-0.025
-0.020
-0.097
0.014
0.038
0.110
0.077
-0.003
-0.041
-0.067
-0.232
-0.079
0.406
0.376
0.035
-0.026
-0.148
-0.089
-0.007
0.022
0.059
0.128
-0.011
-0.022
0.021
0.027
-0.041
0.016
-0.087
-0.004
0.097
0.029
0.040
0.061
-0.061
-0.011
0.014
0.097
-0.003
0.018
0.041
0.029
0.024
0.025
0.001
0.115
0.024
-0.036
0.036
-0.066
0.045
0.029
-0.006
0.123
-0.082
0.005
0.118
0.049
0.015
-0.083
0.169
-0.077
-0.199
-0.019
0.074
-0.209
-0.256
0.046
-0.062
0.063
-1.397
-0.532
0.306
0.584
0.635
0.287
-0.072
-0.176
-0.100
-0.072
0.153
0.245
0.279
0.291
0.280
0.225
0.042
-0.021
-0.395
-2.955
0.089
-0.900
0.197
-0.066
-3.084
0.111
3.367
4.265
3.001
-1.217
-3.606
-3.759
-2.142
0.324
2.422
3.791
4.229
4.281
3.925
3.080
1.886
0.728
-0.354
-1.162
-1.842
-2.020
-1.890
-1.859
-1.806
-1.387
-0.997
-0.676
-0.396
0.209
0.534
0.252
0.176
0.062
0.198
0.230
0.221
0.402
0.260
0.228
0.334
0.437
0.460
0.455
0.414
0.488
0.631
0.720
0.503
0.524
0.506
0.385
0.580
0.544
0.526
0.470
0.389
0.268
0.371
0.294
0.282
0.228
0.391
0.166
0.150
0.161
0.103
0.098
0.211
0.034
-0.099
0.004
-0.016
-0.115
-0.061
-0.086
-0.210
-0.154
-0.141
-0.026
-0.250
-0.258
-0.374
-0.432
-0.184
-0.421
-0.262
0.066
-0.001
-0.138
-0.322
-0.315
-0.232
-0.178
-0.214
-0.226
-0.145
-0.218
-0.353
-0.199
-0.272
-0.190
-0.215
-0.123
0.073
0.254
-0.201
-0.207
-0.127
0.031
-0.044
-0.127
0.216
0.558
0.388
0.268
0.267
0.110
0.117
0.059
0.197
0.149
0.123
0.063
0.100
0.018
0.214
0.018
-0.104
0.081
-0.153
-0.006
-0.004
0.009
-0.052
0.106
0.021
0.179
-0.021
-0.136
0.081
-0.033
0.109
0.247
0.045
-0.031
-0.026
0.155
-0.034
0.033
0.059
0.017
-0.126
-0.138
0.136
-0.068
-0.163
-0.093
-0.036
0.160
0.042
-0.028
-0.130
0.132
0.250
0.280
0.232
0.184
0.059
0.101
0.223
0.315
0.145
0.203
0.063
0.101
0.077
0.035
0.008
-0.184
-0.990
-0.783
0.148
0.554
0.562
0.212
-0.149
-0.227
-0.265
-0.173
0.070
0.053
0.277
0.154
0.157
0.221
0.146
0.195
-0.061
-0.237
0.121
-0.083
-0.109
-0.271
-0.220
-0.270
-0.204
-0.079
-0.015
-0.176
0.005
0.235
0.221
-0.110
-0.166
-0.165
-0.059
-0.024
0.033
-0.010
0.042
0.047
0.170
0.047
-0.096
0.030
0.174
-0.029
0.009
0.050
0.075
0.123
0.250
-0.113
-0.204
-0.283
0.045
0.650
0.419
0.168
0.053
0.001
-0.049
-0.078
0.108
0.112
0.137
0.178
0.087
0.027
-0.542
0.008
0.286
0.208
0.104
-0.167
-0.279
-0.088
-0.096
-0.120
-0.154
-0.038
0.117
0.281
0.503
0.228
0.202
0.134
0.239
0.326
0.137
-0.043
0.097
0.253
0.452
0.247
0.349
-0.122
-1.054
-3.546
-1.122
2.886
4.012
3.427
1.208
-0.837
-1.796
-1.755
-1.084
-0.036
0.941
1.621
1.890
2.004
1.536
1.114
0.668
0.015
-0.300
-0.807
-0.823
-0.825
-1.012
-0.850
-0.601
-0.492
-0.238
-0.192
-0.058
0.105
0.198
0.249
0.459
0.311
0.272
0.253
0.405
0.157
0.174
0.525
0.687
0.553
0.466
0.332
0.220
0.385
0.373
0.417
0.391
0.478
0.361
0.468
0.362
0.312
0.362
0.252
0.287
0.225
0.195
0.222
0.248
0.222
0.158
0.122
0.200
0.129
0.145
0.017
-0.030
-0.122
-0.101
-0.018
-0.131
-0.118
-0.104
-0.117
-0.080
-0.113
-0.185
0.024
0.011
-0.168
-0.369
-0.173
-0.185
-0.560
-0.428
0.150
0.428
0.003
-0.110
-0.287
-0.277
-0.258
-0.171
-0.143
0.070
-0.115
-0.158
0.111
0.094
0.172
-0.053
-0.082
-0.202
-0.087
-0.142
-0.005
0.023
-0.008
-0.017
0.003
0.084
0.064
0.068
-0.001
-0.097
-0.163
-0.147
0.416
0.393
0.162
0.139
-0.137
-0.044
0.009
-0.018
0.050
0.138
0.083
0.159
0.075
-0.050
-0.040
0.014
0.076
0.061
0.057
-0.041
0.019
0.024
0.065
-0.107
0.039
0.183
0.054
0.068
0.048
-0.068
0.095
0.137
-0.162
-0.154
-0.168
0.114
0.302
0.112
0.001
0.043
-0.026
0.050
0.101
0.043
0.088
0.077
0.018
-0.008
0.161
-0.020
0.053
0.230
0.040
0.090
0.019
-0.067
0.006
0.055
0.034
0.165
0.000
0.018
-0.046
-0.022
0.061
0.053
0.001
0.006
0.021
0.000
0.022
0.070
-0.116
0.064
-0.074
0.002
-0.259
-0.245
0.341
0.247
0.171
-0.034
-0.253
-0.186
-0.051
-0.036
0.115
0.066
0.188
-0.031
-0.152
-0.016
0.133
-0.240
-0.398
-0.135
0.179
0.159
0.088
-0.044
-0.028
-0.036
-0.134
-0.017
-0.038
-0.037
0.016
0.146
0.050
0.110
0.117
0.081
0.080
-0.081
-0.178
-0.015
0.124
0.049
0.043
-0.005
0.129
0.098
0.030
0.048
0.107
0.197
-0.004
-0.250
-0.087
0.047
-0.013
0.178
0.454
0.334
-0.077
-0.105
0.006
-0.096
0.157
0.052
0.053
0.041
0.093
-0.017
0.138
0.068
-0.029
0.033
-0.194
-0.201
0.088
0.357
0.259
0.002
-0.126
-0.065
-0.105
0.045
0.094
0.038
0.094
0.069
0.022
-0.065
-0.021
-0.090
0.011
0.042
0.000
0.002
-0.037
-0.083
-0.149
0.075
-0.012
-0.104
0.004
-0.033
0.083
-0.097
-0.013
0.039
0.065
-0.086
-0.049
-0.031
0.054
0.044
-0.059
-0.162
0.021
0.033
0.182
0.076
-0.001
-0.056
-0.029
0.055
0.098
0.184
-0.034
0.003
-0.001
0.002
0.208
0.034
-0.191
-0.081
0.059
0.177
0.221
0.007
-0.047
-0.087
0.018
0.052
0.038
0.008
0.042
0.017
-0.063
0.016
0.138
-0.058
-0.060
-0.239
0.265
0.309
0.170
0.093
0.030
-0.096
-0.105
-0.121
0.034
0.150
0.199
0.123
-0.035
0.035
0.088
-0.110
-0.146
-0.022
0.054
-0.024
-0.058
-0.105
-0.002
0.085
0.116
-0.052
0.086
0.099
0.023
-0.063
-0.031
0.032
0.021
-0.069
0.014
0.097
0.042
0.015
0.024
-0.018
0.066
0.124
-0.060
-0.032
0.024
-0.017
0.018
-0.008
0.032
-0.060
0.083
0.018
-0.100
-0.088
0.117
-0.055
-0.104
0.084
0.246
-0.049
0.024
-0.054
0.024
-0.005
0.174
0.124
0.094
0.050
-0.049
-0.026
-0.087
0.037
0.044
0.029
0.139
0.017
-0.183
0.072
0.335
0.125
-0.062
-0.157
-0.151
-0.148
-0.121
0.173
0.393
0.275
0.055
0.181
-0.225
-0.390
-0.187
0.107
0.275
0.155
0.087
0.053
-0.083
0.023
0.021
0.037
0.065
-0.004
0.069
0.113
0.119
-0.018
0.001
0.035
-0.005
0.035
-0.043
-0.007
0.044
0.052
0.069
-0.034
-0.073
0.045
0.048
0.050
0.062
0.014
0.047
-0.085
-0.191
-0.008
0.239
0.251
0.039
-0.168
-0.026
0.012
0.135
-0.101
-0.007
0.198
0.066
0.067
-0.051
0.038
-0.036
0.071
0.093
0.047
-0.045
-0.046
0.004
0.058
-0.230
-0.331
0.125
0.312
0.038
0.111
-0.113
-0.862
-0.772
-0.198
0.200
0.359
0.444
0.174
0.033
-0.098
-0.045
-0.061
0.061
0.144
0.234
0.361
0.165
0.204
0.122
0.103
-0.012
-0.105
-0.968
-1.426
-3.052
-0.569
3.129
4.187
-0.385
-2.067
0.808
1.043
0.173
-0.358
-0.177
0.616
1.334
2.060
2.414
2.094
1.706
1.395
0.585
0.386
0.112
-0.418
-0.853
-1.333
-1.646
-1.413
-1.018
-0.818
-0.264
0.112
0.012
-0.211
-0.615
-0.037
0.259
0.492
0.485
0.369
0.459
0.353
0.404
0.444
0.235
0.164
0.554
0.869
0.656
0.649
0.400
0.314
0.409
0.438
0.468
0.533
0.354
0.318
0.225
0.276
0.221
0.087
0.120
0.127
0.182
0.302
0.179
0.020
0.249
0.243
0.073
0.139
-0.034
0.051
-0.216
-0.034
-0.023
-0.064
0.053
0.000
-0.094
-0.258
-0.283
-0.268
-0.233
-0.159
-0.314
-0.273
-0.409
-0.369
-0.240
-0.192
-0.081
-0.156
0.025
-0.089
-0.044
0.040
0.012
0.167
0.032
0.023
-0.099
-0.127
0.058
-0.078
0.010
0.146
0.061
-0.013
-0.144
-0.083
-0.127
-0.098
-0.114
-0.114
0.110
0.187
0.030
0.096
-0.021
-0.078
0.078
-0.626
-0.218
0.201
0.051
-0.746
-1.130
-0.357
0.212
-0.127
-0.064
-0.697
-0.333
0.663
0.408
0.298
0.111
0.249
0.426
0.371
0.428
0.494
0.503
0.472
0.264
0.258
0.385
0.305
0.076
-0.049
-0.010
-0.211
-0.243
-0.178
-0.341
-0.114
-0.135
-0.016
-0.030
-0.095
-0.126
-0.098
-0.010
-0.038
-0.109
-0.141
-0.063
0.039
0.047
-0.001
-0.009
-0.070
0.004
-0.096
-0.055
-0.112
-0.055
0.242
0.313
0.288
0.074
0.010
-0.293
-0.161
0.128
0.135
0.260
0.504
0.439
0.180
0.134
0.087
0.044
-0.074
0.082
0.339
0.199
0.204
-0.011
-0.020
0.049
0.085
0.132
0.071
0.172
0.067
-0.071
-0.163
-0.053
-0.036
-0.236
0.045
0.018
-0.201
-0.117
0.091
-0.005
-0.090
-0.052
0.167
0.215
-0.085
-0.225
-0.062
-0.124
0.204
0.060
0.094
0.257
0.199
0.128
-0.072
-0.075
0.038
0.060
0.208
0.134
0.058
0.007
0.029
0.005
-0.148
-0.110
0.046
-0.027
-0.035
-0.120
0.010
0.112
-0.052
0.184
0.106
-0.164
-0.118
-0.006
0.183
0.136
0.132
0.059
-0.134
-0.135
0.033
0.308
0.369
0.180
-0.067
-0.130
-0.047
-0.009
0.058
0.144
0.421
0.204
0.133
0.132
-0.011
-1.697
-3.647
-2.179
2.025
3.445
2.578
0.663
-0.584
-1.090
-0.747
-0.071
0.130
0.726
1.045
1.316
1.552
1.504
1.128
0.823
0.436
0.159
-0.223
-0.539
-0.602
-0.895
-0.714
-0.719
-0.514
-0.420
-0.413
-0.302
-0.138
0.018
0.025
0.181
0.157
0.069
0.198
0.237
0.163
0.289
0.143
0.081
0.067
0.115
0.067
0.181
0.579
0.468
0.382
0.027
-0.083
0.143
0.403
0.438
0.474
0.092
-0.055
0.302
0.607
0.502
0.406
0.176
0.021
-0.192
-0.029
0.055
0.152
0.223
0.253
0.209
0.002
0.078
-0.051
-0.161
-0.029
-0.062
-0.034
0.127
-0.038
-0.157
-0.023
-0.178
0.017
-0.142
-0.047
-0.106
-0.267
-0.178
-0.173
-0.060
-0.003
-0.115
-0.086
-0.088
0.075
-0.171
-0.121
-0.144
-0.017
-0.035
-0.009
-0.195
-0.091
-0.039
-0.071
-0.007
-0.066
-0.046
-0.054
-0.031
-0.015
0.128
-0.107
-0.129
-0.006
0.225
0.082
0.041
0.044
0.003
0.086
0.119
0.225
0.012
0.113
0.064
0.032
0.085
0.122
0.097
0.052
-0.022
0.074
0.118
-0.042
-0.045
0.114
-0.034
-0.104
-0.021
0.299
0.392
0.083
0.257
-0.119
-0.114
-0.095
-0.098
-0.004
0.172
0.162
0.176
-0.047
0.165
-0.003
-0.208
-0.231
-0.098
0.185
0.044
0.044
-0.067
-0.030
0.003
-0.044
0.007
0.191
-0.036
0.047
0.073
-0.001
0.007
-0.068
-0.521
-2.897
-2.659
0.956
2.069
1.461
0.969
0.296
-0.363
-0.572
-0.506
0.001
0.529
0.879
1.010
0.762
0.707
0.688
0.619
0.320
0.331
0.098
-0.274
-0.711
-0.657
-0.608
-0.396
-0.224
-0.224
-0.088
-0.101
-0.018
-0.052
-0.046
-0.062
-0.098
-0.141
-0.136
0.169
0.297
0.066
0.029
-0.130
-0.110
-0.125
0.135
0.195
0.127
0.019
0.230
0.180
0.200
0.075
0.089
0.072
0.108
-0.019
0.123
0.225
0.105
0.012
0.112
0.055
0.171
0.241
0.156
0.182
0.157
0.184
0.027
0.053
0.034
0.136
0.074
0.119
0.122
0.135
-0.069
0.133
-0.120
-0.241
0.002
0.220
0.064
0.034
0.114
-0.053
-0.135
-0.079
0.023
0.101
-0.066
-0.136
0.057
0.060
0.021
-0.021
-0.103
-0.110
0.037
-0.026
0.002
0.000
-0.052
-0.021
-0.021
0.018
-0.034
0.055
-0.083
-0.213
-0.185
0.161
0.425
0.155
0.020
-0.128
-0.227
-0.110
-0.012
0.083
0.068
0.018
-0.014
0.118
-0.009
-0.068
-0.155
0.065
-0.037
0.008
-0.091
-0.037
0.005
0.058
0.042
0.112
0.073
0.071
0.087
-0.052
0.098
-0.020
-0.076
0.133
0.108
0.160
-0.123
-0.230
-0.070
0.015
-0.156
0.013
0.391
0.285
-0.060
-0.155
0.025
0.046
0.068
-0.089
-0.031
0.056
0.190
0.034
0.181
0.091
-0.010
0.034
-0.009
-0.136
-0.045
-0.005
0.031
-0.006
-0.006
0.041
0.100
-0.080
0.057
0.123
-0.019
-0.063
0.181
0.027
0.010
0.049
0.091
-0.013
0.031
-0.021
-0.059
-0.042
-0.071
-0.200
-0.157
0.311
0.267
0.275
0.000
-0.388
-0.228
0.015
0.117
0.095
0.168
0.090
-0.119
-0.050
-0.033
0.029
0.024
0.028
0.038
-0.062
-0.077
-0.095
0.038
-0.008
-0.065
0.018
-0.060
0.103
0.150
0.186
0.002
-0.140
-0.022
0.090
0.056
-0.069
-0.006
0.013
0.047
-0.002
0.094
-0.025
-0.149
0.095
-0.116
-0.014
0.030
-0.008
-0.004
0.179
0.022
0.110
-0.068
-0.001
-0.077
0.081
0.090
0.089
0.040
0.026
0.048
0.072
0.109
0.003
0.031
0.004
-0.211
-0.169
0.061
0.388
0.306
0.037
-0.045
-0.184
-0.059
0.043
0.016
0.053
0.115
0.081
0.088
0.104
-0.095
0.107
-0.041
-0.062
0.004
0.072
-0.145
0.051
-0.017
0.038
0.022
-0.060
-0.136
-0.105
0.095
0.143
0.104
-0.012
-0.003
-0.014
0.100
0.008
-0.195
0.051
0.035
-0.120
-0.055
0.024
0.012
0.096
-0.012
0.002
-0.013
-0.121
-0.177
-0.053
-0.043
0.213
0.052
-0.233
-0.149
-0.146
0.069
-0.010
0.081
0.309
0.018
-0.064
-0.100
0.016
0.075
-0.063
0.018
0.144
0.063
0.016
0.050
0.017
0.015
-0.232
0.059
0.115
0.093
0.079
-0.050
-0.062
-0.081
0.099
0.033
-0.086
-0.322
0.174
0.418
0.214
0.032
0.080
-0.050
-0.218
-0.009
0.097
-0.018
0.009
-0.124
0.133
0.143
0.046
-0.148
-0.098
-0.010
0.086
0.127
-0.047
-0.077
0.053
-0.053
-0.006
0.113
0.028
0.156
-0.025
0.079
0.017
0.026
0.102
0.035
0.104
-0.039
0.042
-0.059
0.025
-0.012
0.014
-0.008
-0.035
-0.016
0.067
-0.129
-0.014
-0.017
-0.001
0.107
0.012
-0.008
-0.066
-0.033
-0.127
-0.197
-0.052
0.134
0.152
-0.035
-0.009
0.011
0.059
0.089
0.200
-0.069
-0.104
0.039
0.273
0.249
0.035
0.190
0.128
-0.129
-0.154
-0.340
-0.057
0.276
0.162
0.013
-0.184
-0.260
-0.269
-0.054
-0.008
0.158
-0.050
-0.199
0.111
0.104
0.132
-0.068
0.013
0.025
0.017
-0.068
0.104
0.144
0.109
0.181
0.055
0.064
0.206
0.145
0.076
0.015
0.083
-0.003
-0.005
0.001
-0.063
0.045
-0.046
-0.041
-0.085
-0.072
-0.037
0.153
-0.114
-0.206
-0.042
0.167
0.040
0.023
-0.129
0.078
-0.110
0.069
0.083
0.172
-0.066
0.004
-0.030
0.161
0.097
0.255
0.193
-0.073
-0.347
-0.227
-0.028
-0.124
-0.123
0.230
0.425
0.161
-0.153
-0.272
-0.167
-0.350
-0.148
0.425
0.210
-0.014
0.134
0.174
-0.065
-0.204
-0.091
0.167
0.082
0.006
-0.044
-0.189
0.093
0.076
0.052
-0.171
-0.076
0.147
0.231
0.063
0.018
-0.105
-0.137
0.032
0.124
-0.080
-0.160
0.019
0.127
-0.103
-0.095
-0.141
-0.066
-0.114
-0.028
-0.117
-0.129
0.007
-0.066
-0.078
-0.110
0.104
0.066
0.051
-0.139
-0.194
-0.068
0.161
0.213
0.127
0.022
0.110
-0.012
0.051
0.120
0.200
-0.021
0.065
0.132
0.120
0.091
0.088
0.118
0.069
0.076
-0.008
-0.193
-0.195
0.072
0.237
-0.142
-0.231
-0.219
0.327
0.248
0.039
-0.147
-0.222
-0.151
-0.040
-0.090
0.043
-0.054
-0.072
-0.201
-0.266
0.139
-0.019
-0.073
0.008
-0.042
-0.124
-0.061
-0.037
0.053
0.036
0.094
0.121
0.064
0.157
0.225
0.244
0.240
0.333
0.092
0.058
0.307
0.130
0.077
0.299
0.276
0.273
0.119
-0.575
-1.640
-3.269
-0.656
1.229
2.454
1.959
0.617
-0.455
-0.878
-0.692
-0.175
0.196
0.498
0.644
1.149
1.184
0.904
0.497
0.562
0.156
-0.305
-0.550
-0.518
-0.498
-0.440
-0.297
-0.172
0.132
0.015
-0.170
-0.122
-0.105
0.106
0.136
0.138
0.054
-0.034
0.422
0.455
0.272
0.115
-0.013
-0.071
0.026
0.031
0.179
0.102
0.229
0.225
0.019
0.105
0.187
0.167
0.142
0.105
0.205
0.022
-0.066
0.075
0.181
0.159
0.211
0.224
-0.070
0.007
0.020
0.042
0.006
0.014
0.053
0.111
-0.073
-0.063
-0.176
-0.027
0.164
0.095
0.050
-0.057
-0.230
-0.062
-0.079
0.015
0.123
-0.098
0.029
-0.058
-0.044
-0.010
-0.035
0.044
-0.184
-0.483
-0.128
0.066
0.057
-0.133
-0.296
-0.185
-0.011
-0.037
0.141
-0.016
-0.108
-0.088
-0.035
0.104
0.104
-0.102
-0.108
-0.226
0.073
0.254
-0.337
0.258
0.301
0.269
0.191
-0.079
-0.246
-0.092
0.036
0.266
0.305
0.238
0.104
-0.039
0.021
0.116
0.266
-0.040
-0.122
0.055
0.046
-0.006
-0.225
0.077
-0.027
-0.059
0.085
-0.045
0.049
-0.055
0.059
0.098
-0.088
-0.035
0.177
0.109
0.087
-0.102
-0.152
-0.067
-0.007
0.171
0.104
-0.789
-3.169
-3.623
-3.424
2.406
4.217
3.273
0.488
-1.587
-2.137
-1.488
-0.353
0.899
1.882
2.450
2.796
2.430
1.988
1.263
0.627
-0.054
-0.407
-0.950
-1.077
-0.968
-0.998
-1.045
-0.930
-0.504
-0.500
-0.252
-0.168
-0.162
-0.288
-0.124
0.327
0.299
0.225
-0.001
-0.184
-0.141
-0.064
0.053
0.142
0.053
-0.035
0.035
0.168
0.309
0.114
0.009
0.191
0.183
0.207
0.137
0.140
-1.483
-0.197
0.902
1.093
0.620
0.247
0.031
-0.089
0.162
0.013
0.260
0.436
0.359
0.392
0.360
0.277
0.229
0.116
0.204
-0.119
-0.333
-0.118
0.123
0.026
0.011
-0.024
-0.147
-0.140
-0.103
-0.176
-0.122
0.096
-0.017
-0.039
-0.092
-0.017
-0.052
-0.175
-0.148
0.029
-0.064
-0.073
-0.050
-0.084
-0.155
-0.082
0.060
0.110
0.006
-0.089
-0.016
-0.122
0.124
0.139
-0.056
0.143
-0.090
-0.010
0.165
-0.126
-0.122
-0.166
0.242
0.374
0.062
0.075
-0.079
0.019
-0.077
-0.111
0.144
0.189
0.117
0.079
0.018
0.060
0.131
0.194
-0.054
-0.177
-0.177
-0.004
0.108
0.053
0.310
0.161
-0.083
-0.015
0.014
-0.163
-0.082
0.076
0.075
0.027
0.037
0.073
0.077
0.058
-0.118
-0.047
-0.032
-0.023
-0.018
0.031
0.002
0.113
0.030
0.055
-0.001
0.025
0.097
0.081
0.007
-0.028
0.014
0.083
0.033
-0.028
0.085
-0.002
-0.010
0.070
0.076
0.050
0.062
-0.080
0.030
0.244
-0.071
-0.005
0.027
0.078
-0.072
0.105
0.079
0.235
0.192
-0.161
-0.208
-0.014
0.168
0.129
0.033
-0.102
-0.050
0.400
0.215
0.022
-0.097
-0.157
-0.067
-0.141
0.117
-0.080
0.125
0.241
0.060
-0.236
-0.106
0.015
0.093
-0.177
0.001
-0.073
-0.137
0.008
0.083
0.000
0.029
-0.084
-0.031
0.034
0.009
-0.042
0.114
-0.028
0.018
-0.097
0.018
0.005
0.080
-0.024
0.093
0.016
-0.074
-0.065
-0.038
0.065
0.075
0.067
0.036
0.029
0.015
0.072
-0.071
0.056
-0.053
0.090
0.094
0.091
0.155
0.100
0.038
-0.051
-0.058
0.002
0.080
0.054
0.126
-0.001
0.113
0.012
-0.034
-0.129
-0.206
-0.015
0.439
0.182
-0.005
0.020
-0.021
0.147
0.002
-0.058
-0.188
-0.058
-0.010
-0.058
0.233
0.250
0.219
-0.127
-0.101
-0.254
-0.096
-0.026
0.013
0.120
0.053
0.055
-0.154
-0.206
-1.709
-1.973
-0.194
1.287
1.328
-0.810
-2.735
-3.711
-4.043
-3.213
-0.760
0.734
0.346
-0.182
-0.061
-0.193
-0.339
-0.488
0.223
0.696
1.288
1.857
2.231
2.681
3.570
3.710
3.500
1.137
-0.865
0.669
1.489
1.162
0.373
-0.240
-0.577
-0.921
-0.941
-0.902
-1.031
-1.095
-0.980
-0.906
-0.772
-0.891
-0.967
-1.006
-0.662
-0.603
-0.619
-0.442
-0.310
-0.206
-0.167
-0.065
-0.184
0.171
0.593
0.404
0.275
0.406
0.423
0.521
0.568
0.720
0.784
0.868
0.706
0.766
0.819
0.848
0.844
0.934
0.658
0.612
0.712
0.836
0.734
0.677
0.436
0.459
0.430
0.547
0.493
0.178
0.367
0.293
0.377
0.140
0.110
0.154
-0.012
-0.008
-0.283
-0.200
-0.184
-0.141
-0.037
-0.084
-0.247
-0.432
-0.221
-0.334
-0.344
-0.361
-0.332
-0.238
-0.203
-0.219
-0.210
-0.256
-0.291
-0.314
-0.275
-0.064
-0.474
-0.561
-0.318
-0.006
-0.029
-0.049
-0.444
-0.537
-0.317
0.258
-0.083
-0.119
0.106
0.012
-0.078
-0.153
0.054
0.029
0.012
0.122
-0.069
0.188
0.242
0.139
0.097
0.168
0.002
0.010
0.123
0.106
0.130
0.271
0.001
0.142
0.237
0.159
-0.040
0.033
-0.004
0.027
0.070
-0.024
-0.041
0.143
0.254
0.114
-0.040
-0.161
-0.080
0.088
0.172
0.083
0.127
0.020
0.020
0.013
0.033
-0.084
0.030
0.029
-0.036
-0.016
-0.136
0.018
0.077
-0.027
0.026
-0.044
0.073
-0.018
0.149
0.046
-0.044
-0.006
-0.045
-0.005
-0.050
-0.138
-0.094
0.135
0.156
0.071
-0.069
-0.095
-0.056
-0.005
0.450
0.246
0.139
0.049
-0.068
-0.173
0.095
0.215
0.096
-0.023
0.003
0.153
0.040
0.045
0.072
-0.205
-0.302
0.027
-0.060
-0.080
-0.014
0.101
0.051
-0.146
-0.232
-0.358
-0.226
-0.179
-0.025
-0.050
0.038
-0.043
0.079
-0.518
-0.286
-0.144
0.037
0.112
-0.050
-0.087
-0.078
-0.028
-0.100
0.023
0.106
0.043
-0.029
0.047
0.004
0.171
-0.126
-0.110
-0.873
-0.375
0.338
0.003
-0.384
0.053
-0.556
-0.597
0.456
0.797
0.465
-0.188
-0.248
0.461
0.477
0.609
0.353
0.301
0.352
0.357
0.350
0.272
0.266
0.277
0.005
0.052
-0.055
-0.022
-0.036
-0.133
-0.075
-0.323
0.113
0.495
0.184
0.234
-0.096
-0.222
-0.286
-0.045
0.132
0.343
0.530
0.199
0.052
0.040
0.034
-0.125
-0.063
0.031
0.275
0.142
-0.199
-3.219
-2.327
2.597
3.923
0.369
-2.410
0.731
1.490
0.652
-0.187
-0.246
0.023
0.613
0.899
1.381
1.339
1.240
-1.443
-1.308
-0.026
1.466
0.919
-0.984
-2.941
-3.048
-1.305
-0.085
0.406
0.463
0.341
0.128
0.256
1.077
1.103
1.130
0.958
0.926
0.859
0.769
0.837
0.601
0.500
0.287
0.049
0.074
-0.270
-0.287
-0.296
-0.103
-0.106
-0.402
-0.462
-0.184
0.311
0.303
0.212
0.009
-1.825
-1.663
0.818
1.845
1.528
0.767
-0.036
-0.369
-0.317
-0.024
0.207
0.549
0.661
0.619
0.627
0.647
0.428
0.038
0.099
0.088
0.049
-0.088
-0.070
-0.080
-0.074
-0.083
0.020
-0.039
0.063
-0.058
0.019
0.045
0.007
-0.032
0.011
-0.010
-0.103
-0.003
0.014
-0.040
-0.005
-0.076
0.000
-0.028
-0.200
-0.008
0.049
-0.048
-0.027
-0.096
-0.074
-0.004
-0.023
-0.052
-0.116
-0.061
-0.005
0.173
-0.003
-0.057
-0.205
-0.031
0.067
-0.045
0.110
0.161
-0.214
-0.229
-0.133
-0.062
-0.074
0.162
0.235
-0.113
0.115
0.051
0.038
0.113
-0.051
-0.058
-0.087
0.089
0.038
0.151
0.008
0.003
0.130
0.114
0.006
-0.223
-0.116
0.091
-0.042
0.033
-0.041
0.134
-0.181
-0.164
0.116
0.129
0.172
0.100
-0.046
0.003
-0.000
0.031
-0.090
-0.113
-0.006
-0.031
0.096
0.183
0.002
0.108
0.099
-0.002
0.055
0.114
-0.068
-0.010
0.032
-0.057
0.049
-0.028
0.124
0.067
0.071
-0.084
0.063
-0.071
0.050
0.036
0.108
0.102
-0.087
-0.027
-0.069
-0.015
0.037
0.119
0.081
-0.111
0.021
-0.058
-0.000
0.133
0.024
0.078
-0.351
-0.366
0.261
0.286
0.176
-0.005
0.117
-0.093
-0.064
-0.126
0.100
0.172
0.059
0.086
-0.084
0.136
0.032
-0.083
0.016
0.075
-0.032
-0.033
-0.167
-0.110
-0.015
0.069
0.042
0.025
-0.051
0.004
-0.172
0.041
0.090
0.065
-0.045
-0.014
-0.001
0.065
0.087
0.073
-0.025
0.063
0.105
-0.061
-0.092
0.008
0.054
0.185
0.131
0.062
-0.072
0.057
-0.017
0.027
-0.056
-0.054
0.250
0.319
0.210
-0.037
-0.291
-0.351
0.040
0.078
0.068
0.383
0.290
-0.021
-0.149
-0.088
-0.151
-0.185
-0.130
-0.077
0.450
0.432
0.163
0.085
-0.155
-0.241
-0.142
0.048
0.059
0.051
-0.040
0.179
0.060
-0.055
0.039
-0.098
-0.155
0.000
0.087
0.092
0.063
0.056
-0.133
-0.110
0.012
0.051
0.052
0.217
-0.046
-0.141
-0.136
0.074
0.081
0.192
0.006
-0.023
-0.083
0.018
-0.097
0.032
0.120
-0.046
0.004
0.024
-0.014
-0.089
-0.042
-0.067
0.032
0.012
0.102
-0.124
0.023
0.118
-0.031
0.043
-0.005
0.024
-0.024
0.049
0.023
0.081
0.089
0.005
0.076
-0.048
-0.061
-0.021
0.182
-0.075
-0.005
0.070
-0.126
-0.157
0.126
0.421
0.105
-0.028
-0.022
-0.107
-0.174
-0.040
0.145
0.023
-0.026
0.145
0.017
0.059
-0.148
-0.245
0.083
0.165
0.221
-0.078
0.114
-0.065
0.108
-0.152
-0.197
-0.031
0.328
0.236
0.224
0.028
-0.072
-0.095
-0.023
0.040
-0.161
-0.221
-0.008
-0.003
0.117
0.280
0.143
0.077
-0.173
-0.269
-0.027
0.123
0.084
0.046
-0.026
0.081
0.079
0.176
0.150
-0.061
-0.025
0.023
-0.069
-0.047
-0.011
0.153
0.108
-0.088
-0.014
-0.032
0.015
0.084
0.050
-0.117
-0.091
-0.182
0.441
0.342
0.148
0.055
-0.115
-0.199
-0.203
-0.046
0.150
0.300
0.138
0.113
-0.002
-0.209
-0.009
0.158
-0.142
-0.111
0.020
0.077
0.191
-0.039
0.062
-0.054
0.037
0.029
-0.046
0.116
0.042
-0.027
0.052
0.067
0.073
-0.017
0.025
0.026
0.072
0.048
0.056
-0.002
-0.061
0.193
0.061
-0.003
-0.049
0.038
0.107
0.095
-0.038
0.028
0.002
0.042
-0.012
-0.104
0.070
0.075
0.114
-0.012
-0.103
0.013
0.135
0.095
-0.238
-0.149
0.046
0.212
0.090
-0.004
-0.070
-0.202
-0.229
0.039
0.234
0.173
0.028
-0.133
-0.164
-0.197
-0.275
-0.098
0.122
0.219
0.136
0.069
0.005
0.039
-0.017
-0.141
-0.160
0.068
0.195
0.106
0.139
-0.043
-0.063
0.055
-0.035
-0.595
-1.373
-3.511
-3.900
-4.111
1.373
3.939
4.632
2.059
-2.200
-3.769
-3.977
-2.763
0.005
2.797
4.260
4.599
4.533
4.385
4.152
3.653
2.113
0.507
-0.553
-1.224
-1.740
-1.900
-2.109
-1.900
-1.585
-1.260
-1.090
-0.798
-0.626
-0.533
-0.330
-0.048
-0.023
-0.166
-0.067
-0.031
0.122
-0.046
0.064
0.052
0.155
0.392
0.335
0.344
0.340
0.012
0.092
0.367
0.941
0.851
0.740
0.555
0.426
0.298
0.366
0.492
0.527
0.748
0.598
0.657
0.379
0.423
0.508
0.279
0.440
0.246
0.219
0.035
0.241
0.093
0.266
-0.010
-0.246
-0.118
0.151
0.074
0.073
0.021
-0.136
-0.303
-0.301
-0.206
-0.133
-0.081
-0.216
-0.181
-0.216
-0.208
-0.139
-0.117
-0.229
-0.236
-0.430
-0.259
-0.305
-0.195
-0.129
-0.144
-0.174
-0.079
-0.240
-0.079
-0.333
-0.267
-0.046
-0.051
-0.184
-0.245
-2.820
-3.971
-0.398
3.270
4.297
2.561
-0.270
-1.904
-2.180
-1.452
-0.249
0.964
1.772
2.107
2.791
2.611
1.888
1.241
0.432
-0.211
-0.507
-0.738
-0.809
-0.941
-0.694
-0.583
-0.571
-0.709
-0.498
-0.327
0.039
-0.146
0.120
0.441
0.287
0.205
0.048
0.081
0.014
0.166
0.210
0.256
0.259
0.143
0.169
0.200
0.055
0.288
0.228
0.327
0.306
0.239
0.191
0.149
0.274
0.174
0.309
0.373
0.419
0.202
0.238
0.133
0.076
0.139
0.258
0.031
0.149
0.070
0.028
0.007
0.078
0.147
0.013
0.042
0.076
-0.106
-0.037
0.095
-0.005
0.200
-0.317
-0.530
-0.164
0.489
0.392
0.016
-0.166
-0.227
-0.411
-0.181
-0.197
0.022
-0.063
-0.038
-0.060
-0.050
-0.269
-0.235
-0.193
-0.195
0.050
-0.207
-0.184
-0.371
-0.224
-0.021
-0.034
-0.063
-0.125
-0.050
-0.112
-0.191
-0.116
-0.133
0.042
0.085
-0.019
0.069
0.062
0.035
-0.044
-0.031
0.095
0.212
0.142
-0.111
-0.068
0.059
-0.037
-0.432
-0.076
0.073
-0.229
0.018
-0.322
-0.078
-0.246
-0.377
-0.128
-0.004
0.311
0.516
0.359
0.345
-0.057
-0.301
-0.042
0.373
0.590
0.553
0.389
0.482
0.210
0.178
-0.169
-0.217
-0.170
-0.082
-0.270
0.314
0.447
0.182
-0.572
-0.799
-0.562
-0.687
-0.650
-0.017
-3.058
-1.186
2.047
1.819
1.303
0.695
0.520
-0.037
-0.319
-0.136
0.279
0.515
-0.599
1.560
2.033
1.868
1.109
0.624
-0.016
-0.301
-0.602
-0.679
-1.411
-2.238
-0.933
-0.458
-1.396
-0.455
0.547
0.602
0.325
-0.157
-0.309
-0.357
0.001
0.231
0.422
0.636
0.645
0.746
0.610
0.591
0.475
0.231
0.186
0.056
0.194
0.261
0.208
-0.112
-0.135
-1.077
-0.290
0.684
0.150
-0.185
0.409
0.629
0.395
0.091
-0.011
-0.012
0.030
0.042
0.017
0.072
0.433
0.577
0.300
0.269
0.246
0.029
-0.188
-0.087
-0.194
-2.997
-0.158
2.033
1.879
0.827
-0.042
-0.612
-0.740
-0.438
0.040
0.188
0.384
0.621
0.543
0.608
0.509
0.292
0.227
-0.051
-0.223
-0.088
-0.067
-0.126
-0.359
-0.113
-0.153
0.135
0.043
-0.071
-0.009
0.047
0.022
0.110
0.061
0.107
0.028
-0.027
0.183
0.050
-0.022
0.038
0.070
0.166
0.186
-0.106
-0.091
-0.030
0.176
0.164
0.084
-0.043
0.053
0.028
0.011
0.024
-0.076
-0.030
0.252
0.009
0.044
-0.114
-0.319
-0.084
-0.032
-0.139
0.183
0.383
0.305
-0.197
-0.427
-0.323
-0.045
0.490
0.198
0.137
0.006
0.007
0.035
0.014
-0.140
-0.177
0.108
0.182
0.134
-0.358
-0.370
-2.460
-3.231
1.903
3.889
3.776
1.758
-0.602
-1.679
-1.852
-1.202
-0.035
0.705
1.484
1.913
1.897
1.594
1.284
0.665
0.243
-0.268
-0.595
-0.847
-0.787
-0.757
-0.494
-0.476
-0.258
-0.238
-0.232
-0.147
0.133
0.194
0.264
0.364
0.366
0.316
0.237
0.330
0.205
0.239
0.013
0.027
0.278
0.153
0.124
0.319
0.343
0.264
0.284
0.360
0.200
0.236
0.261
0.289
0.223
0.146
0.288
0.215
0.250
0.211
0.174
0.074
0.124
0.034
0.041
0.139
-0.153
-0.347
0.274
0.539
0.268
0.071
0.003
-0.134
-0.059
-0.254
0.055
0.035
0.121
0.038
0.035
-0.061
-0.068
-0.174
-0.191
-0.072
-0.186
-0.057
-0.142
-1.129
-0.690
0.276
0.588
0.283
-0.107
-0.139
-0.295
-0.185
-0.013
-0.002
-0.073
0.117
0.157
0.185
0.133
0.161
0.036
0.007
-0.005
-0.191
-0.709
-0.717
-0.397
-0.245
-0.086
0.165
0.477
0.419
0.197
-0.175
-0.088
0.065
0.233
0.313
0.217
0.367
0.713
0.296
-0.011
0.116
0.286
0.145
0.088
-0.085
-0.296
-0.240
-0.134
-0.169
-0.095
-0.051
0.087
0.009
0.039
0.006
-0.089
-0.128
0.350
0.143
0.087
0.027
-0.200
-0.162
0.070
0.164
-0.010
-0.048
0.002
0.014
0.011
0.037
0.554
0.331
-0.139
-0.103
0.073
0.001
-0.018
0.005
0.181
0.159
0.137
0.017
0.136
0.066
0.042
0.082
-0.000
0.112
0.048
-0.040
-0.016
-0.016
-0.011
0.035
0.091
0.078
0.089
-0.041
0.108
0.053
0.110
-0.003
0.012
0.073
-0.165
-0.063
0.071
0.034
0.061
-0.005
-0.069
-0.009
0.009
-0.171
0.031
0.051
-0.080
-0.090
-0.020
0.159
-0.029
-0.103
-0.032
-0.036
-0.097
-0.049
0.078
-0.203
-0.222
0.079
0.297
0.095
0.118
-0.022
-0.117
-0.121
-0.041
-0.037
-0.035
0.028
0.054
0.039
-0.003
0.035
0.134
0.031
-0.076
0.051
-0.066
-0.082
-0.012
0.130
-0.074
0.053
0.196
0.174
0.117
-0.027
-0.044
0.069
0.100
0.081
0.042
0.108
0.096
0.106
0.164
0.111
0.018
-0.182
-0.075
0.247
0.247
0.096
-0.005
-0.094
-0.043
0.119
0.124
0.008
-0.019
0.007
0.024
-0.035
-0.038
0.136
-0.057
-0.069
0.090
0.008
0.085
0.008
-0.082
-0.000
0.037
0.029
0.020
-0.009
0.029
0.014
0.041
-0.144
-0.340
0.310
0.410
0.167
0.052
-0.081
-0.268
0.008
-0.024
0.103
0.123
0.008
-0.154
0.072
0.141
0.134
0.007
-0.095
-0.128
-0.003
0.007
-0.025
0.051
0.102
0.064
0.090
0.084
-0.021
0.099
0.088
0.045
-0.168
-0.129
-0.017
0.087
0.017
0.199
-0.146
-2.294
-2.778
2.014
3.725
1.842
-2.041
-1.042
1.947
1.837
0.945
0.237
-0.254
-0.708
-3.357
-3.910
1.829
3.799
3.373
-1.745
-0.431
-1.561
-1.395
-0.152
0.414
0.804
1.127
1.537
1.860
1.942
1.996
1.877
1.695
1.123
0.579
0.271
-0.130
-0.476
-0.745
-0.663
-0.823
-0.684
-0.620
-0.390
-0.398
-0.095
-0.038
0.115
0.009
0.160
0.307
0.321
0.358
0.431
0.277
0.296
0.369
0.337
0.356
0.370
0.574
0.594
0.273
0.337
0.422
0.365
0.475
0.429
0.377
0.385
0.359
0.392
0.432
0.381
0.224
0.307
0.214
0.297
0.381
0.190
0.265
0.253
0.268
0.278
0.367
0.123
0.184
0.153
0.067
0.078
-0.942
-0.108
0.430
0.313
0.141
-0.055
-0.305
-0.616
-0.332
0.000
-0.057
-0.115
-0.229
-0.248
-0.181
-0.084
0.090
-0.027
-0.302
-0.162
-0.165
-0.182
-0.211
-0.219
-0.224
-0.134
0.034
-0.003
-0.167
-0.454
-0.245
0.230
0.242
0.039
-0.005
-0.076
-0.073
-0.084
0.040
0.135
0.162
0.126
0.241
0.020
0.113
-0.026
0.041
0.058
0.066
0.073
-0.004
0.120
0.086
0.117
0.075
0.091
0.070
0.050
-0.056
0.064
0.055
0.076
0.057
-0.011
0.047
-0.024
0.162
0.010
0.032
-0.088
0.061
0.152
0.154
-0.038
-0.073
0.042
0.076
-0.013
-0.036
0.028
0.108
-0.048
-0.055
0.200
0.097
-0.023
0.192
0.029
-0.024
-0.154
-0.232
-0.087
0.049
0.226
0.534
0.116
-0.336
-0.076
0.017
0.103
0.006
-0.010
0.175
-0.024
-0.100
-0.080
0.080
0.472
0.232
0.147
0.066
-0.195
-0.177
-0.056
-0.120
0.001
0.266
0.198
0.028
0.055
0.124
-0.003
-0.127
-0.091
-0.110
-0.168
0.087
0.010
0.041
0.117
0.028
-0.199
-0.852
-0.179
-0.375
0.125
0.586
0.557
0.058
-0.177
-0.198
-0.045
-0.143
0.085
0.208
0.221
0.141
0.253
0.145
0.267
0.153
-0.004
-0.148
-0.239
-0.133
-0.181
-0.000
-0.079
-0.007
-0.114
-0.159
-0.084
-0.025
0.001
0.039
0.017
0.124
0.106
0.043
-0.076
-0.003
0.140
0.061
0.019
0.102
0.016
0.172
0.105
0.004
-0.115
-2.977
-3.905
1.283
3.811
3.830
1.328
-0.262
-1.441
-1.454
-0.812
-0.067
-2.887
-2.254
2.540
4.133
4.144
1.983
-0.255
-2.454
-2.049
0.407
1.331
1.201
0.782
0.573
0.570
0.415
0.504
0.341
0.314
-0.468
-0.036
0.199
0.068
-0.407
-0.508
-0.716
-0.552
-0.449
-0.499
-0.648
-2.321
-2.029
-1.746
1.718
3.119
2.235
0.820
-1.833
-1.830
-0.560
0.357
0.870
0.983
1.131
1.252
1.137
0.973
0.885
0.650
0.496
0.271
0.183
0.247
-0.006
0.012
0.050
-0.178
-0.060
0.055
0.051
0.075
0.029
0.008
0.234
0.179
0.019
-0.012
-0.005
0.116
-0.082
-0.007
0.041
0.084
0.086
0.039
-0.111
0.004
0.020
0.059
0.006
-0.087
-0.036
-0.064
0.051
0.108
-0.116
0.004
0.050
0.014
0.110
-0.077
-0.088
-0.017
0.032
-0.053
0.062
-0.019
0.068
-0.090
-0.006
0.113
-0.020
0.130
-0.044
-0.147
0.041
-0.003
0.091
-0.070
0.051
0.075
0.032
-0.013
0.007
0.022
0.085
0.152
-0.076
-0.078
0.048
0.337
-0.025
-0.114
-0.109
-0.047
-0.043
0.199
0.330
0.065
-0.394
-0.095
0.154
0.278
-0.085
0.121
-0.527
-0.404
0.053
0.350
0.469
0.362
0.109
-0.039
-0.044
0.022
-0.078
-0.033
0.033
-1.423
-1.045
0.385
0.878
0.864
0.475
0.024
-0.201
-0.334
-0.277
-0.249
0.067
0.043
0.259
0.313
0.401
0.425
0.427
0.253
-0.032
-0.073
-0.082
-0.697
-0.511
-0.082
-0.284
-0.005
0.067
-0.739
-0.142
0.651
0.838
0.060
-0.067
-0.175
-0.040
0.088
0.085
0.274
0.319
-0.907
-0.417
0.440
0.766
0.505
0.142
-0.161
-0.358
-0.408
-0.295
-0.107
-0.020
0.105
0.202
0.174
0.120
0.325
0.201
0.095
0.005
-0.090
-0.116
-0.020
0.343
0.029
-0.072
-0.066
-0.226
-0.113
0.039
0.157
-0.347
0.001
0.265
-0.071
-0.266
-0.241
0.011
-0.068
-0.060
-0.293
-0.039
-0.299
-0.058
0.003
0.288
0.161
0.149
0.002
0.097
0.151
0.132
0.184
0.104
0.150
0.211
0.219
0.228
0.141
0.137
0.006
0.012
-0.040
0.017
0.040
0.160
0.078
-0.019
-0.165
0.071
-0.015
0.007
0.088
-0.033
0.060
0.068
-0.055
-0.128
0.062
0.009
0.062
0.021
-0.037
-0.037
-0.029
0.019
0.067
0.032
-0.080
0.051
0.002
-0.034
0.119
-0.091
0.129
-0.027
0.037
0.016
0.046
-0.049
-0.011
0.056
0.035
-0.024
0.124
-0.092
-0.043
0.025
-0.000
0.111
0.030
-0.013
-0.070
-0.059
0.174
0.096
-0.098
-0.004
0.067
0.090
-0.037
0.061
0.152
0.036
-0.178
-0.037
-0.059
0.126
0.125
0.089
-0.047
0.107
0.010
-0.097
-0.007
0.023
0.039
0.056
-0.034
0.032
0.017
-0.046
0.095
0.059
-0.037
0.029
-0.099
-0.004
0.069
0.020
0.045
0.088
0.042
-0.028
-0.005
-0.041
0.148
0.066
-0.061
-0.047
0.109
0.084
0.127
0.163
0.131
-0.214
0.082
0.010
0.452
0.552
0.070
0.029
0.086
-0.128
0.015
0.033
-0.044
0.104
0.173
0.132
-0.011
-0.044
0.014
-0.198
-0.090
-0.161
-0.047
0.006
0.069
-0.014
0.025
-0.007
0.037
-0.002
0.120
0.213
0.175
0.064
0.077
0.032
-0.077
0.127
0.054
-0.038
-0.054
0.065
0.084
0.085
-0.019
-0.018
-0.065
0.011
0.202
0.063
0.131
0.001
-0.224
-0.252
-0.010
-0.106
-1.244
-0.836
0.315
0.054
-1.513
-0.824
0.332
0.757
0.551
0.172
-0.075
-0.011
0.337
0.476
0.675
0.551
0.401
0.565
0.567
0.615
0.352
-0.912
-0.765
0.010
0.516
0.301
-0.065
-0.309
-0.405
-0.484
-0.484
-1.340
-0.755
0.256
1.056
0.787
-1.488
-0.788
0.380
0.430
0.438
0.338
-0.460
-0.013
-0.044
-0.043
-0.047
0.091
0.295
0.300
0.185
0.276
0.245
0.268
0.177
0.050
0.080
0.004
-0.295
-2.423
-0.822
0.666
0.919
0.769
0.282
-0.214
-0.419
-0.150
-0.118
0.022
0.461
0.410
0.417
0.540
0.567
0.436
0.342
0.272
0.125
0.052
-0.061
-0.040
-0.040
0.004
-0.111
-0.125
0.215
-0.147
-0.285
-0.003
0.081
-0.028
0.148
0.555
-0.179
-0.022
-0.660
-0.499
0.037
0.288
0.332
0.169
-0.162
0.057
0.051
0.059
-0.132
0.045
-0.007
0.181
0.205
0.090
-0.097
-0.060
0.443
0.377
0.167
0.065
-0.028
-0.190
-0.238
-0.107
0.074
0.089
0.098
0.043
0.132
0.066
0.023
0.013
0.030
0.112
-0.078
0.109
0.083
-0.075
0.010
-0.006
-0.147
0.025
-0.179
-0.329
0.192
0.368
0.243
0.171
0.172
-0.081
-0.098
0.062
0.067
0.169
-0.013
-2.452
-2.139
1.095
2.278
1.686
0.562
-0.277
-0.738
-0.746
-0.595
-0.080
0.170
0.479
0.756
0.816
0.569
0.589
0.328
0.294
0.148
-0.081
-0.284
-0.273
-0.293
-0.305
-0.339
-0.257
-0.175
-0.096
-0.062
-0.096
-0.040
-0.044
-0.008
0.119
0.111
-0.006
-0.060
0.069
-0.025
0.004
0.047
0.108
0.111
0.121
0.139
0.116
0.087
0.139
0.092
0.117
0.230
0.322
0.320
0.305
0.112
0.163
0.042
0.121
0.322
0.229
0.280
0.081
0.143
0.027
0.125
0.210
-0.018
-0.336
-0.252
0.056
0.230
0.157
0.100
0.031
0.087
-0.155
0.058
0.035
-0.029
0.174
0.051
-0.023
-0.043
0.053
0.039
-0.024
-0.046
0.014
0.091
-0.041
0.026
-0.024
-0.081
-0.032
0.055
0.003
0.090
0.000
0.060
0.043
-0.043
0.037
-0.062
-0.015
0.072
0.083
0.171
-0.059
0.018
-0.189
-0.257
-0.007
0.529
0.331
-0.086
-0.014
-0.158
-0.110
0.028
0.121
0.080
0.150
0.038
-0.229
-0.085
-0.126
-0.155
-0.023
0.299
0.193
-0.095
-0.262
-0.036
-0.079
0.124
0.004
0.073
0.122
0.018
0.022
-0.078
-2.881
-1.500
2.739
3.779
2.460
0.450
-0.975
-1.635
-1.335
-0.900
0.083
1.070
1.362
1.623
1.563
1.471
0.751
-0.154
0.740
0.661
-0.590
-0.801
-0.494
-0.777
-0.947
-0.440
-0.338
-0.083
0.106
-0.026
0.108
0.064
0.238
0.449
0.417
0.519
0.581
0.497
0.330
0.242
0.172
0.200
-0.959
-0.076
0.654
0.086
0.326
0.415
0.370
0.141
0.129
-2.035
-0.444
1.103
1.376
0.836
0.976
0.036
-1.837
-0.453
0.702
0.996
0.681
0.423
0.246
0.108
0.266
0.160
0.156
0.209
0.349
0.327
0.191
0.237
0.270
0.173
-0.139
-0.114
-0.181
-1.114
-0.835
-0.014
0.255
0.146
-0.064
-0.492
-0.291
-0.137
-0.111
-0.066
-0.035
-0.365
-0.503
-0.895
-0.301
0.138
0.448
0.206
-0.115
-0.052
-0.265
-0.227
-0.250
-0.148
-0.009
0.113
0.143
0.082
0.129
0.209
0.398
0.170
0.094
0.218
-0.026
0.075
-0.172
0.147
0.310
0.028
0.091
-0.070
-0.147
0.098
0.337
0.025
-0.267
0.042
-0.005
0.150
0.128
0.122
0.034
0.029
0.093
0.053
-0.017
0.101
0.106
0.032
0.002
0.237
0.037
0.029
0.013
0.073
-0.022
-0.104
-0.048
0.063
0.082
-0.065
0.032
-0.024
-0.078
-0.013
-0.040
0.187
0.020
-0.001
0.123
-0.029
0.003
-0.047
-0.024
0.226
0.055
0.133
0.003
-0.038
0.018
-0.043
0.008
0.037
-0.084
0.110
0.011
-0.146
0.011
0.049
0.023
-0.033
0.317
-0.054
-0.057
0.187
-0.209
0.138
-0.090
-0.212
-0.004
0.134
0.098
0.083
0.038
0.023
0.027
-0.025
0.004
-0.209
-0.088
0.145
0.046
0.160
0.041
-0.003
-0.009
-0.061
-0.005
-0.183
0.081
0.121
0.006
0.026
-0.038
-0.080
0.045
-0.007
-0.012
0.019
0.044
-0.127
-0.007
-0.090
-0.045
0.006
0.067
0.026
0.068
-0.064
0.008
-0.047
0.052
-0.027
-0.001
-0.049
0.131
-0.006
0.022
0.113
0.041
0.055
0.101
0.115
0.060
-0.022
0.062
0.041
0.138
-0.032
0.104
0.123
0.149
0.038
0.010
0.127
0.057
0.024
0.027
0.031
0.103
0.052
0.130
-0.119
0.128
-0.048
0.176
0.050
-0.169
0.022
0.183
0.082
0.187
-0.025
-0.041
0.129
0.194
-0.241
-0.111
0.070
0.132
0.147
0.152
-0.052
-0.188
-0.140
-0.138
-0.378
-0.099
0.151
0.148
0.100
0.037
-0.137
-0.136
-0.076
-0.074
0.046
0.050
-0.011
0.083
0.027
0.122
0.079
0.129
0.006
0.047
0.267
0.184
0.005
-0.028
0.027
-0.116
-0.103
-0.291
-0.005
0.309
-0.042
-0.522
-0.252
-0.023
0.143
0.135
-0.014
-0.044
-0.029
0.115
0.075
0.041
0.147
0.108
0.194
0.195
0.124
0.284
0.152
0.094
0.025
-0.009
-0.131
-0.148
-0.075
-0.049
-0.045
-0.197
-0.096
0.237
0.147
-0.072
0.032
-0.001
-0.093
-0.211
0.051
0.297
0.193
-0.629
-0.688
0.135
0.501
0.280
0.204
0.340
0.077
-0.034
-0.411
-1.240
-0.386
0.511
0.774
0.869
0.530
0.186
0.023
-0.216
-0.263
-0.239
-0.318
-0.859
-0.356
0.399
0.973
0.831
0.296
-0.290
-0.892
-0.591
-0.095
0.205
0.174
0.078
0.090
0.203
-0.014
0.051
0.058
-0.043
0.001
0.191
0.032
0.027
-0.014
-0.041
0.009
0.182
-0.070
-0.016
-0.002
0.110
-0.056
-0.003
-0.070
0.007
0.013
-0.026
0.153
0.049
-0.054
0.012
-0.009
0.155
0.039
0.040
-0.057
0.061
-0.052
0.031
0.064
0.079
-0.021
0.116
0.056
-0.005
-0.135
0.013
0.121
0.138
0.186
0.049
-0.090
-0.048
0.071
0.006
0.149
0.117
0.072
-0.049
-0.007
0.015
0.008
-0.081
-0.076
0.061
0.123
0.136
0.069
0.013
0.092
0.040
0.100
0.016
-0.054
0.213
0.075
-0.001
0.192
0.238
0.125
0.148
0.049
-0.174
-0.089
0.026
0.014
-0.011
0.058
-0.199
-0.083
0.111
-0.102
0.035
0.088
-0.016
-0.024
-0.017
-0.145
-0.236
0.379
0.454
0.102
-0.152
-0.252
0.007
-0.111
-0.112
0.282
0.454
0.193
-0.038
-0.176
-0.116
-0.107
-0.013
0.014
0.025
0.176
0.109
0.063
-0.016
0.109
0.052
-0.008
0.059
-0.019
0.106
0.149
-0.155
-0.239
-0.036
0.152
0.108
0.133
0.010
0.015
-0.058
0.042
-0.060
-0.083
-0.256
-1.667
-1.060
0.964
1.361
0.768
0.196
-0.161
-0.378
-1.820
-2.317
1.113
2.923
1.201
0.590
0.370
0.072
-0.377
-1.026
-0.291
-0.824
0.029
1.176
1.144
0.980
0.449
0.049
-0.203
-0.446
-1.059
-1.005
-0.064
0.409
0.404
0.105
-0.167
-0.288
-0.299
-0.271
0.069
-0.080
0.087
0.192
0.219
0.317
0.337
0.351
0.076
0.203
0.229
0.244
0.182
-0.122
-0.009
0.036
0.055
0.244
0.086
0.103
0.091
0.139
0.202
0.004
0.046
0.014
0.119
0.074
0.210
0.373
0.046
0.109
0.339
0.107
0.105
-0.114
-0.413
0.011
0.408
0.457
-0.683
-0.281
0.297
0.534
0.347
-0.227
-0.132
-0.049
0.143
-0.089
-0.327
-0.271
-0.263
0.122
0.428
0.381
0.124
-0.121
-0.109
-0.206
-0.064
-0.018
-0.084
0.038
0.035
0.148
0.169
0.026
0.197
0.009
-0.040
-0.057
0.132
0.073
-0.035
0.113
0.133
-0.121
-0.011
0.316
-0.239
-0.729
-0.176
0.272
0.225
0.221
0.148
-0.035
0.005
-0.271
-0.182
-0.024
0.017
0.144
0.258
0.397
0.173
0.103
0.080
0.155
-0.474
-0.209
0.397
0.345
0.091
0.190
-0.160
-0.136
0.125
-0.920
-0.234
0.108
0.437
-0.525
-0.157
0.478
0.522
0.227
0.058
-0.094
0.044
0.118
0.202
0.266
0.142
0.197
0.457
0.177
-2.117
-0.784
0.518
0.774
0.499
-0.018
-0.260
-0.420
-0.208
-0.315
-0.045
0.258
0.344
0.340
0.371
0.362
0.287
0.356
0.153
0.050
0.055
-0.123
-0.052
-0.184
-0.087
0.011
0.005
-0.132
0.012
-0.026
0.090
0.025
-0.006
0.022
-0.040
0.004
-0.124
0.034
-0.031
-0.005
0.019
0.026
0.055
-0.095
-0.124
0.106
0.042
-0.015
0.012
0.028
-0.019
0.030
-0.045
0.071
0.158
-0.010
0.036
0.064
-0.063
0.137
0.170
0.134
0.121
0.172
0.192
0.034
-0.050
0.038
0.027
0.096
0.281
-0.118
0.139
0.167
-0.009
-0.192
0.052
0.069
-0.066
-0.089
-0.053
-0.104
0.032
0.110
0.074
-0.017
0.076
0.080
-0.063
0.061
0.033
0.139
-0.002
0.005
0.038
0.076
-0.131
-0.117
0.490
0.319
0.122
0.056
-0.093
-0.084
-0.021
0.080
-0.087
0.076
0.143
0.107
0.064
0.020
0.033
-0.007
0.003
-0.092
0.079
0.070
0.079
0.063
-0.052
0.210
-0.088
-0.262
-0.107
-0.006
0.140
-0.143
-0.093
0.241
0.450
-0.051
-0.311
-0.220
0.062
0.196
0.074
0.086
-0.338
-0.530
-1.772
-1.747
1.261
2.037
1.172
0.216
-0.454
-0.565
-0.610
-0.068
0.144
0.370
0.758
0.549
0.353
0.379
0.426
0.315
0.093
-0.087
-0.065
-0.213
-0.368
-0.289
-0.338
-0.166
-1.499
-0.817
0.678
0.931
0.586
0.071
-0.187
-0.252
-0.042
-0.481
-3.249
-0.884
2.696
3.366
1.992
0.757
0.105
-1.755
-1.387
-0.169
0.515
0.924
1.038
1.024
-0.069
0.250
0.821
1.062
0.897
0.538
-0.009
-0.481
-0.685
-0.589
-0.481
-0.231
0.091
0.201
0.093
0.207
0.211
0.062
0.179
0.138
0.044
0.095
-0.043
-1.117
-0.632
0.644
0.645
-0.108
0.075
0.262
-0.097
-0.071
-1.539
-1.478
0.668
2.098
1.719
0.783
0.169
-0.200
0.015
-1.209
-0.518
0.580
1.219
1.335
0.950
0.447
0.101
-0.147
0.013
-0.002
-0.037
0.172
0.018
0.110
0.052
0.016
0.070
-0.164
-0.249
-0.427
0.271
-0.000
-0.103
-0.263
-0.319
-0.324
-0.747
-0.561
0.187
0.521
-0.105
-0.331
0.115
0.093
-0.032
-0.080
-0.630
-1.975
-1.408
-0.108
0.954
0.975
0.743
0.120
-0.105
-0.165
-0.077
-0.116
0.063
0.405
0.562
0.533
0.541
0.683
0.757
0.439
0.429
0.130
-0.008
-0.143
-0.164
-0.050
-0.059
-0.105
-0.309
-0.235
0.124
0.141
0.085
-0.060
-0.104
-0.236
-0.075
-0.115
0.067
-0.178
-0.030
0.057
0.020
0.026
-0.040
0.007
-0.048
0.069
0.004
0.010
-0.019
0.045
0.067
-0.027
0.129
0.120
0.070
0.056
0.145
0.076
-0.002
-0.087
-0.110
0.377
0.380
0.162
-0.151
-1.327
-0.025
0.648
0.578
-1.894
-2.564
1.089
2.549
1.980
0.769
-0.271
-0.734
-0.704
-0.325
-0.092
0.494
0.734
0.741
0.823
0.888
0.719
0.474
0.260
-0.011
-0.209
-0.279
-0.511
-0.418
-0.393
-0.338
-0.293
-0.212
-0.168
-0.201
-0.064
0.038
-0.052
-0.097
-0.009
0.027
-0.113
-0.024
-0.014
0.061
0.094
0.015
-0.068
0.016
0.003
0.072
0.099
0.209
0.146
0.173
0.054
0.144
0.069
0.260
0.161
-0.029
0.229
0.194
0.157
0.136
0.152
0.108
0.018
0.100
0.154
0.206
0.182
0.068
0.040
-0.074
0.213
0.031
0.001
0.110
0.042
-0.045
-0.001
0.055
0.049
-0.020
-0.046
-0.022
0.126
0.122
0.231
0.091
-0.138
0.078
-0.088
0.097
0.091
-0.075
0.049
0.206
0.083
-0.135
-0.350
-0.218
-0.223
-0.090
-0.219
0.068
0.224
0.168
-0.145
-0.006
-0.145
-0.127
0.017
-0.026
0.080
0.279
0.210
0.076
0.031
-0.008
0.028
0.108
0.167
-0.067
-0.002
-0.028
-0.095
-0.061
0.131
0.235
0.027
-0.036
-0.024
-0.005
0.039
0.008
0.137
0.051
0.017
0.167
0.160
-0.033
-0.003
-0.138
-0.091
-0.019
0.174
-0.002
-0.077
-0.149
-0.061
0.407
0.208
0.131
-0.112
-0.287
-0.365
-0.040
0.113
0.116
0.214
-0.048
-0.165
-0.443
-0.152
0.130
0.248
0.092
-0.182
-1.025
-0.305
0.279
0.481
0.267
0.065
-0.272
0.194
0.231
0.282
0.226
-0.068
0.010
0.125
0.361
0.506
0.267
-0.125
-0.218
-0.105
0.011
0.180
0.167
-0.760
-1.530
-3.308
-2.195
0.892
1.942
1.446
0.628
-0.226
-0.658
-0.628
-0.248
0.198
0.628
0.767
0.936
1.008
0.910
0.806
0.602
0.181
-0.057
-0.152
-0.308
-0.301
-0.366
-0.357
-0.518
-0.213
-0.263
-0.105
-0.104
-0.169
0.010
-0.040
0.028
-0.005
0.054
-0.028
-0.025
0.149
0.145
0.195
0.128
0.062
-0.151
-0.205
0.070
0.178
0.235
-0.035
-0.104
0.166
0.140
-0.072
-0.093
-0.158
0.043
0.185
0.151
-0.028
0.174
0.116
0.200
0.199
0.049
0.160
0.143
0.104
0.262
0.246
0.209
0.210
0.013
-0.106
0.059
0.121
0.325
0.294
0.318
0.093
0.071
0.036
0.011
-0.057
0.020
0.076
0.015
-0.300
0.203
0.341
0.256
-0.084
-0.205
-0.339
-0.178
-0.049
-0.557
-0.029
0.258
0.210
0.087
0.025
-0.095
-0.141
-0.188
-0.149
0.040
-0.004
-0.209
-0.098
0.403
0.431
0.107
-0.086
0.005
-0.083
-0.142
0.129
-0.009
-0.180
-0.029
0.360
0.294
0.120
-0.084
-0.165
-0.117
-0.108
-0.014
0.156
0.083
0.020
0.144
0.071
-0.022
-0.023
0.093
0.106
0.126
-0.059
-0.317
-0.666
-0.003
0.493
0.356
0.068
-0.019
-0.152
-0.038
-0.073
-0.046
0.187
0.171
0.078
0.135
-2.049
-3.710
-0.321
2.730
3.078
1.577
-0.310
-0.970
-1.014
-0.669
-0.065
0.324
0.742
1.073
1.300
1.166
1.049
0.867
0.721
0.289
0.048
-0.329
-0.522
-0.515
-0.550
-0.643
-0.463
-0.439
-0.272
-0.310
-0.295
-0.303
-0.441
-2.893
-0.706
1.208
1.543
0.896
0.249
0.018
-0.027
-0.119
-0.067
0.370
0.547
0.778
0.947
0.832
0.801
0.672
0.469
0.420
0.101
0.102
-0.119
-0.074
-0.125
-0.310
-0.217
0.057
0.009
-0.064
0.007
-0.009
-0.029
0.151
0.046
0.076
0.142
0.003
0.120
0.006
0.033
0.058
-0.015
-0.146
0.052
0.110
0.128
0.028
-0.087
-0.003
0.103
0.088
0.077
0.103
0.098
0.147
-0.072
-0.338
-0.477
-0.262
0.102
0.235
0.263
0.151
-0.063
-0.119
-0.183
-0.005
0.055
0.056
0.052
0.067
0.154
0.136
0.123
0.198
-0.016
-0.177
-0.261
0.092
0.208
0.294
0.047
-0.209
-0.183
-0.186
-0.077
0.007
0.019
0.160
0.118
-0.029
-0.028
-0.044
0.067
-0.137
-0.143
-0.044
-0.040
0.067
-0.037
-0.091
0.206
0.061
0.101
0.169
-0.175
-0.244
-0.088
0.024
-0.126
0.185
0.269
0.254
-0.046
-0.168
-0.086
-0.251
0.051
0.111
-0.003
0.076
0.022
0.193
0.170
0.048
0.105
-0.045
0.078
0.039
-0.084
0.005
0.122
0.125
0.097
0.055
-0.088
0.073
0.090
-0.115
0.037
-0.139
-0.011
-0.046
0.169
-0.005
-0.044
-0.028
0.086
0.042
-0.006
0.071
0.050
0.023
-0.082
-0.022
-0.144
0.033
0.428
0.303
0.091
-0.005
-0.109
-0.197
-0.046
0.035
0.143
0.051
0.171
0.010
-0.080
0.008
-0.030
-0.217
-0.114
0.014
0.183
0.098
-0.155
0.020
-0.118
0.189
-0.064
-0.136
-0.016
0.015
0.206
0.108
-0.012
-0.061
-0.098
-0.009
0.107
0.095
0.017
-0.101
-0.040
0.041
0.008
-0.010
-0.073
0.074
0.011
-0.072
0.073
0.043
-1.517
-1.654
0.434
1.361
0.858
0.379
-0.116
-0.392
-2.409
-0.876
1.939
2.292
1.483
0.557
-0.004
-0.396
-0.287
-0.207
0.244
0.334
0.618
-0.295
-3.347
-3.019
1.722
3.756
3.726
0.966
-1.320
-2.088
-1.654
-0.961
0.148
0.817
1.440
1.765
1.966
1.604
1.139
0.810
0.399
-0.190
-0.352
-0.247
-0.645
-0.891
-0.930
-0.709
-0.596
-0.312
-0.125
0.025
0.127
0.240
0.322
-2.366
-2.580
2.643
4.252
3.145
0.776
-0.874
-1.564
-1.130
-0.381
0.327
1.079
1.623
1.815
1.086
0.933
1.386
1.019
0.573
0.267
-1.910
-0.939
0.301
0.405
-0.119
-0.325
-0.184
-0.153
-0.072
0.047
-2.889
-1.451
2.745
3.858
2.578
0.587
-0.666
-1.099
-0.996
-0.608
0.099
0.673
0.176
0.938
1.502
1.132
0.723
0.194
-0.292
-0.506
-0.089
-0.129
-0.477
-0.404
-0.236
-0.192
-0.067
-0.100
-0.154
0.009
0.043
0.125
0.112
0.146
0.157
0.211
0.021
0.124
0.126
0.017
0.053
-0.191
-3.106
-2.108
1.992
3.115
2.006
0.592
-0.404
-0.717
-0.734
-0.191
0.306
0.650
0.910
0.943
0.572
-1.008
-1.323
-0.328
0.587
1.136
1.014
0.416
-0.425
-0.906
-0.692
-0.397
-0.228
0.451
0.684
0.805
0.485
0.373
0.501
0.248
-0.110
0.005
0.174
-0.185
-0.363
-0.517
-0.368
-0.699
-3.136
-0.534
1.285
0.159
-1.478
0.940
1.167
-1.252
-0.909
0.289
0.915
0.756
0.455
0.173
-0.032
0.126
0.371
0.625
0.670
0.550
0.468
0.185
-0.005
-0.127
-0.268
0.080
-0.045
-0.045
-0.098
-0.080
-0.103
-0.022
0.100
0.074
0.184
0.003
0.146
-0.064
-0.011
0.093
-0.000
0.000
-0.082
-0.237
0.061
0.055
0.027
0.028
-0.049
-0.072
0.170
0.105
0.138
-0.330
-0.148
0.027
0.147
0.092
0.111
0.140
-0.063
0.035
0.016
-0.013
-0.094
0.049
0.026
0.179
-0.061
0.312
0.277
0.115
-0.078
0.231
0.246
-0.019
-0.213
0.007
0.407
0.086
-0.715
-0.515
-0.020
0.099
0.074
0.215
0.116
0.051
-0.144
-0.110
-0.195
0.049
0.032
0.231
0.220
0.286
0.270
0.139
0.226
0.187
0.032
0.196
0.075
-0.006
0.014
-0.010
-0.069
0.113
0.230
0.125
0.017
0.001
0.025
-0.012
0.061
0.105
0.109
0.132
-0.017
-0.111
-0.001
-0.083
-0.076
-0.149
-0.091
-0.051
-0.089
-0.043
0.004
0.023
-0.070
-0.065
0.067
-0.007
0.076
0.050
0.033
0.027
0.036
0.154
0.030
0.078
0.222
-0.005
-0.051
0.026
0.092
0.033
-0.081
0.452
0.074
-0.014
-0.154
-0.135
-0.194
0.160
0.457
0.296
-0.010
-0.139
0.042
-0.138
-0.090
-0.040
0.050
0.167
-0.171
-0.032
0.000
0.083
0.015
-0.094
-0.115
-0.034
-0.012
0.033
0.045
-0.060
0.117
0.015
-0.241
-0.047
0.122
0.188
0.148
0.014
0.017
-0.158
-0.015
0.012
-0.025
0.002
0.057
-0.309
-2.783
-0.768
0.901
1.128
0.740
0.169
-0.198
-0.238
-0.350
-0.120
0.013
0.336
0.539
0.731
0.552
0.386
0.219
0.204
0.197
0.115
-0.087
-0.260
-0.599
-0.472
-0.222
0.099
0.094
-0.161
-0.231
-0.139
-0.118
-0.064
0.003
0.113
0.146
0.246
0.070
0.171
-0.004
-0.016
0.149
0.269
0.251
-0.046
-0.221
-0.113
-0.121
0.031
0.108
0.032
-0.074
0.067
0.063
0.091
0.061
0.040
0.106
0.167
0.164
-0.023
0.052
0.143
0.033
0.110
0.148
0.107
0.168
0.040
0.091
0.084
-0.002
0.022
0.000
0.086
0.095
-0.005
0.046
0.011
0.113
-0.081
0.092
0.148
0.045
0.015
0.015
0.074
0.216
0.252
0.132
-0.196
-0.142
-0.204
-1.004
-0.160
0.451
0.515
0.187
0.007
-0.224
-0.184
-0.146
0.037
0.209
-0.026
-0.080
0.052
0.239
0.328
0.352
0.269
0.054
0.013
0.123
-0.032
0.066
-0.050
-0.240
-0.094
-0.022
0.005
-0.041
-0.444
-2.443
-0.170
0.946
0.609
0.322
0.110
-0.655
-0.602
-0.228
0.243
0.209
0.540
0.691
0.456
0.376
0.397
0.440
0.164
-0.506
-0.748
0.645
0.703
0.483
0.137
-0.109
-0.340
-0.325
-0.166
-0.178
-0.039
-0.116
0.093
0.233
0.197
0.061
0.032
-0.192
-0.488
0.115
0.185
-0.480
-1.628
-0.805
-0.135
0.394
0.329
0.233
0.072
0.091
-0.063
-0.061
-0.079
0.123
0.280
0.563
0.592
0.557
0.516
0.436
0.546
0.224
0.135
0.007
-0.023
-0.081
0.034
-0.127
0.029
0.011
0.073
-0.136
0.055
-0.055
-0.034
-0.059
-0.189
0.098
-0.189
-0.131
0.159
-0.141
-0.276
-0.086
0.012
0.170
0.059
-0.136
0.080
-0.035
-0.151
-0.033
0.025
0.070
0.211
0.042
0.059
0.007
0.062
0.118
0.221
0.068
0.012
-0.074
-0.040
0.176
0.275
0.087
-0.048
-0.131
-0.155
-0.048
-0.038
-0.231
-0.009
0.611
0.399
0.040
-0.107
-0.138
-0.122
-0.107
0.073
-0.071
0.067
0.164
0.119
0.097
0.117
-0.105
-0.112
-0.089
-0.036
-0.013
0.083
-0.010
-0.040
-0.129
0.106
-0.032
-0.003
0.068
-0.082
0.090
-0.006
0.046
-0.130
0.014
-0.277
-1.939
-2.344
-0.518
0.801
1.317
1.292
0.329
0.054
-0.357
-0.634
-0.245
0.207
0.587
0.908
0.861
0.744
-0.154
-0.217
0.041
0.311
0.272
0.199
-0.178
-0.567
-0.546
-0.502
-0.316
-0.214
0.013
0.067
0.106
0.168
0.113
0.141
0.273
0.191
0.160
-0.142
0.029
0.062
0.058
-0.018
-0.082
0.108
0.008
-0.087
-0.127
0.133
0.588
0.316
0.242
0.141
-0.025
-0.164
-0.084
0.268
0.494
0.110
-0.118
-0.143
0.039
-0.581
-0.561
0.101
0.645
0.429
0.267
0.114
-0.069
-0.139
0.004
0.297
0.295
0.283
0.264
0.400
0.297
0.205
0.048
0.019
0.117
0.010
-0.137
-0.089
0.020
-0.116
-0.118
0.009
0.085
0.046
-0.025
-0.084
0.017
0.130
0.061
-0.034
0.039
-0.002
-0.042
0.046
0.054
0.002
0.116
-0.076
0.052
-0.045
-0.134
-0.243
-0.001
0.292
0.159
-1.258
-1.871
-1.040
0.159
0.749
0.473
0.387
0.362
-0.109
-0.379
-0.166
0.021
0.203
0.374
0.575
0.410
0.590
0.634
0.377
0.335
0.000
0.083
-0.080
0.052
-0.013
-0.151
-0.341
-0.358
-0.201
-0.177
0.010
0.424
0.268
-0.104
-0.109
-0.141
-0.340
-0.088
-0.049
-0.029
-0.018
-0.107
-0.103
-0.099
-0.010
0.021
0.018
-0.115
-0.114
-0.169
0.168
0.098
0.035
0.016
0.339
0.018
-0.141
-0.061
0.406
0.408
0.302
0.297
0.188
-0.079
0.075
0.222
0.255
0.142
0.100
0.207
0.175
0.215
-0.028
-1.219
-0.133
0.919
0.761
0.392
-0.036
-0.313
-0.158
-0.140
-0.017
0.144
0.156
-2.483
-1.613
2.093
2.425
1.192
-0.546
-1.465
-1.161
-0.766
-1.019
-0.235
0.749
1.383
1.135
0.552
0.123
-0.067
-0.020
0.017
0.205
0.235
-0.769
-0.933
-0.975
0.116
0.733
0.641
0.498
-0.009
-0.387
-0.601
-0.469
-0.322
-0.015
0.331
0.158
-0.471
-0.499
0.231
1.290
1.034
0.367
-0.172
-0.345
-0.446
-0.381
-0.063
0.006
0.203
-0.242
0.118
0.368
0.541
0.611
0.245
-0.077
-0.065
-0.099
-0.092
0.046
0.015
0.142
-0.526
-0.609
-0.287
0.595
0.720
0.418
0.015
-1.833
-0.696
0.869
0.903
0.658
0.275
-0.041
-0.032
0.154
0.194
0.334
0.331
-0.168
-0.519
0.212
0.581
0.804
0.371
-0.041
-0.260
-0.321
-0.145
-0.282
-0.389
-0.218
0.105
0.134
0.041
-0.031
0.007
-0.238
-0.193
-0.202
-0.034
0.030
-0.046
-0.230
-0.239
-0.178
-0.043
0.097
0.121
0.158
-0.669
-1.367
-0.450
0.448
0.801
0.459
0.337
-0.119
-0.100
0.158
0.212
0.204
0.320
0.433
0.557
0.535
0.417
0.355
0.151
0.121
0.250
-0.135
-0.234
-0.198
-0.147
-0.300
-0.369
-0.240
-0.104
-0.078
-0.180
-0.165
-0.141
-0.070
0.067
-0.032
-0.131
0.035
-0.008
0.141
0.159
0.089
-0.240
-0.245
-0.017
0.449
0.256
0.194
0.104
-0.068
-0.085
0.019
0.108
0.197
0.280
0.191
0.136
0.107
0.093
0.155
0.095
0.155
0.121
0.040
0.016
0.123
0.083
0.135
0.159
0.133
0.125
0.081
-0.011
0.056
0.147
0.099
0.087
0.057
-0.011
0.026
-0.001
0.008
-0.002
-0.040
0.108
0.037
-0.050
-0.045
-0.030
-0.055
0.009
-0.028
-0.151
-0.084
-0.014
0.125
-0.077
-0.117
-0.009
0.010
-0.030
-0.161
-0.065
-0.052
0.012
0.106
-0.121
0.034
0.066
-0.151
-0.268
-0.044
0.146
0.246
0.108
-0.031
-0.008
-0.088
-0.102
-0.015
-0.036
0.044
0.043
-0.013
0.013
-0.066
-0.197
-0.224
0.001
0.429
0.223
0.107
-0.095
-0.006
-0.212
-0.003
0.070
0.135
0.038
0.037
0.061
0.037
0.018
0.048
-0.052
-0.094
0.225
-0.035
-0.011
-0.062
0.040
0.006
0.070
0.016
0.010
-0.016
0.025
0.015
0.145
0.100
-0.040
0.058
0.051
-0.012
0.172
0.075
-0.068
-0.078
0.017
0.015
0.179
0.137
0.154
-0.041
-0.353
-0.012
-0.082
-0.286
0.093
0.496
0.338
0.027
-0.259
-0.085
-0.006
-0.085
-0.208
-0.076
0.040
-0.010
0.044
-0.048
-0.213
-0.140
-0.135
-0.178
-0.169
-0.073
-0.244
-0.064
0.188
0.093
-0.009
-0.054
0.037
0.060
0.075
-0.223
0.118
0.484
0.370
0.018
0.019
-0.012
-0.181
-0.027
0.051
0.040
0.024
-0.078
-0.071
0.049
0.060
0.029
-0.161
-0.083
-0.114
-0.327
-0.024
0.100
0.056
-0.037
0.165
-0.095
-0.259
0.005
0.148
0.189
0.001
-0.046
-0.075
0.029
0.078
0.015
0.023
0.062
-0.084
0.075
0.030
0.123
0.001
0.052
0.010
0.073
0.001
0.127
0.148
-0.043
-0.077
0.119
0.194
0.268
0.100
0.033
0.109
0.009
0.037
0.058
0.027
0.029
0.025
0.149
0.101
-0.057
0.109
0.108
0.052
0.158
0.008
0.022
-0.071
0.039
-0.065
0.019
-0.007
-0.148
0.045
0.451
0.197
-0.043
-0.031
-0.030
-0.053
-0.088
-0.079
0.070
0.089
0.064
0.009
0.058
0.045
-0.208
0.022
0.111
-0.002
-0.061
-0.040
0.070
0.079
0.049
-0.238
-0.401
-0.303
0.036
0.676
0.381
0.115
-0.268
-0.559
-0.170
0.204
0.319
0.385
0.283
0.198
0.090
0.054
-0.110
0.083
0.056
0.195
0.231
0.010
-0.207
-0.276
0.130
-0.120
-0.088
-0.089
-0.872
-1.204
0.234
0.895
0.629
0.110
0.048
-0.153
-0.026
0.094
0.160
0.458
0.362
0.390
0.344
0.206
0.103
0.119
0.129
-0.091
-0.048
-0.121
-1.860
0.235
1.320
-0.199
-1.660
0.293
0.465
-0.166
-0.990
-1.787
-1.192
-0.233
0.505
1.102
1.125
0.496
0.373
0.102
0.225
0.422
0.695
0.716
0.799
0.770
0.638
0.741
0.257
0.126
0.313
-0.272
-0.361
-0.259
-0.440
-0.308
-0.347
-0.388
-0.186
0.245
0.066
-0.025
-0.028
-0.398
-0.159
0.212
0.297
0.263
0.288
-0.001
0.017
-0.132
-0.006
-0.045
0.068
0.038
0.013
0.028
0.228
0.008
0.033
0.079
0.021
0.071
0.006
0.161
0.212
0.243
0.296
0.118
0.138
0.095
0.306
0.311
0.066
0.169
0.095
0.275
0.226
0.119
0.181
0.265
0.248
0.058
-0.056
-0.026
-0.166
0.343
0.442
0.180
-0.132
-0.132
-0.188
-0.142
0.015
0.102
0.064
-0.023
-0.005
-0.122
-0.071
-0.138
-0.215
-0.233
-0.016
-0.002
0.035
-0.154
-0.192
-0.102
0.065
0.026
0.039
0.326
0.017
-0.385
-0.277
-0.137
0.217
0.142
-0.014
0.188
0.254
0.039
-0.151
-0.180
-0.090
-0.017
0.056
0.015
0.071
-0.040
0.046
0.036
0.101
0.018
-0.015
-0.081
0.123
0.039
-0.033
-0.068
-0.005
-0.104
-0.105
0.102
0.115
0.136
0.186
0.098
-0.096
-0.027
0.028
0.111
0.063
0.049
-0.022
-0.031
-0.053
0.075
0.075
0.041
0.081
0.104
0.055
-0.348
-0.258
0.344
0.547
0.121
0.046
0.042
-0.101
-0.172
-0.085
0.035
0.098
0.138
0.107
-0.041
0.001
0.055
-0.040
-0.076
-0.184
-0.120
0.003
0.103
0.087
0.021
0.010
0.009
0.011
0.094
0.055
-0.017
0.023
0.034
0.111
0.049
0.033
-0.062
0.005
-0.007
0.094
0.132
0.083
-0.088
-0.087
0.004
0.039
0.208
0.074
-0.052
-0.098
0.042
0.085
-0.039
-0.137
-0.117
0.026
0.081
-0.026
0.020
-0.020
-0.013
-0.034
0.073
0.105
0.063
-0.007
-0.100
-0.283
-0.023
0.236
0.220
-0.058
-0.174
0.008
0.023
-0.040
0.005
0.164
0.050
-0.140
-0.010
0.012
-0.061
-0.145
0.493
0.114
0.057
0.076
-0.135
-0.106
-0.001
0.132
0.135
0.016
0.050
0.011
-0.002
0.048
0.107
0.062
-0.032
-0.123
0.034
0.061
0.051
0.072
0.092
0.120
0.107
0.027
0.091
0.009
0.115
-0.045
0.056
0.038
0.065
0.027
-0.058
0.304
0.072
0.112
-0.164
-0.179
-0.036
-0.073
0.141
0.310
0.335
0.169
0.038
-0.084
-0.035
0.013
0.046
0.071
0.228
-0.061
0.021
0.005
0.145
0.152
-0.079
-0.011
-0.106
0.057
-0.086
0.021
-0.102
-0.018
0.017
0.034
0.080
0.102
0.015
-0.210
-0.261
0.237
0.414
0.202
-0.060
-0.097
-0.069
-0.141
-0.037
0.020
0.058
-0.002
0.037
0.069
0.037
-0.040
-0.425
-0.222
0.092
0.266
0.082
-0.091
0.021
-0.021
0.028
0.006
0.044
0.190
0.335
-0.227
-0.143
0.190
0.236
0.260
0.170
0.037
-0.184
-0.246
0.070
-0.062
0.043
0.143
-0.062
-0.035
0.082
0.115
0.034
-0.011
0.054
0.066
-0.033
-0.090
0.072
0.110
-0.049
0.151
0.073
-0.004
-0.121
0.041
-0.015
-0.034
0.095
-0.039
0.041
0.052
-0.104
-0.049
0.055
0.044
0.097
0.045
0.041
0.002
0.068
-0.074
0.024
0.121
-0.087
-0.246
-2.972
-3.987
1.216
3.728
3.824
1.303
-0.943
-2.114
-2.014
-0.994
0.125
1.127
1.915
2.154
2.073
1.684
1.151
0.728
0.047
-0.286
-0.679
-0.965
-1.126
-2.667
-4.060
-4.359
-3.611
1.857
4.021
4.011
1.629
-0.696
-1.731
-1.621
-0.755
0.250
1.543
2.420
3.019
3.186
2.967
2.227
1.659
1.037
0.356
-0.261
-0.928
-0.851
-1.009
-0.980
-0.990
-0.607
-0.585
-0.332
-0.165
0.129
0.492
0.512
0.394
0.389
0.240
0.224
0.126
0.311
0.264
0.303
0.318
0.261
0.299
0.208
0.308
0.160
0.247
0.289
0.274
0.400
0.154
0.052
0.173
0.380
0.282
0.628
0.481
0.228
0.569
0.454
0.211
0.090
0.239
0.443
0.257
0.387
0.285
0.202
0.162
0.224
0.268
0.078
0.140
0.023
0.051
-0.186
-0.014
-0.298
-0.026
-0.121
-0.717
-2.890
-3.331
-1.072
1.240
2.232
1.733
0.564
-0.719
-1.531
-1.535
-0.864
-0.071
0.643
1.147
1.137
0.981
0.697
0.424
0.158
-0.158
-0.343
-0.410
-0.330
-0.394
-0.410
-0.314
-0.312
-0.125
-0.208
-0.125
-0.124
-0.244
-0.238
-0.174
-0.132
0.104
0.252
0.166
-0.058
-0.064
0.003
-0.092
-0.009
0.152
0.212
0.100
0.170
0.139
0.041
-0.138
-0.319
0.421
0.486
0.015
-0.053
0.045
0.031
-0.103
0.199
0.303
0.438
0.326
0.144
0.186
0.215
0.215
0.275
0.183
0.189
-0.072
0.053
0.055
0.111
0.023
0.277
0.476
0.233
-0.016
-0.033
-0.053
0.098
-0.015
0.224
0.193
0.098
0.141
0.183
0.143
0.010
-0.063
0.283
0.012
-0.218
-0.340
0.034
0.175
0.145
-0.052
0.050
-0.135
-0.077
-0.013
-0.138
-0.047
0.179
-0.038
-0.040
0.016
0.005
-0.071
-0.096
-0.077
-0.002
-0.164
-0.150
-0.145
0.002
0.058
-0.166
-0.149
-0.010
-0.331
0.141
0.394
0.112
-0.140
-0.107
-0.084
-0.169
-0.020
0.003
0.193
-0.004
-0.058
0.023
0.051
-0.061
0.032
-0.062
-0.088
-0.183
0.003
0.011
-0.053
0.091
0.094
-0.162
-0.079
0.014
0.021
0.117
0.042
-0.077
0.090
0.125
0.043
-0.007
0.066
0.006
-0.039
0.043
0.083
0.049
-0.007
0.077
0.026
0.151
0.021
0.078
0.039
0.053
0.008
0.055
-0.016
0.064
0.127
-0.123
0.037
0.102
0.145
0.071
0.035
0.027
-0.054
0.145
0.010
0.031
0.126
0.033
0.163
-0.025
-0.034
0.160
0.010
-0.033
0.007
0.011
0.199
0.065
-0.077
-0.054
0.069
-0.011
0.034
0.002
-0.276
-0.281
0.315
0.168
-0.117
0.045
0.179
0.060
-0.094
-0.165
-0.001
-0.009
-0.063
-0.066
0.034
0.194
0.002
-0.281
0.009
0.245
-0.006
-0.532
-0.183
0.065
-0.785
-1.132
-3.252
-3.919
-1.449
1.518
3.691
3.833
1.810
-0.506
-1.671
-1.538
-0.593
0.476
1.288
2.068
2.244
2.205
1.974
1.577
0.755
0.111
-0.212
-0.758
-0.970
-1.076
-0.999
-0.933
-0.759
-0.491
-0.467
-0.155
-0.045
-0.083
0.153
0.103
0.242
0.064
0.143
0.118
0.115
0.096
-0.011
0.028
0.060
0.169
0.011
0.064
0.724
0.473
0.278
0.384
0.122
-0.113
-0.873
-1.135
3.055
4.051
2.491
0.622
-0.733
-1.117
-0.927
-0.601
0.046
0.615
0.952
0.929
0.979
0.776
0.667
0.452
0.166
0.031
-0.186
-0.319
-0.358
-0.448
-0.318
-1.462
-1.137
2.302
2.579
1.310
0.533
-1.191
-1.178
-0.260
0.371
0.439
0.442
0.404
0.730
0.826
0.750
0.782
0.620
0.429
0.140
-0.002
-0.058
-0.096
-0.135
-0.411
-0.342
-0.331
-0.330
-0.090
0.111
0.023
0.137
0.261
0.290
0.377
0.188
0.109
-0.058
0.080
0.219
0.305
0.342
0.637
0.344
-0.079
-0.050
-0.020
0.275
0.798
0.591
0.253
0.052
0.033
0.171
0.099
0.266
0.245
0.098
0.236
0.004
-0.014
0.043
-0.076
-0.068
-0.006
-0.002
-0.073
0.016
0.013
-0.076
-0.179
-0.081
0.076
0.098
0.019
-0.154
-0.051
-0.067
-0.107
-0.011
-0.133
-0.128
-0.078
0.011
-0.127
-0.105
-0.056
0.068
-0.051
-0.088
-0.104
-0.087
-0.062
-0.099
-0.064
-0.028
-0.010
-0.096
-0.012
0.073
-0.164
0.000
0.026
-0.109
0.044
0.058
0.104
0.079
0.076
-0.063
-0.006
0.146
0.151
0.029
0.056
-0.052
0.008
0.084
-0.037
-0.021
-0.100
0.002
0.471
0.170
0.158
0.058
-0.214
-0.029
-0.141
0.023
0.173
0.061
0.101
0.176
0.154
-0.057
-0.001
-0.115
0.030
-0.069
-0.101
0.132
-0.027
-0.048
0.033
0.095
0.083
0.054
-0.046
-0.060
-0.045
0.009
0.026
-0.155
-0.050
-0.025
0.092
0.063
-0.012
-0.008
-0.134
-0.045
-0.002
0.138
0.096
0.240
0.009
0.094
0.008
0.183
0.058
0.042
0.066
0.112
0.067
0.173
0.011
0.000
0.174
0.019
-0.300
-0.185
0.009
0.254
0.110
-0.031
-0.036
-0.106
0.156
0.005
-0.023
0.003
0.028
-0.033
0.105
0.104
-0.018
-0.028
0.064
0.076
0.119
-0.017
-0.057
-0.041
-0.203
0.123
0.437
0.095
0.149
0.013
-0.014
-0.285
-0.279
0.035
-0.043
0.121
0.307
0.382
0.004
-0.194
-0.288
-0.136
-0.000
-0.101
-0.014
0.047
0.077
0.115
0.068
-0.065
0.129
0.054
0.075
0.139
0.092
-0.165
0.003
0.003
0.136
-0.067
0.001
0.085
0.087
0.100
0.223
-0.023
0.009
0.091
0.095
0.030
0.003
-0.007
0.012
0.202
-0.022
-0.027
-0.003
0.182
-0.015
0.160
0.045
0.041
0.006
-0.100
-0.064
-0.018
0.088
-0.079
-0.030
-0.176
-0.353
0.067
0.024
-0.078
0.170
-0.050
-0.247
-0.342
-0.344
-0.289
0.139
0.400
0.421
-0.167
0.089
0.258
0.084
-0.027
0.155
0.560
0.285
0.178
0.123
0.136
-0.060
-0.139
0.060
-0.022
-2.858
-4.039
-0.837
3.087
4.206
3.122
-0.809
-3.339
-3.895
-2.678
-0.583
1.253
2.630
3.788
4.154
3.971
3.182
2.153
1.165
-0.009
-0.846
-1.325
-1.585
-2.555
-2.733
-1.793
-1.531
-1.277
-0.502
-0.236
-0.073
0.301
0.126
0.539
0.861
0.601
-0.299
0.613
0.947
1.085
0.925
0.720
0.663
0.676
0.584
0.561
0.406
0.256
0.303
0.062
-0.020
0.047
0.057
-0.006
0.178
0.187
0.125
0.173
0.191
0.235
0.146
0.282
0.193
0.080
0.159
0.089
0.113
0.056
0.072
0.102
0.019
-0.187
0.406
0.261
0.079
-0.077
-0.047
-0.066
-0.188
0.061
0.016
0.057
0.003
-0.033
-0.062
0.045
-0.072
-0.094
0.056
-0.204
-0.101
-0.212
-1.068
-3.117
-3.624
-2.053
-0.108
0.811
1.264
1.055
0.291
-0.048
0.119
-0.043
0.344
0.525
0.942
1.324
1.638
1.623
1.654
1.357
1.021
0.309
0.006
-0.323
-0.623
-0.705
-0.965
-1.149
-0.969
-0.676
-0.585
-0.522
-0.329
-0.308
-0.206
-0.215
-0.155
0.026
0.002
-0.090
-0.057
-0.109
-0.036
0.238
0.176
0.192
0.084
0.104
-0.007
0.212
0.108
0.277
0.209
0.504
0.377
0.264
-0.072
-0.230
0.455
0.430
0.259
0.517
0.693
0.068
-0.202
0.032
0.285
0.390
0.409
0.275
0.198
0.234
0.168
0.240
0.127
-0.015
0.053
0.137
0.056
0.003
0.084
0.037
0.082
-0.194
-0.042
-0.012
0.067
-0.009
0.064
0.072
-0.066
-0.072
-0.118
-0.021
0.032
0.002
-0.167
0.047
-0.085
-0.264
-0.668
-1.026
-1.220
-1.115
-0.466
0.931
1.336
0.744
-0.135
-0.459
-0.534
-0.288
0.059
0.348
0.449
0.686
0.513
0.466
0.352
0.188
0.023
0.011
-0.251
-0.219
-0.353
-0.369
-0.315
-0.156
-0.145
0.001
-0.090
-0.179
0.024
-0.024
-0.186
-0.218
0.136
0.342
0.195
0.111
-0.068
-0.240
-0.124
-0.233
0.053
0.015
0.031
0.096
0.175
0.078
0.000
-0.075
0.340
0.134
-0.081
0.010
0.153
0.116
0.193
0.126
0.173
0.091
0.117
0.106
0.256
-0.013
-0.029
-0.027
-0.007
0.028
0.038
0.013
0.194
-0.034
0.057
-0.019
0.068
0.118
0.017
0.104
0.215
0.111
-0.041
0.063
0.022
0.069
0.097
0.085
0.101
0.018
0.080
-0.022
-0.133
0.075
-0.021
0.069
-0.020
-0.121
-0.074
0.195
0.072
0.009
0.004
-0.078
-0.307
-0.067
0.087
-0.018
0.012
-0.022
-0.204
-0.260
-0.261
0.126
0.127
0.240
0.073
-0.196
-0.113
0.028
-0.020
-0.092
-0.070
-0.199
-0.031
-0.096
-0.089
0.186
0.321
-0.159
-0.211
-0.264
-0.025
0.172
0.127
0.109
0.036
0.062
0.180
0.059
0.137
0.039
0.104
0.057
-0.105
0.072
0.058
0.204
0.033
-0.033
-0.077
-0.028
0.005
0.104
-0.128
0.045
0.047
0.090
0.092
0.008
0.012
0.028
-0.147
0.111
0.043
0.069
0.086
-0.117
0.092
0.025
-0.006
0.187
0.004
0.028
-0.025
0.037
0.100
0.020
-0.023
0.073
0.116
0.046
0.060
0.093
-0.177
-0.247
0.092
0.319
0.414
0.053
0.055
-0.086
-0.083
-0.047
0.092
0.140
0.150
0.052
-0.077
-0.008
0.041
-0.187
0.017
-0.182
-0.176
0.063
0.042
0.057
-0.098
-0.079
0.011
0.025
-0.014
0.088
0.139
0.047
-0.233
-0.090
0.152
0.134
-0.166
-0.053
0.179
0.179
-0.031
-0.097
-0.114
0.023
-0.078
0.155
0.118
-0.105
0.015
0.073
-0.072
-0.020
-0.116
-0.017
0.020
-0.001
-0.019
-0.059
-0.097
0.006
0.011
0.088
-0.027
-0.018
0.130
0.061
-0.064
-0.184
0.159
0.107
0.087
0.177
-0.017
0.134
0.039
-0.148
-0.010
0.149
0.097
0.110
-0.118
-0.001
0.083
0.044
0.078
0.144
0.117
-0.041
-0.030
0.563
0.329
0.086
0.084
-0.347
-0.090
0.161
0.004
-0.144
-0.080
-0.567
-0.920
-0.376
0.260
0.713
0.527
0.059
-0.124
-2.364
-3.697
-2.085
2.767
4.201
3.720
0.827
-1.326
-2.375
-1.933
-0.622
0.691
1.530
2.011
2.353
2.159
1.719
1.190
0.769
0.201
-0.220
-0.619
-1.063
-0.964
-1.088
-1.262
-3.179
-2.323
0.103
-2.759
-2.939
-2.010
-0.013
2.850
3.659
2.381
0.308
-0.577
-0.650
-0.198
0.428
1.741
2.454
2.625
2.406
2.020
1.519
0.798
0.195
-0.206
-0.616
-0.812
-0.939
-0.895
-0.926
-0.698
-0.629
-0.304
-0.223
0.029
0.153
0.123
0.184
0.120
0.223
0.052
0.066
0.188
0.092
0.005
0.502
0.483
0.157
0.060
0.208
0.122
0.095
0.169
0.259
0.226
0.193
0.223
0.074
0.126
0.078
0.019
0.074
0.151
-0.075
0.131
0.106
0.089
0.157
0.156
0.100
0.087
0.142
0.171
-0.135
-0.020
0.001
0.121
0.025
0.119
0.017
-0.052
0.060
-0.076
-0.052
0.071
0.090
-0.010
-0.271
-0.359
0.016
0.178
-0.141
-0.075
-0.229
-0.153
-0.183
-0.037
-0.034
-0.138
-0.097
-0.010
0.067
-0.119
0.047
0.055
-0.001
-0.038
-0.150
-0.019
0.213
-0.033
-0.078
-0.074
0.036
0.161
-0.171
-0.069
-0.031
-0.070
-0.098
0.021
-0.044
0.023
0.086
0.076
-0.016
-0.083
-0.275
0.122
0.450
0.065
0.255
0.113
0.009
-0.200
0.059
-0.034
-0.002
0.144
0.148
0.083
-0.023
0.156
0.054
-0.007
-0.002
0.055
0.037
-0.064
0.070
-0.023
0.117
0.074
0.052
0.107
0.050
-0.009
0.065
0.060
0.020
0.068
-0.016
0.095
-0.044
0.094
0.100
0.013
-0.009
0.020
-0.048
0.024
-0.024
-0.020
-0.015
0.180
0.127
0.084
-0.122
-0.138
-0.003
-0.051
-0.047
-0.076
0.060
0.047
0.099
-0.054
-0.016
0.036
0.005
0.007
0.002
-0.038
-0.021
0.000
-0.060
0.069
0.214
-0.052
0.105
-0.052
-0.021
-0.030
-0.028
0.016
0.017
-0.029
-0.097
-0.178
0.003
0.365
0.125
0.002
0.079
-0.128
-0.220
-0.157
0.043
0.078
0.108
0.119
0.099
-0.059
0.034
0.226
-0.211
-0.191
-0.090
0.276
-0.108
-0.096
-0.015
0.105
-0.073
0.127
0.342
0.062
-0.117
-0.012
-0.051
-0.094
0.009
-0.014
0.106
0.021
0.105
0.012
0.038
0.020
-0.008
0.077
-0.049
0.038
0.038
-0.045
-0.175
0.044
-0.002
-0.066
-0.167
-0.361
-0.758
-1.124
-1.840
-3.037
-1.983
-1.796
0.728
3.430
2.916
1.245
-0.345
-0.917
-0.590
-0.054
0.837
1.485
1.779
1.828
1.531
1.039
0.448
0.146
-0.371
-0.117
-0.350
-0.715
-0.934
-1.066
-1.011
-0.812
-0.612
-0.456
-0.040
-2.126
-3.886
0.373
3.336
4.032
1.879
-0.673
-2.149
-2.244
-1.349
-0.205
0.795
1.608
2.049
2.194
1.895
1.535
0.606
-0.319
-0.713
-0.899
-0.549
-0.819
-0.598
-0.932
-0.850
-0.267
-0.226
-0.056
0.161
0.506
0.630
0.727
0.675
0.769
0.743
0.919
0.886
0.466
0.404
0.324
0.444
0.241
0.060
-0.105
0.151
0.133
0.074
-0.153
0.145
0.243
0.109
-0.154
-0.193
0.327
0.532
0.474
0.163
0.161
0.219
0.090
0.164
0.135
0.018
0.143
0.225
0.071
-0.259
0.006
-0.056
-0.031
-1.168
-2.180
-1.519
-0.481
0.501
1.792
1.224
0.068
-0.329
-0.325
-0.137
-0.017
0.287
0.412
0.670
0.914
0.772
0.717
0.002
-3.123
-3.326
0.300
2.625
2.322
0.643
-0.670
-1.461
-1.217
-0.861
-0.429
-0.845
0.025
1.084
1.430
1.618
1.370
0.680
-0.081
-0.748
-0.797
-0.696
-0.456
-0.180
-0.165
0.064
-0.016
0.200
0.334
-0.048
-0.103
0.074
0.237
0.173
0.138
0.101
0.141
0.170
0.056
0.120
0.002
0.020
0.029
0.290
0.342
0.019
-0.162
0.056
0.054
0.126
0.111
0.116
0.160
0.129
0.096
0.239
0.138
0.090
0.214
0.133
0.085
0.224
0.201
0.106
0.162
0.161
0.150
-0.090
-0.034
0.350
0.495
0.322
0.227
-0.129
-0.249
-0.150
0.036
0.062
0.149
0.380
0.356
-0.047
0.038
-0.053
-0.216
-0.040
-0.032
-0.009
0.083
0.077
-0.096
0.078
0.107
-0.008
-0.320
-0.502
-0.607
-2.469
-3.729
-0.062
2.845
3.116
1.770
0.453
-0.520
-1.124
-1.001
-0.374
0.351
1.020
1.515
1.580
1.438
1.095
0.941
0.429
0.076
-0.388
-0.444
-0.613
-1.002
-1.071
-0.909
-0.389
-0.279
-0.258
-0.130
-0.045
-0.147
-0.055
0.143
0.092
0.150
0.197
0.071
0.196
0.149
0.173
0.135
0.125
0.224
0.309
0.210
0.169
0.305
0.043
-0.015
0.359
0.687
0.430
0.340
0.201
0.255
0.005
0.189
0.244
0.436
0.315
0.229
0.181
0.111
0.077
0.260
0.131
0.110
0.136
-0.052
0.149
-0.047
0.073
0.018
0.067
0.087
-0.108
-0.155
-0.062
-0.033
-0.020
0.068
0.111
-0.196
-0.111
-0.052
-0.102
-0.129
-0.088
-0.143
-0.038
-0.124
-0.180
-0.057
-0.007
-0.069
-0.137
-0.008
-0.221
-0.077
0.012
0.010
0.013
-0.194
-0.203
-0.060
-0.010
-0.014
0.004
0.082
-0.045
0.058
-0.082
-0.115
-0.066
-0.024
0.067
0.080
-0.090
-0.051
-0.021
0.049
-0.027
-0.063
-0.245
0.240
0.418
0.115
0.103
-0.132
-0.189
-0.019
0.070
0.128
-0.005
0.113
0.002
0.047
-0.015
0.035
-0.073
-0.119
0.185
-0.083
0.049
0.078
0.070
-0.116
-0.154
-0.217
0.046
0.223
0.325
0.363
0.163
-0.121
-0.154
-0.109
0.010
0.031
0.156
-0.067
0.045
0.055
0.142
0.067
0.106
-0.115
0.036
-0.058
0.080
-0.102
-0.043
0.075
0.081
0.044
0.142
0.063
0.051
0.029
0.093
0.018
0.029
0.122
-0.124
0.091
0.034
-0.020
-0.106
-0.099
0.074
0.128
0.046
-0.069
-0.002
-0.034
0.076
-0.141
-0.029
0.059
0.022
0.127
0.148
-0.115
-0.162
-0.191
-0.136
0.323
0.112
-0.020
0.108
-0.124
-0.076
-0.117
0.008
-0.062
-0.021
0.051
0.171
-0.008
-0.034
0.037
0.077
-0.152
-0.191
-0.034
0.127
-0.067
0.208
-0.119
-0.096
-0.033
0.032
0.048
-0.010
-0.060
0.040
0.048
0.098
0.098
0.034
0.040
0.084
0.035
0.086
-0.011
0.041
0.117
-0.006
0.041
-0.077
0.155
0.117
0.160
0.112
0.036
-0.008
0.051
0.143
0.197
0.108
0.116
0.147
0.028
0.017
-0.005
0.071
0.043
0.015
-0.038
-0.144
-0.344
-0.196
0.270
0.293
0.364
-0.165
-0.189
-0.278
-0.879
-0.416
0.477
0.559
0.185
0.409
0.345
0.170
0.016
-0.312
-0.149
-0.082
0.030
0.179
-0.024
0.055
0.289
0.161
0.009
-0.050
-0.197
-0.247
-0.055
0.002
-0.060
0.104
-0.173
-0.099
0.043
-0.023
0.034
0.025
-0.014
0.017
-0.224
-0.067
-0.094
-0.090
-0.112
-0.062
0.057
0.198
-0.019
0.096
0.079
-0.007
0.016
0.011
0.090
0.232
0.009
0.038
0.109
0.056
0.039
0.182
0.210
0.100
-0.266
-0.359
0.090
0.053
-0.047
0.181
0.363
0.214
-0.211
-0.153
-0.186
-0.026
0.053
0.113
-0.022
0.122
0.126
0.019
-0.044
-0.005
-0.080
-0.258
-0.066
0.330
0.106
-0.002
-0.018
-0.019
-0.147
-0.015
-0.018
0.145
0.146
0.068
-0.149
0.050
0.241
0.078
0.022
0.023
-0.020
-0.011
0.172
0.083
-0.025
-0.028
0.013
0.031
0.004
0.010
0.010
0.188
0.122
0.011
-0.029
-0.027
-0.046
0.009
0.106
-0.196
-0.253
-0.110
0.248
0.244
0.288
0.118
-0.157
0.021
0.050
0.105
-0.081
0.113
0.173
0.032
0.123
0.051
0.122
0.091
-0.009
-0.074
0.047
0.009
0.053
-0.086
-0.041
-0.041
-0.021
-0.053
0.096
-0.194
-0.014
0.063
0.105
-0.008
-0.081
-0.117
-0.188
-0.107
-0.076
0.258
0.222
-0.170
-0.234
0.011
-0.149
-0.162
-0.161
0.027
0.010
-0.035
-0.023
-0.117
-0.218
-0.048
-0.060
0.120
0.230
0.178
0.301
-0.095
0.048
0.033
-0.017
0.095
0.263
0.198
0.118
0.296
0.202
0.206
-0.032
-0.003
-0.082
-0.131
-0.165
-0.170
-0.070
-0.098
-0.080
-0.053
-0.008
0.090
-0.034
0.218
0.015
-0.030
-0.205
-0.116
-0.026
-0.094
0.014
0.157
0.132
0.040
-0.122
-0.210
0.096
-0.049
0.224
0.271
0.105
-0.037
-0.038
0.120
0.268
0.143
0.055
0.127
0.305
0.206
-0.088
0.040
0.178
0.022
-0.193
0.038
0.658
0.298
-0.366
-0.354
0.010
0.118
0.104
0.456
0.448
0.029
-0.013
0.094
0.017
0.145
0.025
0.053
0.224
0.208
-0.026
-0.060
0.008
-0.052
0.084
0.076
0.059
0.016
-0.258
-0.126
-0.179
-0.013
0.138
0.153
0.025
0.053
0.015
-0.045
0.014
0.034
-0.035
0.116
-0.008
-0.013
-0.063
-0.009
0.040
-0.030
-0.011
0.020
-0.043
0.057
0.051
0.018
-0.069
-0.156
0.022
0.012
0.089
0.039
0.199
0.059
-0.021
-0.009
0.013
0.097
-0.086
-1.418
-1.127
0.781
1.173
0.585
0.029
-0.111
-0.138
-2.577
-1.879
2.678
3.747
2.280
0.597
-0.696
-0.981
-0.963
-0.624
0.377
0.906
0.969
0.931
0.766
0.509
0.422
0.131
-0.122
-0.178
-0.106
-0.296
-0.270
-0.346
-0.383
-0.279
-0.297
-0.168
-0.095
0.136
0.166
0.098
0.306
0.180
0.345
0.253
0.176
0.106
-2.904
-2.367
1.804
3.352
3.409
1.699
0.014
-0.971
-1.076
-0.546
0.039
0.722
1.342
1.576
1.600
1.571
1.330
0.875
-1.244
-1.319
0.806
0.942
0.437
-0.446
-1.046
-1.030
-0.626
-0.063
0.050
0.140
0.224
0.333
0.393
0.485
0.324
0.104
0.172
0.104
-0.091
-0.093
-0.158
-0.419
-0.675
-0.283
0.033
0.637
0.360
0.232
0.169
0.076
0.212
-1.363
-2.967
-1.070
1.132
1.835
0.517
0.325
0.404
0.120
-0.263
-0.148
-0.093
0.154
0.538
0.643
0.755
0.755
0.596
0.585
0.344
0.354
0.173
0.082
-0.004
-0.268
-0.575
-1.335
-0.692
-0.108
0.058
0.345
0.355
0.063
-0.288
-0.490
-0.093
-0.316
-0.212
0.052
0.218
0.132
0.082
-0.074
-0.008
0.095
0.108
-0.152
-0.181
-0.063
-0.219
-0.122
0.098
-0.021
0.051
0.108
0.031
-0.056
0.042
0.094
0.230
-0.414
-0.257
-0.508
0.484
0.717
0.637
0.220
0.087
-0.100
0.126
0.109
-2.463
-2.270
0.394
2.666
2.476
1.181
-0.014
-0.489
-0.648
-0.384
0.079
0.379
0.665
0.559
0.866
0.681
0.388
0.170
0.032
-0.073
-0.231
-0.316
-0.377
-0.321
-0.404
-0.320
-0.261
-0.101
0.046
-0.308
-0.240
-0.012
0.035
-0.123
-0.031
-0.054
-0.103
-0.109
-0.641
-3.354
-1.008
2.014
2.443
1.374
0.566
-0.045
-0.623
-0.682
-0.516
-0.028
0.559
0.926
0.969
1.152
1.178
0.780
0.479
0.108
-0.035
-0.285
-0.317
-1.187
-0.340
-0.034
-0.057
0.003
-0.266
-0.110
-0.009
0.090
0.142
0.210
0.135
0.267
0.175
0.135
0.215
0.190
0.093
0.047
-0.006
-0.091
-0.156
0.425
0.438
0.086
0.155
-0.024
-0.011
0.007
0.143
0.094
0.119
0.263
0.219
0.094
0.178
-0.034
-0.096
-0.131
-0.018
0.046
-0.101
0.209
0.482
0.126
-0.059
-0.115
0.067
-0.055
0.053
0.138
0.046
0.034
0.079
0.002
0.005
0.052
0.006
-0.067
-0.052
0.029
-0.035
-0.101
-0.059
-0.135
-0.164
-0.019
0.112
0.028
-0.007
0.057
0.040
0.097
-0.125
-0.062
-0.052
-0.051
0.061
-0.078
-0.071
-0.064
0.041
-0.079
-0.081
0.062
0.110
-0.086
-0.026
-0.074
-0.034
-0.008
-0.046
0.083
-0.042
0.086
-0.100
0.176
0.049
0.068
-0.074
-0.025
0.001
-0.163
-0.221
0.314
0.261
0.142
0.038
-0.047
-0.183
-0.223
-0.004
0.119
0.082
0.170
0.240
-0.132
-0.467
-0.094
0.328
0.205
0.105
-0.017
-0.066
-0.079
-0.002
0.001
-0.052
0.065
0.056
0.058
0.071
0.264
0.173
0.114
-0.128
-0.105
0.040
-0.006
0.027
0.119
0.137
0.005
-0.026
-0.073
0.127
0.077
0.032
0.152
0.078
0.044
0.134
-0.005
0.008
-0.016
-0.108
0.080
0.127
-0.000
-0.063
0.081
0.061
0.124
-0.122
-0.029
0.053
-0.015
0.126
0.088
-0.068
-0.047
-0.027
-0.102
-0.007
0.075
-0.119
0.043
-0.012
-0.081
0.006
-0.028
-0.072
0.055
0.064
-0.110
-0.302
-0.163
0.467
0.230
0.064
0.010
-0.076
-0.028
-0.153
0.038
-0.010
-0.223
0.043
0.038
0.101
0.173
0.209
-0.030
-0.057
-0.003
0.080
-0.016
0.132
-0.062
0.062
0.095
0.106
0.083
0.176
0.066
-0.002
-0.033
-0.027
-0.090
-0.105
-0.017
0.056
0.074
-0.012
-0.072
0.088
0.021
0.116
0.053
-0.743
-0.472
0.074
-2.273
-3.269
2.048
3.814
2.842
0.872
-0.666
-2.509
-1.382
0.593
1.072
0.537
-0.561
-2.630
-0.583
2.848
2.292
-1.000
-1.378
-0.260
0.400
0.434
0.171
-0.020
-0.039
0.083
0.413
0.903
1.117
1.244
1.215
0.882
0.871
0.808
0.256
-0.075
-0.489
-0.490
-0.291
-0.164
-0.195
-0.430
-0.422
-0.386
-0.266
-0.025
0.174
0.054
0.143
0.010
0.037
0.240
0.088
0.154
-0.136
-0.179
-0.130
-0.178
-0.369
0.192
0.510
0.041
-0.176
0.033
0.399
0.549
0.473
0.373
0.288
0.405
0.720
0.690
0.719
0.509
0.607
0.291
0.339
0.349
0.333
0.405
0.151
-0.032
0.059
-0.131
-0.036
-0.111
-0.022
-0.116
-0.123
-0.064
0.028
-0.025
-0.023
-0.062
-0.059
-0.051
-0.219
-0.149
-0.033
-0.010
-0.061
-0.272
-0.116
-0.020
0.015
-0.261
-0.367
-0.303
-0.201
0.214
0.131
0.182
0.008
-0.028
-0.096
0.005
-0.106
-0.158
-0.217
0.531
0.404
0.134
0.046
-0.094
-0.125
-0.067
-0.043
0.077
0.052
0.047
-0.004
-0.091
0.001
0.115
-0.119
-0.038
0.073
0.022
0.039
-0.011
0.134
0.043
0.031
0.079
0.060
0.044
0.055
-0.025
0.011
0.039
0.080
-0.022
0.096
-0.029
-0.030
0.107
0.091
0.148
0.020
0.029
0.060
0.039
-0.052
0.010
0.032
0.089
0.058
0.056
-0.061
-0.108
-0.041
0.100
0.037
0.061
0.162
0.061
-0.152
0.041
0.324
0.134
-0.428
-0.186
0.075
0.080
0.198
0.180
0.023
0.060
-0.059
-0.025
-0.126
-0.093
0.139
0.068
0.043
-0.123
-0.275
0.434
0.262
0.066
0.047
-0.017
-0.145
-0.094
0.074
-0.047
0.091
0.187
0.007
-0.091
0.083
0.023
-0.060
-0.046
-0.188
0.035
0.056
-0.011
0.018
-0.005
0.042
0.053
-0.044
0.069
0.041
-0.013
-0.122
-0.043
-0.047
0.110
0.077
0.076
-0.129
-0.120
0.002
-0.061
-0.020
0.006
0.164
0.062
-0.017
-0.005
-0.096
-0.034
-0.036
0.144
0.224
0.063
-0.126
-0.058
-0.035
0.100
-0.075
-0.009
0.057
0.069
0.051
0.003
0.124
-0.027
-0.003
0.095
0.011
-0.000
0.045
0.051
0.041
0.068
-0.055
0.153
0.062
0.082
-0.054
0.187
-0.015
0.047
-0.001
0.010
0.046
-0.117
-0.171
0.255
0.424
0.077
0.011
0.008
-0.031
-0.075
-0.004
0.028
-0.005
-0.074
-0.066
-0.029
-0.148
-0.859
-0.332
-0.062
0.298
0.329
0.128
-0.146
-0.298
-0.295
-0.493
-0.376
0.119
0.305
0.569
0.533
0.034
0.028
-0.970
0.226
0.530
0.331
0.382
0.366
0.252
0.111
0.177
-0.019
-0.357
-0.083
0.114
0.411
0.414
0.267
0.034
-0.194
-0.150
-0.290
-0.297
-0.220
-0.262
-0.202
-0.536
-0.606
-3.257
-0.418
3.150
4.159
2.492
0.150
-1.477
-1.742
-1.461
-0.750
0.169
0.720
1.472
2.020
2.267
2.059
1.525
0.981
0.537
0.273
0.000
-0.483
-0.785
-1.062
-0.101
-0.119
-0.062
0.033
0.071
0.149
0.111
0.325
0.379
0.259
0.219
0.173
0.265
0.216
0.149
0.034
0.205
0.379
0.295
0.169
0.279
0.183
0.389
0.376
0.354
0.328
0.419
0.443
0.301
0.343
0.237
0.241
0.300
0.274
0.158
0.261
0.318
0.317
0.082
-0.094
0.025
-0.047
0.093
-0.060
-0.372
-0.850
-0.718
-0.589
-1.071
-1.923
-0.793
0.803
1.276
0.764
0.250
-0.285
-0.450
-0.150
0.151
0.255
0.482
0.691
0.865
0.723
0.567
0.302
0.130
-0.139
-0.372
-0.427
-0.559
-0.583
-0.522
-0.406
-0.461
-0.506
-0.244
-0.353
-0.222
-0.184
-0.221
-0.186
-0.032
-0.178
-0.104
-0.270
-0.057
-0.080
0.232
-0.104
-0.221
0.137
-0.081
0.076
0.029
0.103
0.091
0.097
0.257
0.138
0.050
0.164
0.236
0.335
0.414
0.252
0.298
0.282
0.185
0.318
0.247
0.182
0.241
0.217
0.260
0.252
0.259
-0.188
-0.058
0.198
0.118
0.281
0.072
-0.000
-0.012
0.104
0.132
0.088
0.058
0.064
0.134
0.062
0.037
0.202
-0.039
-0.017
0.045
-0.061
0.021
0.014
0.065
-0.100
0.074
0.163
0.056
0.044
0.016
-0.001
0.044
-0.101
-0.056
-0.003
-0.074
-0.032
0.162
0.002
-0.045
0.039
0.002
-0.120
-0.002
-0.185
-0.094
-0.203
0.348
0.254
0.259
-0.046
-0.227
-0.155
-0.263
-0.068
-0.067
0.000
0.103
0.011
-0.074
-0.006
0.018
-0.043
-0.068
-0.112
-0.138
-0.034
-0.040
0.030
-0.097
-0.058
-0.087
0.006
0.052
-0.025
-0.069
-0.073
-0.146
0.028
0.039
-0.102
0.061
0.042
0.036
-0.016
-0.089
-0.015
0.110
0.145
-0.098
-0.066
-0.038
0.027
-0.029
0.154
0.165
0.000
0.030
-0.121
0.085
0.036
0.057
0.123
0.105
0.154
0.047
0.062
-0.120
-0.011
0.028
0.186
0.119
0.112
0.005
0.063
-0.085
0.109
0.134
0.026
0.147
0.053
-0.224
-0.125
0.093
0.055
-0.102
0.402
0.375
0.164
0.006
-0.100
-0.035
-0.118
0.126
-0.022
0.047
0.066
0.162
0.025
0.047
-0.025
-0.093
-0.056
-0.039
-0.067
-0.126
-0.013
0.040
0.011
0.049
-0.023
-0.080
-0.038
-0.068
-0.189
0.075
0.007
-0.007
-0.049
-0.039
-0.016
-0.104
0.044
-0.006
0.143
-0.143
-0.229
0.032
-0.053
0.053
0.152
0.126
-0.081
-0.187
-0.011
0.026
0.162
0.071
-0.083
0.008
-0.014
0.100
-0.091
-0.109
-0.126
0.085
0.063
0.013
-0.022
-0.003
-0.023
-0.055
0.028
0.167
-0.015
0.022
-0.124
0.051
-0.032
0.280
0.153
0.024
0.048
0.159
0.104
-0.040
0.043
0.053
0.270
0.319
0.146
0.136
-0.238
-0.243
-0.134
0.086
0.151
0.069
0.036
-0.020
-0.032
-0.054
-0.065
-0.134
0.045
-0.006
0.042
-0.055
0.015
-0.039
-0.104
0.074
0.104
0.082
-0.009
-0.004
-0.058
0.013
0.002
0.034
-0.007
0.035
0.032
-0.035
0.030
0.036
-0.055
0.136
0.086
0.084
-0.088
-0.066
0.053
-0.055
-0.056
0.186
-0.030
-0.035
0.034
0.044
0.070
0.053
-0.006
-0.069
-0.040
-0.014
-0.029
0.078
0.068
-0.067
0.112
0.022
-0.029
-0.006
-0.023
0.095
-0.141
0.108
0.034
0.144
-0.028
-0.238
-0.335
0.142
0.216
0.064
0.052
0.065
-0.017
-0.129
-0.077
-0.156
-0.086
0.292
0.331
0.185
0.252
-0.077
-0.226
-0.053
-0.093
0.092
0.109
0.080
0.062
0.069
0.031
-0.024
-0.024
0.024
-0.121
0.043
0.100
-0.042
-0.111
-0.001
0.005
0.166
0.022
0.043
-0.043
0.102
0.039
-0.184
-0.157
-0.161
-2.737
-3.919
-1.609
-0.427
2.233
4.062
3.321
1.016
-1.574
-2.429
-1.352
-0.210
1.236
1.733
3.344
4.020
3.927
3.011
1.946
1.259
0.277
-0.443
-1.104
-1.303
-1.332
-1.390
-1.383
-1.225
-0.965
-0.657
-0.485
-0.278
-0.158
-0.040
0.088
0.233
0.250
0.194
0.160
-2.801
0.285
3.100
2.923
1.235
-0.250
-1.032
-0.764
-0.322
0.145
0.527
0.840
1.231
1.305
1.276
1.247
0.923
1.002
0.638
0.484
0.464
0.465
0.133
0.193
0.289
0.151
0.140
0.227
0.075
0.211
0.120
0.288
0.279
0.381
0.280
0.254
0.018
0.056
-0.037
-0.090
-0.079
-0.190
-0.001
0.160
-0.116
-0.125
0.004
-0.204
-0.226
-0.212
-0.222
-0.189
-0.128
-0.116
-0.018
-0.023
-0.036
0.021
-0.139
0.022
0.002
0.286
0.169
0.015
0.030
-0.082
-0.048
0.076
0.006
-0.420
-1.794
-0.910
0.392
1.118
1.011
0.472
-0.347
-0.479
-0.297
-0.258
0.115
0.188
0.330
0.354
0.382
0.304
0.053
0.079
0.044
-0.192
-0.247
-0.304
-0.195
-0.207
-0.438
-0.458
0.022
-0.009
-0.063
-0.248
-0.225
-0.234
-0.151
0.244
0.563
0.224
0.164
0.141
0.136
0.042
0.178
0.255
0.189
0.233
0.191
0.132
0.142
-0.071
-0.026
0.023
0.081
0.085
-0.102
-0.126
-0.066
-0.035
-0.081
-0.117
0.017
0.084
0.003
-0.050
0.053
-0.019
0.134
0.026
-0.022
-0.101
-0.047
0.123
0.124
0.064
0.040
-0.054
-0.010
0.013
0.090
0.096
0.103
0.070
0.117
0.025
0.153
0.029
0.040
-0.032
0.127
0.018
0.243
0.052
-0.101
0.083
0.108
-0.061
0.014
-0.014
0.030
-0.010
0.088
0.107
-0.035
-0.017
-0.093
-0.012
-0.002
-0.157
0.005
-0.022
0.148
-0.009
-0.130
-0.027
0.001
-0.001
-0.060
0.018
-0.111
0.040
0.046
-0.107
-0.076
-0.047
-0.015
0.006
-0.050
-0.028
0.154
-0.025
-0.100
-0.025
-0.155
0.064
0.138
0.006
0.018
0.078
-0.071
0.025
0.085
0.103
0.014
0.034
0.010
0.154
0.074
0.061
0.062
0.101
0.039
0.065
0.013
0.029
-0.030
0.124
0.040
0.123
-0.026
0.133
0.159
0.097
0.046
-0.059
0.086
0.130
0.021
0.027
0.028
0.139
0.175
0.106
0.101
0.186
0.195
0.066
0.163
-0.132
0.103
-0.021
0.029
-0.086
-0.030
-0.133
-0.124
-0.038
-0.158
-0.170
-0.126
0.092
0.017
-0.067
-0.046
0.048
0.045
0.161
0.047
0.020
0.135
0.252
0.161
0.239
-0.002
0.037
-0.014
-0.056
0.044
-0.066
-0.041
-0.028
0.130
0.007
-0.129
-0.154
0.038
0.002
-0.031
0.148
-0.047
-0.017
0.085
-0.103
-0.133
0.022
0.057
0.044
-0.034
-0.056
0.070
0.081
0.385
0.073
-0.158
0.063
0.040
0.099
0.032
-0.093
0.065
0.165
-2.270
-0.821
1.329
1.459
0.775
0.160
-0.285
-0.457
-0.211
-0.145
0.120
0.294
0.394
0.503
0.340
0.206
0.102
0.117
0.094
-0.138
-0.189
-0.196
-0.036
-0.156
-0.175
-0.243
-0.129
-0.097
0.108
0.085
-0.021
0.027
-0.116
0.032
0.156
0.028
0.026
0.113
0.051
0.041
-0.010
0.026
0.046
0.024
-0.018
0.036
-0.006
0.162
0.119
0.163
0.044
0.094
-0.022
0.065
0.148
0.105
-0.031
0.013
0.133
0.034
0.243
0.102
-0.077
0.081
-0.084
-0.150
0.062
0.146
0.116
0.008
0.003
0.012
-0.086
-0.422
-3.263
-2.092
1.598
2.986
2.406
0.878
-0.259
-1.317
-1.792
-1.075
0.001
0.756
1.179
1.315
1.157
1.095
0.882
0.553
0.399
0.062
-0.036
-0.291
-0.120
-0.301
-0.503
-0.459
-0.336
-0.282
-0.253
-0.149
0.077
0.021
-0.102
-0.054
-0.059
-0.036
0.073
0.142
0.105
0.278
0.212
0.036
0.231
0.131
0.309
0.143
0.215
0.092
-0.054
0.079
0.426
0.536
0.423
0.231
0.125
-0.031
-0.014
0.162
0.175
0.227
0.172
0.236
0.293
0.141
0.263
0.111
0.173
0.067
0.165
0.045
-0.004
-0.054
0.140
-0.040
0.056
0.057
0.030
-0.005
-0.049
-0.012
-0.004
0.059
-0.033
-0.007
-0.020
0.104
0.059
-0.082
-0.030
-0.048
-0.027
-0.041
0.082
-0.015
-0.147
0.146
-0.142
0.014
-0.098
-0.005
-0.077
0.004
-0.303
-2.213
-2.765
-1.545
0.050
1.019
1.270
0.858
0.158
-0.241
-0.557
-0.471
-0.063
0.278
0.717
0.893
1.339
1.208
0.758
0.487
0.320
0.056
-0.119
-0.144
-0.406
-0.485
-0.473
-0.421
-0.375
-0.141
-0.038
-0.221
-0.564
-0.299
0.237
0.328
0.247
-0.019
-0.115
-0.070
0.006
-0.114
0.040
0.195
0.053
-0.002
-0.027
0.006
-0.049
0.080
0.109
0.001
-0.041
-0.015
0.126
0.032
-0.106
0.222
0.292
0.178
0.226
0.069
0.133
0.113
0.262
0.191
0.235
0.319
0.056
0.038
0.120
0.209
0.232
0.121
0.137
0.195
0.019
0.177
-0.010
0.094
0.112
0.177
0.244
-0.037
-0.004
0.095
-0.085
0.042
0.199
0.175
-0.002
0.005
-0.039
0.102
-0.152
0.029
-0.193
0.076
0.073
0.096
-0.056
-0.184
0.087
-0.163
-0.147
-0.028
-0.025
-0.168
-0.137
-0.001
0.078
-0.209
-0.040
0.003
-0.155
-0.072
-0.032
0.044
0.020
-0.030
0.041
-0.080
-0.088
0.012
0.089
-0.077
-0.004
-0.026
-0.014
-0.008
0.094
-0.043
0.008
0.104
-0.027
-0.018
-0.002
0.013
-0.090
-0.279
-0.140
0.424
0.424
-0.047
-0.192
-0.081
0.047
0.101
0.076
0.160
0.016
0.126
-0.108
-0.041
-0.150
0.119
-0.033
0.121
-0.021
-0.004
0.184
-0.024
-0.113
0.079
0.031
0.084
0.153
-0.108
-0.035
0.061
0.088
0.079
0.139
-0.046
-0.077
0.010
0.185
0.083
-0.001
0.005
0.007
0.007
0.003
0.024
0.045
0.061
0.056
0.035
0.086
-0.026
0.072
0.028
-0.034
-0.063
0.042
0.050
0.024
-0.011
0.058
-0.113
-0.053
0.052
-0.050
-0.002
0.048
0.094
-0.034
0.014
0.183
-0.047
-0.048
0.074
0.084
0.033
-0.136
-0.017
0.060
0.089
-0.074
-0.039
0.015
-0.034
-0.026
0.042
0.005
0.061
0.071
-0.013
-0.073
0.081
0.085
-0.081
-0.068
-0.104
-0.030
0.046
-0.083
0.028
0.075
-0.038
-0.217
-0.151
0.505
0.254
0.008
-0.130
-0.076
-0.029
0.080
0.098
-0.062
0.090
0.046
0.128
-0.037
0.011
0.055
-0.091
-0.134
-0.032
0.041
0.081
0.009
-0.033
-0.011
0.125
0.101
0.031
-0.054
0.001
-0.707
-3.302
-0.707
2.212
1.985
-0.269
-0.034
0.314
-0.152
-0.699
-0.736
-0.501
0.232
0.899
0.580
-0.759
0.277
1.671
1.612
0.979
0.203
-0.368
-0.403
-0.406
-0.184
0.029
0.067
0.311
0.345
0.343
0.035
-0.194
0.022
-0.140
-0.404
-0.373
-0.603
-1.369
-3.474
-3.670
-0.958
0.895
0.621
0.255
0.319
0.220
-0.154
-0.154
-0.092
0.285
0.978
1.161
1.608
1.908
1.865
1.857
1.429
1.103
0.590
0.277
0.017
-0.285
-0.493
-0.568
-0.586
-0.581
-0.506
-0.304
-0.562
-0.273
-0.132
-0.106
-0.138
-0.010
-0.025
0.044
-0.144
-0.021
-0.039
-0.116
0.138
0.027
-0.020
-0.033
0.084
0.173
0.087
0.092
0.250
0.083
0.117
0.277
0.293
0.179
0.159
0.232
0.373
0.242
0.134
0.217
0.245
0.180
0.261
0.259
0.256
0.165
0.201
0.194
0.194
0.184
0.202
0.091
0.036
0.119
0.155
0.036
-0.020
0.104
0.059
0.186
0.014
-0.053
-0.079
0.020
0.045
-0.030
-0.108
-0.079
-0.002
0.051
-0.045
-0.088
-0.135
-0.017
-0.023
-0.073
-0.109
-0.059
0.001
0.033
-0.129
-0.088
-0.019
-0.083
-0.073
-0.099
-0.083
-0.007
-0.045
-0.086
0.098
-0.070
-0.245
-0.055
0.130
-0.028
0.003
0.110
0.007
-0.103
-0.011
-0.076
0.150
-0.005
-0.053
0.141
0.108
0.116
0.008
0.034
0.047
0.001
0.075
0.140
0.066
0.211
0.006
0.028
0.085
-0.104
0.113
0.083
0.123
0.089
-0.115
0.100
0.085
0.051
-0.002
-0.051
-0.040
0.105
0.041
0.072
-0.017
0.028
-0.008
0.045
0.061
-0.002
0.122
0.014
-0.006
-0.055
0.066
0.058
0.025
0.176
0.058
-0.023
-0.050
0.048
0.028
0.031
0.050
0.030
0.079
-0.160
0.033
0.130
0.138
-0.010
-0.048
0.048
0.028
0.024
0.047
-0.116
0.127
0.015
0.127
0.040
0.009
0.060
-0.001
0.085
0.038
-0.016
-0.010
0.030
0.058
-0.096
-0.081
0.051
0.035
0.021
0.069
0.017
0.118
-0.061
-0.036
0.014
0.048
0.018
-0.005
0.002
-0.000
0.165
-0.029
-0.113
-0.014
0.079
-0.006
0.041
0.103
-0.137
0.024
0.041
0.023
-0.128
-0.017
-0.064
-0.055
0.157
-0.000
-0.155
-0.058
0.022
0.131
0.042
0.065
-0.071
0.028
0.045
0.018
0.061
0.018
0.149
-0.093
-0.037
0.127
0.008
0.003
-0.046
0.056
0.226
-0.096
0.099
0.111
-0.040
0.105
0.189
0.250
0.253
0.032
-0.673
-0.597
0.239
0.557
0.419
-0.500
-0.263
0.104
0.318
0.443
0.180
0.066
-0.090
0.125
-0.045
0.069
-1.161
-0.529
0.496
0.955
0.827
0.252
-0.074
-0.241
-0.239
-0.162
0.063
-0.002
0.168
0.226
0.245
0.210
0.187
0.064
0.114
-0.088
-0.101
-0.167
-0.178
-0.034
0.044
-0.046
-0.081
-0.022
-0.101
0.071
0.182
0.010
-0.006
0.127
-0.026
0.016
0.054
0.146
0.009
-0.004
0.010
-0.035
-0.134
0.127
0.309
-1.310
0.132
0.889
0.537
-0.040
-0.073
-0.060
-0.049
0.055
-0.080
0.057
0.097
0.330
0.298
0.385
0.070
-0.113
-0.300
-0.093
0.264
0.089
0.030
-0.038
-0.148
-0.229
-0.382
-1.061
-0.237
-0.318
-3.094
-1.485
1.210
1.885
1.365
0.458
-0.444
-0.558
-0.527
-0.169
0.348
0.582
1.013
1.038
1.161
1.146
0.926
0.460
0.138
-0.075
-0.178
-0.249
-0.169
-0.303
-0.374
-0.301
-0.335
-0.445
-0.250
-0.122
-0.220
-0.305
-0.161
-0.047
-0.129
-0.029
-0.055
0.025
-0.139
-0.051
-0.062
0.081
0.061
0.037
0.016
0.050
0.216
0.184
0.166
0.121
0.252
0.073
0.100
0.101
0.160
0.204
0.094
0.021
0.171
0.535
0.303
-0.067
0.004
-0.037
0.040
0.054
0.360
0.518
0.010
-0.648
-1.507
-0.036
0.982
0.913
0.364
0.053
-0.134
-0.318
-0.113
-0.067
0.186
0.218
0.349
0.105
0.234
0.246
0.088
0.053
0.008
-0.045
-0.192
-0.241
-0.265
-0.093
-0.123
-0.104
-0.059
-0.143
-0.198
-0.086
-0.239
-0.058
0.068
-0.075
0.014
-0.019
-0.138
-0.076
0.094
0.028
-0.011
-0.058
-0.105
-0.002
-0.027
0.027
-0.067
0.122
-0.127
0.085
0.226
0.117
0.068
0.140
-0.011
-0.014
0.052
0.108
0.095
0.026
0.128
0.054
0.096
-0.053
0.016
0.111
0.096
0.029
-0.032
0.075
0.031
-0.058
-0.175
-0.194
0.407
0.438
0.181
-0.018
-0.094
-0.122
-0.127
0.004
0.092
0.159
-0.046
-0.149
-0.081
0.129
0.130
0.017
-0.002
-0.093
-0.068
-0.027
-0.186
-0.138
0.076
0.095
0.202
-0.006
-0.042
0.060
-0.006
-0.039
-0.019
0.146
-0.011
-0.080
-0.302
-0.096
0.120
0.143
-0.227
-0.113
0.153
0.215
0.092
0.184
0.190
0.043
-0.099
0.066
0.100
0.074
0.185
-0.020
-0.076
-0.111
-0.401
-0.505
-0.508
-0.793
-1.106
-0.979
-1.233
-1.078
0.485
-0.536
-0.777
-0.272
-0.532
0.211
0.596
0.367
0.512
0.789
0.743
0.988
0.960
1.013
0.981
0.731
0.712
0.597
0.521
0.302
0.119
-0.187
-0.327
-0.260
-0.445
-0.404
-0.561
-0.597
-0.507
-0.432
-0.523
-0.323
-0.308
-0.194
-0.104
-0.173
0.094
-0.184
-0.182
-0.149
-0.173
0.046
0.094
0.162
0.116
0.026
0.058
0.214
0.219
0.212
0.143
0.218
0.266
0.189
0.274
0.414
0.269
0.263
0.205
0.357
0.310
0.271
0.370
0.218
0.270
0.280
0.365
0.280
0.248
0.144
0.177
0.263
0.190
0.128
0.158
0.058
0.122
0.110
0.113
0.137
0.060
-0.162
-0.081
0.005
0.162
-0.018
-0.002
-0.059
-0.032
-0.179
-0.017
-0.019
-0.027
-0.140
-0.123
-0.021
-0.048
-0.141
-0.126
-0.152
-0.082
-0.098
-0.095
-0.068
-0.132
-0.035
-0.177
-0.034
-0.007
0.150
-0.154
-0.261
0.025
0.112
0.041
0.095
-0.010
-0.143
0.005
0.231
-0.089
0.133
-0.049
-0.095
0.081
0.052
0.048
0.081
-0.019
0.173
-0.048
-0.087
-0.029
0.192
0.018
0.127
0.047
-0.027
-0.038
0.088
0.120
0.132
-0.048
0.015
0.182
0.090
-0.011
0.033
-0.009
-0.132
0.069
0.130
0.014
0.009
-0.086
0.039
0.088
0.090
-0.016
-0.035
0.105
0.111
-0.021
-0.006
-0.057
-0.012
0.080
0.096
0.045
0.008
-0.060
0.041
0.005
-0.078
0.024
0.026
0.123
0.069
0.093
0.047
-0.011
0.048
0.075
0.107
-0.027
0.154
-0.014
0.026
-0.019
0.089
0.033
0.047
0.107
0.028
0.042
0.132
0.077
0.027
-0.039
-0.046
0.046
0.091
0.059
-0.047
-0.053
0.161
0.210
0.308
0.130
0.076
-0.411
-0.562
0.065
0.523
0.200
0.243
0.037
-0.045
-0.053
-0.122
-0.055
0.005
-0.065
-0.027
0.094
-0.052
-0.060
-0.007
-0.095
-0.086
-0.391
-0.255
-0.179
0.084
0.324
0.237
0.087
-0.068
-0.039
-0.060
0.029
0.129
0.313
0.180
0.084
-0.207
-0.038
-0.020
-0.183
-0.016
-0.088
-0.093
-0.302
-0.237
-0.034
0.028
0.040
0.090
0.020
0.030
-0.061
0.096
0.375
0.172
0.261
0.210
0.105
0.241
0.081
0.074
0.096
0.098
0.049
-0.009
0.035
-0.135
0.030
0.076
-0.008
0.035
-0.200
-0.115
-0.105
0.003
0.068
-0.100
-0.039
-0.037
-0.092
0.023
-0.030
0.100
-0.024
-0.204
0.032
0.021
0.160
-0.134
0.072
0.135
-0.095
0.020
0.077
0.009
-0.017
0.045
-0.039
0.083
0.059
0.024
-0.000
0.173
0.021
0.093
0.047
-0.122
0.146
0.066
-0.001
0.071
-0.081
0.016
0.152
-0.012
0.168
-0.129
-0.075
0.022
-0.068
0.091
0.101
0.088
-0.036
0.130
-0.007
0.083
0.017
0.039
0.019
-0.055
0.017
0.092
-0.017
0.019
0.039
0.123
0.064
-0.099
0.066
0.063
0.009
-0.118
0.137
0.033
0.035
0.003
-0.028
0.034
0.142
0.039
-0.029
0.034
-0.039
-0.028
0.051
-0.070
0.087
0.059
0.002
0.042
0.006
0.070
-0.018
-0.034
0.076
-0.019
-0.003
-0.049
0.115
-0.155
0.105
0.046
0.047
0.041
-0.081
0.041
0.111
-0.012
-0.032
0.163
0.017
-0.119
0.072
0.025
-0.059
0.014
-0.056
0.122
0.043
-0.091
0.080
0.093
-0.106
-0.011
0.065
0.043
0.175
-0.047
-0.051
0.070
0.012
0.005
-0.067
0.010
-0.021
0.043
0.164
-0.032
-0.113
0.179
0.009
-0.071
0.080
0.139
-0.019
0.015
0.201
-0.021
-0.107
0.066
-0.019
0.209
-0.068
-0.072
-0.084
-0.030
0.079
0.028
-0.038
0.094
-0.128
-0.008
0.175
0.133
0.068
-0.049
0.086
0.002
-0.083
0.039
-0.012
0.203
0.097
0.042
-0.043
0.067
-0.007
-0.016
0.031
0.010
0.009
0.087
0.028
-0.006
0.111
-0.042
0.009
0.063
0.077
0.020
-0.091
-0.079
0.095
0.079
0.021
-0.036
-0.024
-0.094
0.094
0.027
0.010
0.048
0.035
0.024
-0.148
0.031
-0.001
-0.004
0.060
0.016
0.079
0.082
-0.016
-0.051
0.118
0.009
0.059
0.049
-0.073
-0.144
-0.006
0.121
-0.058
0.000
0.040
-0.026
0.213
0.005
-0.149
0.092
-0.083
0.366
-0.221
-0.096
0.179
-0.000
0.468
-0.231
-0.084
0.341
-0.148
0.015
0.134
0.229
0.170
0.172
0.068
0.088
0.015
0.174
0.160
-0.211
-0.215
0.362
0.225
0.190
0.012
-0.029
-0.181
-0.308
-0.106
0.124
0.138
0.018
0.001
-0.068
-0.102
-0.022
0.073
0.048
0.119
-0.059
-0.025
0.074
0.011
0.139
-0.218
0.026
0.171
-0.922
-3.025
-1.007
1.015
1.534
1.374
0.117
-0.198
-0.586
-0.504
-0.148
0.198
0.724
0.656
0.525
0.635
0.482
0.814
0.177
0.139
0.282
-0.229
-0.343
-0.165
-0.145
-0.186
0.026
-0.108
-0.081
-0.194
-0.095
0.065
0.052
-0.056
-0.133
0.057
-0.280
-0.821
-0.239
0.672
0.570
0.118
-0.109
-0.429
-0.496
-0.333
-0.382
-1.117
-0.952
0.101
0.701
0.780
0.556
0.037
-0.171
-0.299
-0.214
0.382
0.394
0.461
0.387
0.512
0.576
0.402
0.273
0.200
0.058
0.156
0.010
-0.231
-0.315
0.016
0.006
-0.084
-0.196
-0.128
-0.152
-0.035
0.028
-0.006
0.122
0.061
0.279
0.122
0.038
0.178
-0.075
0.000
0.082
0.240
-0.040
0.030
0.402
0.319
-0.272
-0.409
-0.086
0.205
0.154
0.124
0.050
0.004
0.037
0.058
-0.008
-0.161
-0.361
-0.180
0.207
0.102
0.039
0.031
-0.146
-0.083
-0.043
0.032
0.039
0.096
0.098
0.191
0.164
0.048
-0.002
0.000
0.093
-0.024
-0.109
0.182
-0.043
0.060
-0.131
-0.000
0.184
0.102
-0.332
-0.097
-0.163
-0.866
-0.801
0.760
0.976
0.595
0.083
-0.047
-0.175
0.001
-0.010
0.134
0.311
0.313
0.314
0.291
0.229
0.080
-0.071
0.028
-0.101
-0.116
-0.280
-0.169
-0.165
-0.072
-0.239
-0.118
-0.061
-0.128
-0.127
0.018
0.085
-0.092
-0.129
-0.045
0.013
0.129
-0.027
0.009
-0.011
0.062
-0.083
-0.045
0.049
0.085
0.057
0.142
0.132
-0.004
-0.096
-0.228
0.110
0.464
0.132
0.170
-0.060
-0.013
-0.077
0.080
0.078
0.207
-0.069
0.098
0.023
0.063
0.141
-0.019
0.054
-0.103
0.241
-0.030
-0.341
-0.012
0.281
0.369
0.146
-0.119
-0.335
-0.237
-0.113
-0.040
0.301
0.364
0.258
-0.087
-0.155
-0.113
0.069
-0.100
-0.055
0.100
0.178
0.012
-0.978
-3.386
-0.854
1.717
0.297
1.516
1.180
0.269
-0.508
-0.561
-0.367
-0.024
0.432
0.704
0.776
0.888
0.779
0.567
0.401
0.199
-0.011
-0.236
-0.477
-0.347
-0.446
-0.502
-0.410
-0.070
-0.199
-0.164
-0.152
0.021
-0.041
0.092
0.118
0.013
-0.057
-0.126
0.081
0.438
0.165
0.101
0.067
-0.132
-0.004
0.115
0.110
0.092
0.193
0.085
0.156
0.175
0.208
0.139
0.190
0.099
0.029
-0.038
0.108
0.075
0.186
-0.038
0.082
0.102
0.019
0.205
0.036
0.063
0.072
-0.082
-0.009
0.232
0.113
0.065
0.032
-0.045
-0.054
-0.029
0.015
-0.014
0.096
-0.069
0.000
0.059
-0.119
0.103
-0.037
-0.081
-0.054
0.043
-0.067
0.040
0.022
-0.087
0.098
0.037
0.237
-0.191
-0.212
-0.124
0.189
0.159
-0.042
0.035
-0.123
0.032
-0.070
-0.134
0.029
-0.315
0.100
0.339
0.246
0.199
0.099
-0.191
-0.097
0.023
0.049
0.158
-0.071
-0.138
-0.042
-0.025
0.011
0.168
0.235
0.153
0.039
-0.167
-0.061
0.085
-0.197
0.078
0.269
0.214
-0.002
0.094
0.103
0.058
-0.087
0.035
-0.143
0.031
0.010
0.057
0.044
0.033
-0.195
0.152
0.148
0.002
0.009
-0.106
0.120
0.036
-0.067
-0.017
0.128
0.117
0.043
0.005
0.005
0.111
-0.039
0.042
0.106
-0.091
0.106
0.072
0.009
0.108
-0.028
0.006
0.058
-0.031
-0.049
0.032
-0.047
-0.052
-0.228
-0.082
0.349
0.181
-0.190
-0.331
-1.328
-3.032
-3.837
-4.080
-3.489
2.094
4.255
4.477
0.971
-2.672
-2.687
-1.225
0.242
1.243
2.131
2.911
3.124
3.043
2.688
2.095
1.417
0.760
0.082
-0.475
-0.888
-1.013
-1.250
-1.295
-1.122
-1.026
-0.938
-0.720
-0.625
-0.424
-0.444
-0.253
-0.037
-0.157
-0.139
-0.080
-0.022
-0.033
0.005
0.003
0.090
-0.091
0.101
0.230
0.137
0.131
0.318
0.279
0.153
0.373
0.541
0.427
0.454
0.312
0.268
0.532
0.431
0.476
0.604
0.587
0.686
0.415
0.358
0.457
0.550
0.362
0.222
0.239
0.374
0.731
0.400
-0.093
-0.388
-0.567
-0.410
-0.046
0.227
0.161
-0.023
-0.249
-0.224
-0.124
-0.050
0.013
-0.039
-0.030
0.037
0.190
0.007
0.215
0.154
0.095
0.141
-0.091
-0.011
-0.200
-0.090
-0.085
-0.159
-0.381
-0.171
-0.185
-0.176
-0.262
-0.176
-0.092
-0.150
-0.004
-0.183
-0.155
-0.233
0.001
-0.046
-0.124
0.121
-0.054
-0.104
-0.099
-0.107
-0.039
0.094
0.031
-0.012
-0.021
0.024
0.000
0.060
-0.040
0.136
0.047
0.138
0.168
-0.034
-0.005
0.072
0.015
-0.001
0.130
0.017
0.108
0.125
0.038
0.208
0.025
0.037
-0.005
0.060
0.101
0.111
0.089
0.055
0.014
0.024
-0.009
0.100
-0.049
0.011
0.043
-0.059
-0.048
0.126
0.009
0.052
0.234
0.062
-0.007
-0.074
-0.026
0.011
0.160
0.069
0.100
0.022
0.120
-0.043
-0.021
-0.019
0.024
0.112
0.069
0.104
0.092
0.079
0.037
0.009
0.000
-0.022
0.115
0.075
0.043
0.022
0.054
0.159
0.004
0.113
-0.033
0.102
-0.165
-0.028
0.044
-0.009
0.017
0.010
0.035
-0.000
0.030
0.038
-0.013
-0.038
-0.084
-0.023
0.070
-0.066
0.103
0.075
0.089
-0.038
-0.053
0.053
-0.063
-0.126
-0.106
0.060
0.028
0.020
-0.111
0.066
0.008
-0.124
0.030
-0.058
-0.047
0.011
0.012
-0.116
-0.070
0.002
0.107
-0.038
0.051
0.018
0.003
0.003
0.060
0.034
-0.031
-0.036
0.160
0.190
-0.065
0.353
-0.226
-0.082
0.100
0.120
0.035
0.101
0.189
-0.109
0.121
0.093
0.117
0.363
0.165
0.274
0.080
0.216
0.062
0.103
0.069
0.067
0.076
0.101
-0.004
-0.033
0.204
0.075
0.001
-0.013
-0.021
-0.081
-0.035
0.037
-0.039
-0.004
0.105
0.001
-0.055
-0.137
-0.076
-0.142
0.467
0.228
0.147
0.099
-0.307
-0.295
-0.053
0.115
0.168
0.237
0.094
0.026
-0.119
0.058
-0.073
0.103
-0.047
-0.048
0.043
-0.040
0.047
-0.010
0.063
0.020
0.140
0.134
0.156
-0.182
-0.099
0.068
0.002
-1.789
-0.055
0.830
0.671
0.376
-0.027
-1.874
-0.152
0.675
0.569
0.401
0.080
0.040
-0.503
-0.032
0.349
0.455
0.246
0.295
0.279
0.135
0.043
0.040
0.005
-0.134
-0.007
-0.025
-0.168
-0.093
-0.053
-0.046
0.066
-0.006
-0.180
-0.071
0.044
0.046
0.170
0.124
0.086
-0.035
-0.013
-0.043
0.014
0.103
-0.164
-0.086
0.394
0.187
0.237
0.271
-0.039
-0.155
-0.190
0.016
0.063
-0.104
-0.061
0.139
0.459
0.513
0.197
-0.256
-0.548
-0.161
0.107
0.161
0.166
0.055
-0.027
0.088
0.111
-0.288
-1.289
0.442
0.841
0.504
0.230
-0.114
-0.408
-0.198
-1.962
-3.236
1.701
3.798
3.550
1.544
-0.251
-1.129
-0.975
-0.864
-0.216
0.245
0.783
1.495
1.793
1.679
1.416
0.997
0.629
0.115
-0.267
-0.472
-0.715
-0.771
-0.847
-0.743
-0.436
-0.345
-0.296
-0.280
-0.095
0.207
0.161
0.219
0.338
0.244
0.276
0.199
0.336
0.224
-0.036
0.236
0.672
0.054
0.097
0.537
0.483
-0.151
-2.590
-0.812
2.192
2.150
1.325
0.476
-0.077
-0.219
-0.032
0.254
0.459
0.571
0.713
0.738
0.683
0.570
0.443
0.200
0.091
-0.102
-0.150
-0.200
-0.201
-0.327
-0.274
-0.258
-0.417
-0.392
-0.179
-3.265
-0.300
2.966
3.341
1.680
-0.609
-1.703
-1.335
-1.550
-0.670
0.645
1.097
0.970
0.988
0.851
0.654
0.499
0.165
0.036
-0.186
0.025
-0.349
-0.603
-0.730
-0.203
-0.110
-0.208
-0.228
-0.067
-0.027
0.046
0.048
0.104
0.078
0.174
0.200
0.223
0.234
0.146
0.203
-0.100
-0.035
0.731
0.636
0.383
-0.035
-0.017
0.115
0.158
0.319
0.214
0.149
0.023
0.340
0.384
0.111
-0.391
-2.299
-2.318
1.362
2.432
1.600
0.519
-0.246
-0.532
-0.336
-0.056
0.228
0.438
0.748
0.779
0.550
0.262
0.203
0.180
-0.024
-0.286
-0.232
-0.347
-0.301
-0.403
-0.288
-0.400
-0.197
-0.365
-0.189
-0.158
-0.021
0.029
-0.015
-0.015
-0.087
-0.123
-0.076
-0.060
-0.037
-0.084
-0.072
0.047
0.095
0.018
-0.022
-0.133
0.148
-0.008
0.163
0.011
0.085
-0.056
0.103
0.015
0.149
0.094
0.101
0.103
0.046
0.239
-0.024
0.104
-0.034
-0.151
0.110
0.551
0.275
0.135
0.029
-0.071
-0.283
-0.130
0.138
0.136
0.209
0.019
-0.030
0.009
-0.073
0.001
0.369
-0.268
-0.277
-0.267
0.143
0.118
0.036
-0.051
-0.045
-0.123
0.001
-0.142
-0.009
-0.003
0.057
0.018
0.000
0.049
-0.099
0.083
0.020
0.092
-0.069
-0.053
-0.059
0.029
-0.083
0.237
0.141
0.022
0.017
0.192
-0.021
-0.009
0.035
0.043
0.034
0.002
0.139
0.050
0.093
0.054
0.081
-0.050
0.141
0.083
-0.015
0.105
-0.034
0.054
0.029
0.099
-0.096
-0.177
-0.206
0.397
0.324
0.038
0.072
-0.138
-0.166
0.019
0.159
-0.016
-0.121
-0.167
-0.050
-0.099
-0.206
0.305
0.319
0.110
-0.235
-0.215
-0.300
-0.106
0.158
0.148
0.260
0.074
-0.056
-0.131
-0.108
-0.018
0.144
-0.161
-0.011
-0.087
0.036
-0.002
-0.105
0.031
-0.971
-3.282
-3.876
1.082
3.734
4.132
1.640
-0.639
-1.809
-1.768
-0.895
0.153
0.985
1.674
1.937
1.985
1.745
1.357
0.951
0.299
-0.069
-0.540
-0.816
-0.812
-0.888
-0.771
-0.602
-0.322
-0.370
-0.527
-0.198
0.119
0.216
0.212
0.179
0.069
-0.067
0.022
0.300
0.283
0.233
0.144
-0.107
0.038
0.175
0.279
0.235
0.326
0.152
0.172
0.140
0.329
0.214
0.191
0.165
0.238
0.198
0.235
0.064
0.107
0.135
0.235
0.157
0.142
0.157
0.099
0.015
0.061
0.084
0.151
-0.005
-0.034
-0.009
0.010
-0.029
-0.090
-0.014
0.033
-0.054
-0.241
-0.067
0.062
0.088
0.099
-0.218
-0.088
-0.107
-0.020
-0.080
-0.017
-0.038
-0.039
0.002
-0.121
0.034
-0.027
-0.130
-0.122
0.017
-0.014
0.060
-0.077
-0.128
-0.051
-0.012
-0.144
-0.072
0.112
0.038
0.130
0.000
0.029
-0.044
-0.106
0.019
-0.133
0.198
0.387
0.169
0.263
-0.038
-0.119
-0.166
-0.161
-0.210
-0.373
-1.026
-1.713
-3.004
-3.886
-0.664
3.314
4.470
4.007
1.074
-1.213
-2.559
-2.271
-0.917
1.227
2.525
3.252
3.578
3.388
2.611
1.791
0.909
0.270
-0.557
-1.200
-1.388
-1.612
-1.611
-1.436
-1.151
-0.923
-0.625
-0.382
-0.109
-0.119
-0.107
0.086
0.017
-0.057
-0.076
0.009
-0.321
-0.356
-0.472
-0.611
-0.573
0.049
0.338
0.484
0.300
0.216
0.536
0.688
0.608
0.652
0.790
0.878
0.960
0.961
0.977
0.809
0.848
0.640
0.638
0.450
0.281
0.290
0.157
-0.082
-0.152
-0.093
0.026
-0.152
-0.187
-0.193
-0.211
-0.180
-0.170
-0.150
-0.074
-0.150
-0.225
-0.235
-0.270
-0.228
-0.205
-0.234
-0.142
-0.144
-0.239
-0.064
-0.200
-0.109
-0.084
-0.042
-0.099
-0.128
-0.148
-0.095
-0.037
-0.070
-0.101
0.020
-0.062
0.057
0.004
-0.004
-0.131
0.066
0.183
0.142
0.154
0.098
0.090
0.017
0.196
0.068
0.135
0.198
-0.017
0.082
0.209
0.178
0.214
0.028
-0.010
0.092
0.336
0.134
0.120
0.078
0.066
0.159
0.008
0.079
0.033
-0.164
0.102
0.155
0.120
-0.040
-0.102
0.053
-0.064
0.224
0.091
-0.098
-0.102
-0.071
0.013
0.007
0.103
-0.005
-0.060
-0.006
-0.197
0.102
0.008
-0.027
-0.083
-0.066
0.056
0.067
-0.035
-0.002
-0.077
0.015
0.191
-0.006
-0.056
-0.033
-0.009
0.039
0.105
-0.012
0.056
-0.016
0.109
-0.067
0.063
0.196
0.113
-0.043
0.038
0.072
0.109
0.043
-0.007
0.049
-0.031
0.099
0.122
0.016
0.183
-0.073
-0.179
0.208
-0.093
-0.080
-0.014
0.150
0.153
-0.163
0.117
-0.230
-0.124
-0.037
0.163
0.176
-0.139
-0.125
-0.062
0.042
0.083
-0.041
0.046
0.310
-0.325
-0.210
-0.036
-0.000
0.014
0.046
0.239
-0.071
-0.113
-0.078
-0.002
0.219
-0.132
-0.175
-0.029
-0.024
0.261
-0.051
-0.051
0.026
0.124
0.154
-0.223
-0.120
0.279
-0.082
0.150
0.057
-0.006
-0.054
-0.083
0.105
0.155
0.143
-0.192
0.069
0.145
0.121
-0.050
0.025
0.107
0.120
-0.149
-0.006
0.107
0.087
0.102
-0.045
-0.119
0.021
0.067
0.155
-0.013
-0.041
-0.167
-0.014
0.253
-0.084
0.017
0.058
-0.026
0.110
-0.068
-0.116
0.156
-0.000
0.023
-0.019
-0.049
0.040
0.013
0.061
0.026
-0.093
0.030
-0.072
0.194
-0.001
0.009
0.104
-0.030
-0.085
-0.051
0.058
0.047
0.023
-0.033
0.119
0.008
-0.085
-0.122
-0.035
0.033
-0.012
0.119
-0.073
-0.013
-0.134
0.165
0.068
0.025
0.030
0.098
0.012
0.032
-0.022
0.257
0.209
0.210
0.205
0.080
0.021
0.144
0.138
0.081
0.117
0.010
-0.169
0.045
0.285
0.125
0.066
-0.027
-0.038
-0.157
-0.049
0.033
0.006
0.042
0.040
0.196
0.176
-0.005
0.083
0.030
0.048
0.098
-0.011
0.070
-0.018
-0.040
0.067
0.047
0.013
0.018
0.068
0.311
0.024
-0.169
0.055
0.014
0.200
0.136
0.103
0.017
-0.036
-0.352
0.018
0.167
0.207
0.184
0.061
-0.014
-0.070
-0.083
0.054
-2.718
-0.244
1.678
1.603
0.709
0.128
-0.478
-0.508
-0.362
-0.161
0.191
0.184
-3.006
-1.938
0.895
2.868
2.263
0.720
-0.354
-0.940
-0.873
-0.761
-1.792
-1.054
-0.183
1.405
1.709
1.328
0.708
0.149
-0.397
-0.461
-0.281
0.105
0.128
0.282
0.235
0.337
0.258
0.273
0.139
0.269
0.108
0.008
-0.051
-0.317
-0.083
-0.226
-0.232
-0.207
-0.169
-0.040
-0.084
-0.228
-0.247
-0.151
0.070
-0.047
-0.043
0.225
0.490
0.203
-0.137
0.051
0.083
-0.035
-0.107
-0.129
-0.717
-1.640
-0.480
1.594
1.697
0.809
0.114
-0.252
-0.130
-0.026
0.068
0.174
0.297
0.656
1.009
0.697
0.452
0.293
-0.047
-0.131
-0.242
-0.091
-0.120
-0.037
-0.224
-0.075
-0.260
-0.158
-0.072
-0.133
-0.035
-0.079
-0.096
-0.231
0.048
0.135
-0.037
-0.308
0.074
-0.107
0.146
-0.118
-0.024
0.004
-0.067
0.085
0.129
-0.091
-0.303
-0.210
0.191
0.187
0.156
-0.437
-1.215
-1.327
-0.504
-0.038
0.214
0.195
0.331
0.170
-0.095
-0.330
-0.160
-0.131
0.170
0.396
0.536
0.597
0.838
0.685
0.427
0.300
0.262
0.025
-0.220
0.030
0.324
0.140
0.020
-0.277
-0.165
-0.398
-0.170
-0.100
0.112
0.104
-0.071
-0.005
-0.126
-0.163
-0.213
-0.211
-0.178
-0.127
-0.199
-0.285
-0.058
0.381
0.320
-0.005
0.022
-0.163
-0.104
-0.079
0.025
0.102
0.180
0.029
0.092
0.071
0.094
0.086
0.138
0.103
0.087
0.125
0.160
0.086
0.182
0.186
0.234
0.138
0.080
0.077
0.056
0.218
0.074
0.206
0.282
0.212
0.094
-0.004
-0.079
0.177
0.280
0.214
0.034
0.011
0.085
0.007
-0.024
-0.061
0.134
0.050
-0.111
-0.140
-0.191
-0.109
-0.200
-0.038
0.217
0.225
0.030
-0.203
-0.242
-0.094
-0.142
-0.005
0.075
-0.016
-0.008
0.007
0.036
-0.007
-0.057
-0.100
-0.063
-0.103
0.048
-0.005
-0.051
0.049
-0.104
-0.008
0.051
-0.023
-0.073
-0.170
-0.208
0.309
0.593
0.183
-0.280
-0.294
0.073
0.215
0.102
0.184
0.100
0.089
0.029
-0.003
0.081
0.012
-0.142
-0.099
0.138
0.313
0.158
-0.080
-0.071
-0.032
0.129
-0.006
-0.188
0.058
0.123
0.051
0.084
0.026
-0.040
0.034
0.093
-0.129
0.061
0.223
0.066
-0.016
0.023
0.002
0.008
0.111
0.034
0.060
-0.085
-0.005
-0.015
0.031
0.078
0.204
0.109
-0.158
0.010
0.039
-0.009
-0.039
0.173
0.039
-0.057
0.093
-0.049
0.094
0.035
0.028
-0.028
0.022
0.106
0.101
-0.083
-0.095
0.025
0.020
0.160
-0.001
0.057
0.004
-0.039
-0.046
-0.030
-0.075
0.126
0.063
-0.073
-0.179
-0.277
0.003
0.466
0.428
-0.036
-0.196
-0.170
-0.143
0.002
0.072
0.102
0.040
-0.033
0.064
0.098
0.067
0.133
-0.091
-0.073
0.010
-0.066
0.005
0.033
-0.046
0.001
0.094
-0.092
-0.084
0.061
0.061
-0.036
0.165
0.078
-0.012
0.004
-0.013
-0.015
-0.025
0.090
-0.030
0.015
0.085
0.070
-0.037
0.109
0.023
0.044
0.125
-0.007
-0.113
0.038
0.051
0.054
0.023
0.016
-0.001
0.095
0.166
-0.006
0.001
0.008
-0.156
-0.019
0.158
0.201
0.011
0.014
-0.096
-0.156
-0.000
0.379
0.284
-0.095
-0.153
-0.105
0.024
0.104
-0.017
-0.030
0.104
0.038
0.001
-0.093
0.166
0.221
0.268
0.023
-0.015
-0.292
-0.129
-0.053
0.157
0.145
-0.002
0.226
-0.107
-0.860
-1.388
-1.836
-0.950
-1.903
-3.540
-3.972
1.045
3.882
4.374
2.151
-0.472
-1.905
-1.800
-0.822
0.474
1.820
2.680
3.260
3.468
3.012
2.285
1.502
0.807
0.016
-0.564
-1.197
-1.239
-1.342
-1.449
-1.239
-0.979
-0.841
-0.624
-0.356
-0.414
-0.166
-0.097
0.003
0.013
0.060
0.023
0.185
0.162
-0.098
0.008
0.129
0.127
0.194
0.253
0.294
0.313
0.449
0.303
0.406
0.503
0.435
0.479
0.426
0.388
0.494
0.398
0.552
0.529
0.515
0.383
0.446
0.352
0.338
0.355
0.569
0.529
0.425
0.378
0.343
0.237
0.117
0.015
-0.011
0.555
0.472
0.079
0.016
-0.062
-0.171
-0.301
-0.272
-0.241
-0.068
-0.135
-0.048
-0.186
-0.163
-0.242
-0.131
-0.269
-0.306
-0.357
-0.119
-0.174
-0.159
-0.107
-0.024
0.029
-0.377
-0.373
-0.237
0.178
0.095
-0.211
-0.305
-0.214
-0.276
-0.042
-0.081
-0.030
-1.160
-1.330
-0.496
0.251
0.690
0.634
0.406
0.117
-0.216
-0.138
0.094
0.205
0.326
0.576
0.625
0.525
0.323
0.375
0.278
0.223
-0.010
-0.074
-0.140
-0.096
-0.117
-0.325
-0.296
-0.199
-0.143
-0.115
-0.167
-0.065
-0.123
-0.024
0.005
-0.022
-0.042
-0.015
-0.147
-0.065
0.080
-0.020
-0.078
0.094
0.054
-0.069
0.131
-0.031
0.030
0.081
0.028
0.098
0.146
0.129
0.008
-0.137
0.158
0.281
0.243
0.149
0.110
-0.032
0.202
0.149
0.177
0.156
0.171
0.297
0.070
0.009
0.062
0.169
0.184
0.154
0.216
0.125
0.063
0.156
0.043
0.099
0.041
0.043
0.011
-0.024
0.094
0.019
-0.059
0.061
0.010
0.104
0.004
0.010
0.000
-0.044
-0.023
-0.076
0.008
-0.027
-0.025
-0.006
0.005
-0.111
-0.057
-0.108
0.106
-0.057
-0.013
-0.097
-0.161
-0.003
0.005
0.003
-0.144
-0.089
0.046
-0.119
-0.004
0.142
-0.080
-0.178
0.014
0.054
-0.039
-0.016
0.029
0.087
-0.012
0.179
-0.058
-0.086
0.044
0.178
0.197
0.303
0.137
0.154
0.052
0.018
0.022
0.070
0.191
0.097
0.145
0.011
0.175
0.116
0.084
-0.080
-0.010
0.038
0.018
-0.055
-0.017
-0.018
0.016
0.115
0.024
0.188
0.026
-0.023
0.017
0.040
0.074
0.230
0.047
0.007
-0.026
0.039
0.108
0.076
0.082
0.123
-0.050
0.009
0.065
0.101
0.112
0.156
-0.138
0.009
0.084
0.008
-0.005
-0.069
0.074
0.046
0.066
-0.031
-0.009
-0.107
-0.201
-0.652
-1.685
0.722
1.254
0.675
0.003
-3.010
0.302
2.049
1.497
0.695
-0.045
-0.203
-0.378
-0.296
-0.142
0.516
0.804
0.739
0.521
0.376
0.062
-0.067
-0.108
-0.252
-1.599
-3.404
0.747
2.593
1.931
0.515
-0.503
-0.991
-0.716
-0.514
-0.199
0.290
0.784
0.901
0.874
0.685
0.629
0.396
0.166
0.012
-0.127
-0.169
-0.201
-0.225
-0.191
-0.220
0.004
-0.102
0.151
0.105
0.311
0.234
-0.149
-0.015
0.373
0.384
0.287
0.287
-1.752
-3.517
-1.452
1.747
3.113
2.352
0.866
-0.283
-0.832
-1.584
-1.505
-0.259
0.902
1.583
1.636
0.847
0.827
0.629
0.378
-0.051
-0.066
-0.318
-0.414
0.095
0.098
0.072
0.003
0.157
0.069
-0.064
-0.111
0.122
0.119
-0.030
-0.402
-0.262
-0.257
-0.383
-0.149
0.052
0.038
-0.265
-0.221
-0.305
-0.310
-0.121
0.009
-0.015
0.023
0.011
0.097
0.074
0.010
0.086
0.054
0.022
0.160
0.060
-0.978
-2.504
-1.219
0.554
0.902
0.817
0.608
0.136
0.238
0.250
0.171
0.036
0.391
0.618
0.619
0.864
0.796
0.662
0.777
0.527
0.346
0.072
-0.090
-0.306
-0.279
-0.332
-0.401
-0.403
-0.434
-0.153
-0.142
-0.120
-0.118
-0.112
-0.175
-0.058
-0.097
-0.141
-0.090
-0.117
-0.064
-0.052
-0.023
-0.137
-0.072
0.064
-0.048
0.043
0.019
-0.077
-0.018
-0.002
0.178
0.201
0.082
0.131
0.208
-0.056
-0.128
-0.002
0.062
-0.066
0.150
0.605
0.393
-0.118
-0.297
0.171
0.487
0.268
-0.126
-0.184
0.091
0.175
0.239
0.025
0.163
0.033
0.080
-0.056
0.090
-0.070
0.115
-0.095
-0.111
-0.121
-0.080
0.032
-0.006
-0.095
-0.868
-2.635
-1.241
1.964
2.156
0.988
0.122
-0.538
-0.691
-0.541
-0.187
0.223
0.404
0.339
0.595
0.715
0.650
0.388
0.137
-0.066
-0.343
-0.333
-0.260
-0.271
-0.202
-0.348
-0.241
-0.120
-0.046
-0.150
-0.024
0.016
0.102
0.116
0.037
0.055
-0.038
0.041
0.040
0.016
0.173
0.119
-0.005
0.123
0.022
0.089
0.199
0.079
0.033
0.073
0.131
0.225
0.033
-0.021
0.190
0.054
0.103
0.115
0.151
0.114
0.055
-0.004
-0.120
0.079
0.323
0.319
0.127
0.111
-0.065
-0.124
0.044
0.053
0.049
0.093
0.186
0.059
-0.099
0.001
0.011
-0.106
-0.074
-0.029
-0.182
-0.039
0.028
0.005
-0.041
-0.037
0.035
-0.153
-0.038
-0.012
-0.027
0.010
0.052
-0.024
0.005
-0.113
-0.074
0.009
0.022
0.017
0.035
0.028
-0.002
-0.010
-0.069
-0.077
-0.017
0.030
-0.021
0.060
0.102
0.285
-0.216
-0.196
-0.014
-0.020
0.142
0.166
-0.013
0.009
0.103
0.013
0.077
0.055
0.052
0.053
-0.032
-0.026
0.107
0.028
0.185
0.052
-0.093
-0.181
-0.084
0.002
-0.052
0.074
0.005
0.025
-0.008
-0.273
0.247
0.379
0.173
-0.142
-0.173
-0.329
-0.186
-0.060
0.053
0.283
0.207
0.249
0.062
-0.059
-0.034
-0.052
0.070
0.097
0.082
0.084
0.031
0.017
0.094
0.074
0.058
-0.009
-0.022
0.188
-0.017
0.020
-0.151
-0.163
-0.431
-0.709
-0.577
-0.085
0.117
-2.794
-2.675
2.488
4.119
3.892
1.148
-1.118
-2.195
-1.857
