0.068
0.042
-0.093
-0.004
-0.009
0.371
0.974
-0.857
-1.383
0.046
0.521
0.517
0.252
0.048
0.002
-0.187
-0.139
-0.173
0.093
0.119
0.118
-0.048
-0.103
0.088
0.123
0.173
0.118
0.046
0.465
-0.172
-0.638
-0.248
0.120
0.125
0.193
0.121
0.022
-0.014
-0.055
-0.044
0.040
0.035
0.039
-0.028
0.028
0.058
0.063
-0.002
0.030
0.106
0.197
0.199
-0.042
-0.222
-0.017
-0.083
-0.543
0.378
0.606
0.397
-0.027
-0.136
-0.165
-0.199
-0.208
0.058
0.278
0.724
1.101
-1.048
-1.259
0.046
0.490
0.555
0.136
0.028
-0.061
-0.086
-0.125
-0.048
-0.053
0.017
0.299
0.048
-0.461
-0.020
0.368
0.306
0.095
-0.009
-0.018
-0.099
-0.042
0.129
0.011
-0.081
0.023
0.075
0.193
0.114
0.090
-0.068
-0.031
0.070
0.104
-0.015
-0.053
0.112
0.040
0.153
0.021
0.046
-0.024
-0.085
-0.063
-0.026
0.086
0.193
0.443
-0.274
-0.586
-0.079
0.191
0.254
0.149
0.111
0.076
-0.075
-0.088
0.071
0.135
-0.059
-0.164
-0.090
0.126
0.127
0.169
0.182
0.020
0.235
1.246
-0.779
-1.579
-0.090
0.456
0.667
0.301
0.022
0.020
-0.146
-0.194
-0.124
0.024
-0.012
0.054
0.100
0.148
0.151
0.067
0.123
-0.022
0.012
-0.257
0.046
0.311
0.427
-0.183
-0.528
0.074
0.238
0.319
0.175
0.088
-0.150
-0.537
-0.265
0.120
0.447
0.299
0.025
0.025
-0.073
-0.125
-0.033
-0.044
0.074
-0.000
0.039
0.137
0.457
-0.728
-0.413
0.522
0.398
0.261
0.007
-0.061
-0.167
-0.148
-0.147
0.115
0.292
0.214
0.078
-0.001
-0.061
0.015
-0.029
0.067
0.061
0.076
0.269
0.372
-0.352
-0.476
1.064
-0.170
-1.494
-0.311
0.584
0.628
0.253
-0.028
-0.048
-0.139
-0.145
-0.089
0.055
0.140
0.038
0.034
-0.008
0.178
0.198
0.292
0.207
0.044
-0.077
-0.003
-0.046
-0.079
-0.113
0.096
0.080
0.138
0.074
0.052
-0.009
-0.004
0.065
-0.106
-0.162
-0.164
0.126
0.116
0.137
0.189
0.059
0.030
-0.030
0.024
-0.292
-0.040
0.398
0.431
-0.036
-0.099
0.013
0.101
0.116
-0.075
0.015
0.010
0.078
0.099
0.246
0.163
-0.166
-0.419
-0.232
0.192
0.377
0.214
0.101
0.015
-0.027
0.933
-0.155
-1.583
-0.378
0.438
0.710
0.348
0.013
0.098
-0.100
-0.109
-0.080
-0.029
0.028
0.123
0.081
0.190
0.123
0.012
0.253
0.473
-0.182
-0.541
-0.048
0.166
0.219
0.416
-0.608
-0.426
0.419
0.399
0.078
0.062
-0.143
-0.192
-0.142
0.085
0.135
0.180
0.112
0.125
-0.033
-0.052
0.003
0.097
-0.008
-0.036
0.023
0.074
0.105
0.049
-0.014
-0.060
-0.054
0.033
0.140
0.081
0.006
0.257
1.013
-0.887
-1.284
0.004
0.462
0.522
0.312
0.312
0.095
-0.229
-0.223
0.052
0.065
-0.714
-0.288
0.449
0.701
0.440
0.147
-0.184
-0.141
-0.233
-0.220
0.063
0.219
0.106
0.067
-0.070
-0.028
0.002
0.026
0.072
0.105
0.076
0.025
0.097
-0.064
-0.088
-0.037
0.084
0.020
-0.021
0.051
0.046
0.168
-0.021
-0.037
-0.077
-0.093
0.093
0.101
0.150
0.030
-0.051
0.014
-0.014
-0.096
0.082
0.051
0.044
0.140
-0.013
0.092
0.006
-0.017
0.071
0.259
0.393
-0.530
-0.205
0.936
-0.612
-1.218
0.087
0.769
0.570
0.194
-0.082
-0.274
-0.198
-0.066
-0.117
-0.004
0.104
0.237
0.541
-0.409
-0.618
0.448
0.575
0.505
-0.100
-0.545
-0.156
0.263
0.237
0.053
-0.082
-0.001
0.010
0.181
0.218
-0.007
-0.425
-0.411
-0.020
0.354
0.438
0.240
0.047
-0.226
-0.375
-0.172
-0.006
0.098
0.297
0.135
0.137
0.026
-0.161
0.046
1.016
-0.342
-1.335
0.092
0.640
0.530
0.205
-0.042
-0.055
-0.076
-0.112
-0.017
0.092
0.661
-0.056
-0.505
-0.188
0.183
0.187
0.197
0.032
0.041
-0.062
-0.105
-0.072
-0.011
-0.048
0.169
0.077
0.111
0.051
0.101
0.024
0.005
-0.005
0.056
0.102
0.075
-0.100
-0.049
-0.000
0.161
0.079
0.032
-0.005
0.019
0.042
-0.081
-0.002
0.045
0.143
0.001
0.137
-0.011
0.043
0.125
-0.081
-0.059
0.079
-0.036
0.049
0.049
0.043
0.521
0.670
-1.063
-0.804
0.245
0.258
0.003
0.103
0.251
0.203
0.050
-0.530
0.150
0.711
-0.882
-0.716
0.567
0.532
0.238
0.180
0.056
-0.020
-0.088
0.011
-0.061
0.021
-0.017
0.057
0.116
0.034
0.038
0.014
0.121
0.020
0.023
-0.072
-0.106
-0.003
-0.003
0.082
0.022
0.071
0.029
0.026
0.087
-0.017
-0.034
0.080
0.083
0.129
0.004
-0.148
-0.035
0.097
0.765
0.733
-1.311
-0.892
0.203
0.459
0.403
0.078
0.018
0.007
0.091
0.059
0.120
0.107
-0.311
-0.531
-0.250
0.380
0.507
0.105
0.114
0.140
0.098
0.038
-0.124
-0.114
-0.004
-0.123
-0.087
0.259
0.194
0.161
0.127
0.001
-0.049
-0.170
-0.062
0.075
0.098
0.000
-0.027
0.131
0.542
-0.586
-0.640
-0.017
0.427
0.118
0.218
0.372
-0.601
-0.146
0.523
0.408
0.137
-0.133
-0.192
-0.174
-0.110
0.148
0.099
0.121
0.144
0.004
0.101
0.932
-0.104
-1.634
-0.617
0.297
0.520
0.535
0.258
-0.020
-0.102
-0.138
-0.112
0.035
0.036
0.113
-0.025
0.108
0.310
0.172
-0.309
-0.378
-0.068
0.336
0.471
0.175
-0.062
-0.085
-0.182
-0.098
-0.035
0.099
0.126
-0.002
-0.053
0.016
0.095
0.154
0.136
0.052
0.000
-0.100
-0.075
-0.019
0.070
0.113
0.027
-0.002
0.089
-0.015
-0.003
-0.048
0.218
0.572
-0.029
-0.677
-0.361
0.091
0.371
1.373
0.007
-1.461
-0.377
0.129
0.368
0.398
0.108
0.056
-0.005
-0.044
-0.498
-0.354
0.483
0.484
0.352
-0.026
-0.149
-0.101
-0.093
0.417
-0.163
-0.686
0.163
0.696
0.312
0.037
-0.058
0.003
-0.217
-0.303
-0.100
-0.074
0.158
0.549
0.404
-0.080
-0.475
-0.315
0.090
0.389
0.081
0.060
0.043
-0.065
-0.073
-0.080
0.025
-0.007
0.099
0.039
0.141
0.157
0.088
-0.016
-0.040
-0.010
-0.049
-0.042
0.115
0.108
0.091
0.055
0.027
-0.015
0.025
-0.018
0.048
0.099
0.012
-0.002
-0.054
-0.004
0.312
1.018
-0.872
-1.286
0.056
0.593
0.555
0.233
-0.015
-0.187
-0.162
-0.058
0.230
0.565
-0.108
-0.691
-0.128
0.180
0.335
0.280
0.325
-0.141
-0.360
-0.025
0.235
0.154
-0.051
-0.106
-0.094
-0.023
0.110
0.131
0.128
-0.110
-0.024
0.114
0.226
0.050
-0.156
-0.137
-0.024
0.108
0.203
0.222
-0.196
-0.594
-0.340
0.300
0.571
0.425
0.109
-0.176
-0.292
-0.057
0.091
-0.622
0.033
0.715
0.503
0.043
0.009
0.783
0.271
-1.561
-0.840
0.292
0.644
0.491
0.176
-0.044
-0.134
-0.074
-0.135
-0.120
-0.218
-0.078
0.169
0.163
0.301
0.597
-0.076
-0.596
-0.226
0.126
0.203
0.144
0.184
0.077
-0.049
-0.107
-0.054
-0.004
-0.043
-0.004
0.107
0.091
0.015
0.076
0.047
0.062
0.061
0.045
0.064
0.201
-0.299
-0.168
0.147
0.358
0.349
0.233
0.016
-0.352
-0.604
-0.197
0.149
0.443
0.310
0.102
-0.085
-0.135
-0.156
-0.005
0.555
0.668
-1.139
-1.001
0.334
0.653
0.567
0.264
0.009
-0.076
-0.156
-0.110
-0.070
-0.115
0.116
0.115
0.090
0.069
0.142
0.036
0.102
0.065
0.042
0.019
-0.096
-0.149
-0.093
0.017
0.100
0.209
0.508
-0.317
-0.843
0.104
0.535
0.308
-0.024
-0.087
0.032
-0.035
0.036
-0.019
0.082
0.136
0.067
0.198
0.244
0.306
-0.421
-0.516
-0.064
0.093
0.115
0.141
0.008
-0.048
0.066
0.100
0.001
-0.086
-0.174
0.027
0.112
0.157
0.248
0.315
0.550
0.679
-1.617
-1.788
0.449
1.325
0.891
0.193
-0.194
-0.311
-0.284
-0.194
-0.041
0.069
0.147
0.129
0.213
0.122
0.119
0.031
-0.011
-0.022
0.113
0.056
-0.016
-0.134
-0.138
-0.062
0.022
0.132
0.185
0.136
-0.155
-0.149
0.006
0.214
0.139
0.068
0.073
-0.134
-0.018
0.090
-0.009
0.098
0.025
-0.060
-0.003
0.024
0.021
0.078
0.036
0.065
0.005
0.002
0.056
0.138
0.145
0.157
-0.165
-0.199
-0.071
0.107
0.151
0.144
0.112
0.036
0.479
0.664
-0.080
-1.672
-0.819
0.494
1.105
-0.009
-0.391
0.332
0.359
0.085
-0.221
-0.264
0.044
0.182
0.206
-0.083
-0.334
-0.460
0.349
0.728
0.484
0.044
-0.223
-0.223
-0.219
-0.117
-0.044
0.002
0.114
0.054
0.092
0.179
0.162
0.051
0.031
0.073
-0.070
-0.225
-0.107
0.072
0.178
0.279
0.086
-0.102
-0.020
-0.089
-0.094
0.027
0.055
0.122
0.090
-0.007
0.066
0.022
-0.252
0.533
0.809
-1.069
-0.738
0.245
0.470
0.251
-0.001
-0.051
-0.026
0.010
-0.004
0.077
0.075
0.082
0.020
0.007
-0.024
0.081
0.076
0.107
0.134
0.542
-0.039
-0.540
-0.360
0.173
0.268
0.249
0.085
-0.158
-0.085
-0.005
0.002
0.046
0.063
0.012
0.032
0.092
0.173
0.285
0.003
-0.407
-0.449
-0.001
0.335
0.365
0.212
0.061
0.016
-0.102
-0.147
-0.045
0.152
-0.002
-0.326
0.137
0.362
0.264
-0.070
-0.036
-0.017
0.060
0.010
-0.071
0.000
-0.038
0.063
0.041
-0.038
0.020
0.109
1.223
-0.011
-2.023
-0.506
0.849
0.870
0.395
0.047
-0.111
-0.271
-0.233
-0.142
0.019
0.112
0.144
0.171
0.087
0.096
0.081
0.044
0.002
0.029
-0.041
-0.008
-0.017
0.015
-0.050
0.068
0.102
0.202
0.056
-0.050
0.192
0.346
-0.333
-0.563
-0.035
0.173
0.283
0.204
0.072
-0.006
-0.056
-0.131
-0.059
0.011
0.040
-0.042
0.032
0.295
0.448
0.158
-0.388
-0.666
-0.291
0.307
0.735
1.223
-0.741
-1.308
0.076
0.341
0.448
0.133
0.007
-0.091
-0.042
-0.030
0.064
-0.020
0.081
0.284
-0.046
-0.343
-0.003
0.278
0.454
0.117
0.025
-0.190
-0.137
-0.147
0.035
0.129
0.056
0.049
0.100
0.122
0.012
0.086
0.055
-0.031
-0.126
-0.009
-0.068
0.091
0.046
0.146
0.012
-0.078
0.017
0.093
0.032
0.040
0.025
-0.008
-0.057
0.014
0.020
-0.011
0.050
0.090
0.458
-0.302
-0.226
0.133
-0.021
-0.097
0.064
0.055
0.125
0.063
0.115
0.018
-0.016
-0.069
0.059
0.069
-0.115
0.583
1.010
-1.107
-0.938
0.110
0.423
0.419
0.182
0.017
-0.041
-0.108
-0.039
0.101
0.144
-0.103
-0.418
-0.244
0.242
0.462
0.321
0.084
0.016
0.006
-0.079
-0.158
-0.274
-0.073
0.172
0.147
0.103
0.100
0.065
0.040
0.043
0.052
0.068
-0.369
-0.286
0.282
0.302
0.171
-0.048
-0.010
-0.043
0.019
0.050
-0.031
-0.029
0.050
0.021
-0.003
0.041
0.016
0.040
0.018
-0.046
0.042
0.080
0.033
0.039
0.106
0.064
-0.124
-0.054
0.048
0.034
0.858
0.326
-1.265
-0.556
0.205
0.558
0.332
0.347
0.328
-0.517
-0.653
-0.059
0.201
0.176
0.142
0.186
0.037
0.036
-0.115
-0.080
-0.014
-0.011
-0.038
0.116
0.235
0.102
0.105
0.177
0.035
-0.079
0.282
-0.716
-0.518
0.639
0.802
0.137
-0.436
-0.508
-0.139
0.269
0.282
0.119
-0.089
-0.118
-0.088
-0.002
0.197
0.079
-0.378
-0.038
0.460
0.376
0.109
-0.292
-0.135
-0.083
0.006
0.571
0.883
-1.073
-0.993
0.096
0.477
0.443
0.135
0.054
-0.101
-0.171
-0.100
-0.055
0.025
0.078
0.121
0.079
0.083
0.125
0.122
-0.059
0.020
0.046
0.054
0.497
0.049
-0.653
-0.373
0.136
0.208
0.175
0.138
0.042
-0.002
-0.056
-0.016
-0.068
-0.050
0.050
0.057
0.159
0.096
-0.044
-0.046
-0.113
-0.037
0.272
0.295
0.011
-0.447
-0.387
0.010
0.338
0.280
0.207
-0.023
-0.319
-0.062
0.360
1.161
-0.563
-1.500
-0.109
0.636
0.502
0.082
-0.036
0.046
0.165
0.022
-0.125
-0.117
-0.064
0.004
0.097
0.410
-0.542
-0.294
0.077
0.461
0.476
0.340
0.036
-0.285
-0.514
-0.177
0.109
0.112
0.103
0.134
0.036
0.121
-0.052
0.036
-0.035
-0.056
0.068
0.130
0.124
-0.016
-0.052
0.013
-0.036
0.056
-0.022
-0.005
0.060
0.129
0.600
-0.142
-0.553
-0.276
0.150
0.050
0.070
0.210
0.114
-0.035
-0.063
-0.153
-0.034
0.062
0.113
0.042
0.113
0.051
-0.014
0.013
0.043
0.092
0.032
0.183
0.923
-0.135
-1.475
-0.169
0.674
0.401
-0.300
-0.312
0.035
0.312
0.207
0.104
-0.025
-0.071
-0.157
-0.015
0.031
0.189
0.179
0.073
0.013
0.058
0.010
-0.090
0.113
0.272
0.154
-0.033
-0.132
-0.254
-0.146
0.142
0.105
0.119
0.015
0.046
-0.046
0.009
-0.011
0.037
0.109
0.049
0.090
0.105
-0.353
-0.194
0.233
0.402
0.280
0.038
-0.055
0.032
0.091
-0.133
-0.214
0.002
0.131
0.175
0.205
0.111
-0.038
-0.006
0.017
-0.088
0.287
0.361
-0.460
0.099
0.565
-1.002
-0.975
0.622
0.748
0.529
0.150
-0.140
-0.242
-0.207
-0.213
-0.013
0.109
0.321
0.280
0.137
0.081
-0.011
-0.114
-0.012
0.129
0.088
-0.056
-0.043
0.021
0.037
0.004
0.062
0.017
-0.005
0.052
0.018
0.052
0.222
0.081
-0.175
-0.402
-0.118
0.318
0.351
0.200
-0.010
-0.133
-0.106
0.004
-0.372
-0.207
0.302
0.295
0.285
0.014
-0.113
0.018
0.077
0.084
0.002
-0.193
-0.029
0.149
0.167
0.154
0.057
-0.118
-0.008
0.092
1.084
-0.512
-1.421
-0.205
0.445
0.599
0.289
-0.002
-0.020
0.024
-0.058
-0.030
-0.036
0.025
0.045
0.062
0.121
0.037
0.166
0.067
0.224
0.613
-0.237
-0.540
-0.270
0.008
0.144
0.067
0.057
0.120
0.078
0.051
0.041
-0.081
-0.118
-0.013
0.040
0.123
0.104
0.062
0.133
0.085
0.102
-0.010
-0.026
0.010
0.054
-0.019
0.087
-0.015
0.026
0.450
-0.618
-0.607
0.346
0.555
0.311
0.095
-0.008
-0.193
-0.119
0.083
0.271
0.524
0.759
-1.282
-1.427
0.330
0.457
0.542
0.457
0.120
-0.089
-0.324
-0.455
-0.297
0.132
0.269
0.216
0.219
0.115
0.053
0.101
0.060
-0.006
0.013
0.058
0.009
-0.018
-0.033
-0.006
-0.060
0.084
-0.008
-0.126
-0.007
0.226
0.087
-0.006
-0.082
-0.028
-0.063
0.142
0.151
-0.051
0.029
-0.032
0.029
0.088
0.074
0.015
0.011
-0.113
-0.004
0.074
0.607
0.013
-0.583
-0.335
0.139
0.186
0.196
0.202
0.068
0.030
-0.058
-0.099
-0.017
0.049
0.144
0.086
0.033
0.031
0.117
0.023
0.428
0.950
-0.906
-1.314
0.078
0.612
0.480
0.305
0.055
-0.137
-0.209
-0.210
0.023
0.005
-0.165
-0.121
-0.172
0.362
0.601
0.452
0.423
-0.475
-0.928
0.033
0.544
0.393
0.054
0.046
0.011
-0.080
-0.005
-0.023
0.071
0.156
0.068
-0.061
-0.073
-0.068
0.029
-0.027
0.008
0.069
0.023
0.026
0.007
-0.131
0.016
0.100
-0.111
0.074
0.283
0.182
-0.046
-0.113
-0.041
-0.033
0.086
0.086
0.037
0.197
0.836
0.872
-1.493
-1.558
0.120
0.624
0.621
0.282
-0.147
-0.045
-0.071
-0.002
-0.050
-0.174
-0.040
0.069
0.173
0.177
0.078
0.145
0.072
-0.079
-0.108
0.123
0.181
0.035
0.087
-0.034
-0.079
-0.121
-0.015
-0.018
-0.003
0.089
0.038
0.067
0.059
0.095
0.008
-0.002
0.020
-0.023
-0.021
0.055
0.032
0.090
-0.023
-0.253
0.287
0.402
-0.103
-0.454
-0.228
0.228
0.276
0.201
0.039
-0.073
-0.179
0.037
0.058
-0.015
-0.009
-0.039
0.099
0.164
0.148
0.678
0.736
-1.334
-1.083
0.193
0.686
0.487
0.355
0.115
-0.903
-0.388
0.500
0.313
0.103
-0.085
-0.065
0.031
-0.083
0.067
0.044
0.204
0.139
0.091
0.147
-0.198
-0.230
-0.006
0.323
0.217
-0.038
-0.073
-0.149
-0.067
0.084
0.562
0.029
-0.555
-0.358
0.080
0.229
0.190
0.160
0.056
-0.094
-0.053
0.041
-0.015
-0.053
-0.055
0.068
0.164
0.053
0.132
0.142
0.013
-0.025
0.023
0.054
0.035
0.047
-0.007
-0.015
0.106
-0.010
0.154
1.053
-0.571
-1.367
0.107
0.678
0.463
-0.292
-0.311
-0.000
0.224
0.074
0.050
0.119
-0.128
-0.107
-0.028
0.146
0.254
0.156
0.129
0.096
-0.427
0.096
0.313
0.279
0.059
-0.290
-0.073
0.187
0.127
0.022
-0.072
-0.072
0.057
0.020
0.079
0.142
0.107
0.086
0.010
-0.142
-0.157
0.002
0.165
0.175
0.028
0.021
-0.078
0.071
0.010
0.062
0.008
0.054
0.080
0.598
0.425
-1.327
-0.672
0.525
0.370
0.244
0.335
0.159
0.008
-0.096
0.780
-0.128
-1.546
-0.486
0.577
0.810
0.412
0.126
0.040
-0.149
-0.242
-0.197
-0.124
0.085
0.124
0.116
0.067
0.059
0.109
0.076
0.116
0.091
0.020
0.009
0.015
0.053
0.045
-0.001
-0.024
0.032
-0.020
0.093
0.172
0.208
-0.109
-0.564
-0.391
0.135
0.354
0.357
0.067
0.109
-0.321
-0.324
0.122
0.369
0.194
-0.067
-0.089
0.026
0.016
0.036
0.115
0.059
0.120
0.054
0.058
0.004
-0.050
-0.122
0.002
0.099
0.022
0.102
0.006
0.002
0.125
1.049
-0.222
-1.373
-0.293
0.488
0.574
0.343
0.060
0.026
-0.234
-0.148
-0.007
0.287
0.220
-0.049
-0.234
-0.073
0.090
0.133
0.173
0.050
0.073
-0.027
0.053
-0.008
-0.145
-0.020
0.136
0.195
0.288
0.428
-0.394
-0.725
-0.136
0.306
0.355
0.254
0.045
-0.015
-0.012
-0.085
-0.101
-0.131
0.065
0.048
0.054
0.076
0.027
0.126
0.091
0.199
-0.081
-0.060
-0.145
-0.403
0.404
0.639
0.089
-0.070
-0.131
-0.088
0.008
0.273
0.204
-0.134
-0.460
-0.303
0.157
0.409
0.375
0.164
0.911
-0.493
-1.556
-0.310
0.386
0.483
0.324
0.166
0.069
-0.042
-0.096
-0.034
-0.083
0.030
0.189
0.113
0.004
-0.042
-0.030
0.139
0.196
-0.043
-0.048
-0.076
0.044
0.075
0.037
0.039
-0.079
0.044
0.038
0.001
0.008
-0.035
0.086
0.094
0.228
0.549
-0.153
-0.640
-0.247
0.114
0.246
0.301
0.222
0.032
-0.216
-0.189
-0.129
-0.089
0.085
0.157
0.171
0.088
0.094
-0.057
0.082
0.010
-0.013
0.100
0.102
0.150
-0.116
-0.106
0.094
0.228
0.046
-0.028
-0.113
-0.011
0.820
0.262
-1.359
-0.581
0.292
0.594
0.438
0.555
-0.065
-0.787
-0.564
-0.030
0.370
0.443
0.156
0.019
-0.073
-0.013
-0.097
0.024
0.281
0.340
0.044
-0.010
-0.068
0.005
-0.072
-0.199
-0.068
0.166
0.461
0.229
-0.794
-0.190
0.423
0.231
0.014
-0.093
-0.048
-0.037
0.019
0.026
0.084
0.015
0.096
0.156
-0.006
0.045
0.000
0.020
-0.033
0.022
-0.076
0.092
0.076
0.094
0.103
0.022
-0.001
-0.028
0.006
0.022
0.019
0.030
0.119
0.016
0.073
-0.052
-0.022
0.112
0.109
0.376
1.076
-0.939
-1.331
0.172
0.971
0.425
-0.347
-0.249
-0.003
0.037
0.003
0.103
0.086
0.028
0.000
0.029
-0.055
0.105
0.088
0.070
0.180
-0.030
0.104
0.148
0.090
-0.167
-0.159
0.043
0.232
0.214
0.042
-0.491
-0.488
0.100
0.446
-0.138
0.252
0.382
0.136
-0.107
-0.296
-0.140
-0.040
0.092
0.206
0.193
0.069
0.027
0.048
0.084
0.101
0.011
0.002
-0.020
0.025
0.065
0.092
-0.087
-0.114
0.060
0.990
0.040
-1.419
-0.383
0.363
0.628
0.358
0.271
0.169
-0.974
-0.458
0.332
0.451
0.189
0.067
0.063
-0.024
-0.084
-0.098
0.032
0.267
0.225
0.159
0.058
-0.085
-0.061
-0.134
0.051
0.340
-0.075
-0.571
-0.214
0.445
0.408
0.006
-0.111
0.024
0.019
0.070
0.067
-0.028
-0.089
-0.073
0.033
0.085
0.165
0.133
0.040
-0.019
-0.034
0.003
-0.071
0.029
-0.051
-0.009
0.039
0.083
0.149
0.110
0.079
-0.028
-0.051
-0.018
-0.016
0.036
0.122
0.037
0.065
-0.142
-0.029
1.164
0.122
-1.528
-0.461
0.261
0.751
0.668
0.164
-0.614
-0.708
-0.171
0.269
0.296
0.255
0.053
-0.049
-0.069
-0.032
0.037
0.033
0.085
0.110
0.067
0.127
0.078
0.033
-0.046
-0.030
0.016
-0.009
0.015
0.056
-0.005
-0.025
0.051
-0.005
0.015
0.029
0.052
0.051
0.002
0.114
0.041
0.031
0.079
-0.040
0.036
0.729
-0.336
-0.845
0.009
0.466
0.283
0.123
0.078
-0.014
-0.171
-0.056
-0.027
0.116
0.064
0.095
0.016
-0.027
0.083
0.024
-0.012
0.061
0.973
0.203
-1.354
-0.567
0.205
0.563
0.399
0.109
0.166
0.045
0.017
-0.586
-0.268
0.300
0.345
0.165
-0.003
-0.049
-0.023
0.032
0.059
0.107
0.056
0.003
0.004
0.026
-0.022
-0.032
-0.007
0.056
0.050
0.110
0.196
0.239
0.018
-0.636
-0.461
0.170
0.601
0.434
-0.035
-0.114
-0.145
-0.110
0.031
0.028
0.046
-0.013
0.084
0.058
0.141
0.019
0.131
-0.089
-0.071
0.062
0.187
0.113
0.024
0.036
0.045
0.017
-0.231
-0.230
-0.131
0.148
0.264
0.236
0.127
0.021
-0.074
0.020
0.559
0.837
-0.827
-1.726
-0.101
0.687
0.782
0.542
0.094
-0.152
-0.233
-0.099
-0.164
-0.109
0.073
0.095
0.147
0.021
0.118
-0.028
0.166
0.160
0.138
0.100
0.050
0.005
-0.099
-0.044
0.009
0.050
0.064
0.014
0.020
0.049
0.126
-0.302
-0.272
0.427
0.620
-0.597
-0.329
0.453
0.327
0.015
0.017
-0.017
0.038
0.083
0.112
-0.056
-0.290
-0.324
0.117
0.379
0.080
0.075
0.131
0.053
-0.083
-0.147
-0.030
-0.056
0.127
0.801
0.493
-1.309
-0.750
0.322
0.623
0.538
0.131
-0.059
-0.144
-0.228
-0.037
0.428
-0.214
-0.576
-0.142
0.228
0.320
0.251
0.137
0.049
0.033
0.059
-0.034
-0.021
-0.041
-0.052
0.008
-0.044
0.085
0.152
0.119
-0.005
0.048
0.150
0.148
0.027
-0.132
-0.246
-0.010
0.082
0.111
0.045
-0.015
-0.027
0.024
0.034
0.054
0.075
0.028
0.043
0.011
0.002
0.016
0.099
0.028
0.187
0.026
0.005
0.005
0.044
-0.057
-0.033
-0.027
0.063
0.046
0.096
0.125
-0.040
0.001
0.038
-0.056
0.096
0.159
0.963
-0.069
-1.153
0.064
-0.020
-0.042
0.139
0.221
0.265
0.110
-0.012
-0.145
-0.184
0.075
0.107
0.146
0.096
0.046
0.069
0.085
0.101
0.033
0.163
0.024
0.086
0.059
-0.048
-0.057
-0.029
-0.011
-0.110
-0.087
0.074
0.177
0.137
0.020
-0.101
-0.065
0.344
-0.149
-0.657
0.152
0.580
0.432
0.058
-0.127
-0.129
0.009
0.492
-0.065
-0.594
-0.217
0.177
0.306
0.216
0.093
-0.032
0.046
-0.016
-0.092
0.018
-0.015
-0.012
0.175
0.028
-0.011
-0.001
0.030
0.127
0.134
1.151
-0.369
-1.449
-0.154
0.450
0.544
0.264
-0.157
-0.265
0.016
0.290
0.189
-0.020
-0.548
-0.314
0.168
0.402
0.418
0.187
0.026
-0.095
-0.066
-0.050
0.076
0.075
0.022
0.130
0.010
0.071
0.027
-0.111
0.042
0.121
0.051
-0.019
-0.025
-0.011
0.116
-0.348
-0.099
0.310
0.313
0.209
-0.091
-0.146
-0.014
-0.064
0.066
0.100
0.068
0.077
0.074
0.048
0.051
-0.006
0.006
-0.092
-0.070
0.041
0.096
0.192
0.079
0.362
-0.253
-0.307
0.105
0.177
0.060
0.092
0.641
0.754
-1.207
-1.047
0.312
0.463
0.363
0.159
0.002
0.127
0.203
-0.764
-0.339
0.514
0.493
0.126
0.057
0.001
0.073
-0.063
-0.006
0.020
0.090
0.012
0.105
-0.009
-0.052
0.073
0.091
0.043
0.172
0.218
-0.079
-0.446
-0.482
0.010
0.365
0.324
0.192
0.033
-0.091
-0.037
-0.144
0.027
0.039
0.189
0.058
-0.062
-0.178
0.087
0.089
0.091
0.118
0.050
0.100
-0.002
0.036
-0.018
0.111
0.024
0.053
-0.053
0.052
0.076
0.177
0.587
0.714
-0.023
-1.768
-0.856
0.306
0.773
0.703
0.247
-0.062
-0.263
-0.150
-0.245
-0.605
0.133
0.483
0.400
0.170
0.001
-0.029
-0.122
0.038
0.122
0.132
0.145
0.108
0.096
-0.086
-0.140
-0.089
-0.019
0.168
0.001
-0.064
0.056
0.191
0.117
0.054
-0.084
-0.038
-0.053
-0.046
0.074
0.039
0.107
-0.029
0.011
0.028
0.094
0.064
-0.024
0.032
0.091
0.029
-0.047
0.018
0.039
0.053
0.199
0.335
0.138
-0.211
-0.529
0.152
0.211
0.443
-0.600
-0.412
0.342
0.418
0.267
0.036
-0.161
-0.113
0.201
0.537
-0.245
-0.547
-0.187
0.171
0.277
0.263
0.139
0.031
-0.102
-0.036
-0.090
-0.030
-0.016
0.035
0.095
0.012
-0.082
0.114
0.127
0.112
0.167
0.151
-0.080
-0.075
-0.019
-0.074
0.078
0.020
0.116
0.026
0.001
0.059
-0.055
0.030
0.119
0.037
0.033
-0.064
0.082
0.111
0.079
-0.062
-0.013
0.006
0.024
0.012
-0.014
0.056
0.076
0.094
-0.005
0.035
0.051
-0.038
-0.023
1.093
-0.079
-1.353
-0.172
0.405
0.499
0.409
-0.189
-0.323
0.190
0.244
0.080
-0.097
-0.064
-0.050
-0.011
0.125
0.127
0.130
0.014
0.130
0.065
0.043
0.028
0.004
0.060
0.232
0.064
-0.189
-0.390
-0.183
0.232
0.411
0.197
0.004
-0.068
0.134
0.350
-0.440
-0.323
0.006
0.106
0.200
0.114
-0.586
0.085
0.609
0.385
0.022
-0.149
-0.124
-0.075
-0.031
0.049
0.099
0.940
0.581
-1.517
-0.818
0.316
0.600
0.518
0.250
-0.002
-0.179
-0.249
-0.213
-0.107
0.057
0.060
0.131
0.115
0.141
0.151
0.023
0.114
-0.027
0.051
0.011
0.001
-0.003
-0.013
-0.068
0.007
0.084
0.050
0.018
0.033
-0.112
0.005
0.228
0.178
0.103
-0.071
-0.102
-0.070
0.032
0.081
0.120
0.122
-0.325
-0.127
0.382
0.416
0.285
-0.068
-0.309
-0.654
-0.446
0.173
0.559
0.798
0.434
-0.525
-0.560
-0.139
0.008
0.126
0.175
0.138
0.321
1.070
-0.757
-1.392
-0.070
0.470
0.608
0.289
-0.035
-0.083
-0.073
-0.075
-0.015
-0.037
-0.002
0.015
0.080
0.152
0.147
0.150
0.192
0.188
0.009
-0.124
-0.197
-0.050
0.055
0.483
-0.520
-0.582
0.404
0.490
0.216
-0.057
-0.244
-0.249
0.050
0.175
0.127
0.073
0.089
0.010
0.072
0.029
0.007
0.009
-0.051
0.058
0.012
0.025
-0.022
0.012
0.008
-0.077
-0.085
0.027
0.178
0.017
0.053
0.145
0.103
0.002
-0.054
0.242
1.129
-0.587
-1.344
0.168
0.616
0.353
-0.203
-0.184
0.151
0.252
0.052
-0.131
0.062
-0.052
-0.445
0.069
0.382
0.823
0.298
-0.659
-0.509
0.076
0.207
0.151
0.181
-0.006
-0.052
-0.078
-0.039
-0.026
-0.032
0.025
0.001
0.051
0.136
0.023
0.074
0.047
0.073
0.093
-0.023
0.101
0.003
-0.034
0.028
0.063
0.100
0.069
-0.031
0.045
0.089
1.033
-0.416
-1.442
-0.102
0.413
0.744
0.361
-0.053
-0.208
-0.167
0.329
-0.130
-0.735
0.195
0.611
0.333
-0.006
-0.040
-0.095
0.034
0.049
-0.127
0.042
0.151
0.181
0.384
0.221
-0.168
-0.527
-0.354
0.039
0.304
0.256
0.131
-0.005
0.018
-0.330
-0.041
0.447
-0.170
-0.255
0.047
0.193
0.084
0.201
-0.023
-0.057
0.143
0.090
0.052
0.029
-0.017
-0.127
-0.135
-0.097
0.100
0.165
0.160
0.137
0.049
0.039
-0.049
0.004
0.101
1.026
-0.390
-1.461
-0.235
0.484
0.603
0.360
0.080
-0.167
-0.135
-0.081
-0.056
0.008
0.057
0.016
-0.070
-0.030
0.149
0.220
0.183
0.051
0.026
-0.005
-0.002
-0.019
0.010
-0.003
-0.022
0.074
0.024
-0.131
0.018
-0.082
0.043
0.139
0.050
-0.051
-0.004
0.053
0.107
0.075
0.046
-0.046
-0.160
-0.106
0.119
0.307
0.363
-0.046
-0.412
-0.323
0.054
0.388
0.250
0.164
-0.014
-0.133
0.010
-0.018
0.065
0.067
0.169
0.611
0.012
-0.308
-0.190
-0.662
0.071
0.750
1.392
0.128
-1.565
-0.655
-0.090
0.093
0.442
0.419
0.294
-0.193
-0.224
-0.067
0.106
0.115
0.071
-0.056
0.013
0.135
0.157
0.100
0.124
-0.031
-0.030
0.004
-0.004
-0.001
0.054
-0.040
0.084
0.097
-0.015
-0.069
0.086
0.060
0.007
-0.101
-0.016
0.024
0.129
0.142
0.060
-0.044
-0.041
0.000
-0.003
0.048
0.118
0.034
0.043
-0.091
0.035
-0.032
0.086
0.044
0.052
0.054
-0.020
-0.006
0.023
0.045
-0.009
0.012
-0.032
0.079
1.000
0.549
-1.613
-1.226
0.042
0.832
0.857
0.380
-0.111
-0.355
-0.059
0.313
-0.262
-0.511
-0.052
0.451
0.402
-0.007
-0.218
-0.085
0.010
0.202
0.256
0.045
-0.014
0.217
-0.390
-0.772
0.218
0.597
0.325
0.023
0.008
0.137
-0.276
-0.500
0.172
0.496
0.391
0.094
-0.078
-0.191
-0.128
-0.031
0.009
0.092
0.068
0.010
0.012
0.064
0.047
-0.014
0.040
0.000
0.111
1.102
-0.482
-1.510
-0.132
0.500
0.575
0.385
-0.021
-0.026
-0.154
-0.047
-0.046
-0.092
0.068
0.132
0.244
0.273
-0.069
-0.493
-0.260
0.165
0.414
0.319
0.048
-0.064
-0.077
-0.176
-0.091
0.025
0.214
0.132
0.063
-0.061
-0.006
0.426
0.237
-0.427
-0.356
0.068
0.172
0.098
0.128
0.180
-0.039
-0.047
-0.086
-0.090
-0.063
-0.063
0.076
0.156
0.157
0.086
-0.039
-0.013
0.020
-0.021
0.015
0.093
-0.037
0.064
0.024
-0.051
-0.012
0.139
0.150
0.088
0.858
-0.536
-1.471
-0.084
0.536
0.607
0.416
0.205
-0.342
-0.494
0.099
0.161
-0.101
-0.047
0.114
0.158
0.258
0.544
-0.427
-0.546
0.350
0.512
0.154
-0.041
-0.129
-0.071
-0.148
-0.028
0.170
0.052
0.041
-0.016
-0.027
-0.024
0.042
-0.037
-0.010
0.118
0.074
0.009
-0.015
0.142
0.118
0.057
-0.091
-0.465
-0.225
0.233
0.474
0.263
0.042
-0.038
0.345
0.025
-0.615
-0.418
0.237
0.334
0.107
0.119
0.275
1.139
-0.621
-1.429
-0.103
0.386
0.512
0.219
0.113
-0.062
-0.112
-0.021
0.034
0.007
-0.100
0.011
0.019
0.211
0.144
0.002
0.068
0.073
0.014
-0.005
-0.024
-0.045
0.025
0.003
0.033
0.067
0.105
0.025
0.145
0.009
-0.051
0.044
0.002
0.009
0.137
-0.004
-0.333
-0.067
0.341
0.287
0.182
-0.024
-0.002
-0.161
-0.109
-0.006
-0.073
0.113
0.202
0.174
0.076
-0.062
-0.080
0.036
-0.084
-0.037
0.127
0.056
0.059
0.075
0.019
0.062
0.097
0.179
0.144
-0.157
0.532
-0.117
-1.187
0.122
-0.098
0.663
0.839
-0.221
-0.374
-0.187
0.075
-0.088
-0.014
0.058
0.165
0.037
0.094
0.122
0.095
0.078
0.026
0.156
0.066
0.054
-0.006
0.039
-0.054
-0.008
-0.062
-0.068
-0.021
0.116
0.268
0.121
-0.108
-0.097
0.012
0.035
0.049
-0.010
0.078
0.091
-0.062
0.012
0.212
0.098
0.031
-0.055
-0.057
-0.135
0.036
0.081
0.020
0.003
0.038
0.033
0.055
0.354
1.127
-0.680
-1.420
-0.121
0.491
0.603
0.234
0.127
-0.004
-0.164
-0.152
-0.159
-0.042
0.051
0.044
0.169
0.205
0.160
0.077
0.075
-0.270
-0.277
0.151
0.396
0.201
0.238
0.065
-0.318
-0.353
-0.193
0.083
0.294
0.261
0.250
0.442
-0.365
-0.634
-0.159
0.094
0.255
0.206
0.184
-0.008
-0.039
-0.052
-0.053
-0.019
0.061
0.045
0.058
0.098
-0.031
0.073
0.006
0.059
0.057
0.031
0.018
0.075
-0.063
-0.076
0.293
0.046
-0.712
0.039
0.605
0.387
-0.054
-0.008
0.932
-0.356
-1.547
-0.371
0.410
0.655
0.465
0.167
-0.088
-0.187
-0.174
-0.116
-0.128
0.019
0.120
0.136
0.075
0.090
0.084
0.089
0.097
0.053
0.097
0.102
0.048
0.057
-0.037
0.034
-0.026
0.038
0.020
-0.111
-0.038
0.004
0.030
0.061
0.047
0.059
0.037
0.054
-0.031
0.082
0.029
-0.020
0.005
-0.056
-0.064
0.120
-0.182
-0.080
0.331
0.298
0.136
0.020
0.088
-0.134
-0.389
-0.311
-0.009
0.347
0.316
0.217
0.591
-0.060
-0.742
-0.534
0.015
0.137
0.375
1.263
-0.184
-1.362
-0.349
0.346
0.388
0.169
0.188
0.096
-0.006
0.040
-0.136
-0.113
0.022
0.016
0.126
0.171
0.155
0.041
-0.010
-0.004
-0.052
0.005
-0.089
0.135
0.072
0.025
-0.061
-0.050
0.083
0.122
-0.077
-0.007
0.022
0.096
0.086
0.003
0.027
0.044
-0.047
-0.051
0.002
-0.007
0.112
0.031
0.052
0.096
0.298
-0.731
-0.352
0.597
0.441
0.151
-0.037
-0.065
-0.049
-0.047
-0.117
0.046
0.095
0.178
0.153
-0.000
0.037
0.819
0.432
-1.431
-0.845
0.192
0.588
0.454
0.187
0.018
-0.114
0.048
-0.428
-0.327
0.221
0.418
0.176
0.028
0.008
0.033
0.020
0.326
0.278
-0.362
-0.505
-0.012
0.334
0.329
0.115
0.008
-0.126
-0.137
-0.110
0.065
0.537
-0.054
-0.444
-0.274
0.160
0.180
0.290
0.312
0.167
-0.007
-0.331
-0.361
-0.086
0.210
0.135
0.064
0.070
0.063
0.049
0.059
0.063
-0.015
0.032
0.110
-0.036
-0.035
0.017
0.032
0.059
0.027
0.087
0.130
-0.281
-0.146
1.240
-0.161
-1.255
-0.251
0.353
0.447
0.259
-0.038
-0.020
-0.051
-0.063
-0.086
-0.019
0.077
0.140
0.078
0.159
0.080
0.100
-0.026
0.054
0.174
0.078
0.020
-0.049
0.017
0.047
-0.001
-0.083
0.047
0.085
0.019
0.007
-0.082
-0.060
0.115
0.070
0.129
-0.034
0.014
-0.020
0.073
-0.007
-0.024
-0.091
-0.147
0.078
0.141
0.197
0.387
0.081
0.073
0.187
0.314
-0.477
-0.958
-0.282
0.570
0.573
0.267
0.075
0.023
-0.071
-0.139
-0.066
0.363
0.792
-1.130
-0.598
-0.183
-0.140
0.741
0.735
0.368
-0.082
-0.340
-0.185
-0.160
-0.119
0.065
0.125
0.102
0.093
0.189
0.187
0.096
0.001
-0.166
-0.075
0.032
0.043
-0.016
0.095
-0.026
-0.038
-0.008
0.065
0.030
0.053
-0.017
0.033
0.010
0.034
0.062
0.229
-0.009
-0.386
-0.092
0.399
0.245
-0.013
-0.094
-0.143
-0.069
0.054
0.003
0.056
0.001
0.130
-0.069
0.014
-0.017
0.056
0.095
0.039
-0.053
0.193
0.944
-0.766
-1.336
0.004
0.474
0.593
0.469
0.215
0.094
-0.301
-0.420
0.103
-0.166
-0.274
0.092
0.343
0.239
0.183
0.108
-0.022
0.025
-0.092
-0.061
-0.028
-0.014
0.020
0.124
0.110
-0.019
-0.085
0.078
0.181
0.238
0.054
-0.069
-0.109
-0.146
0.013
0.063
0.024
0.038
0.053
-0.074
0.001
0.051
0.024
0.052
0.083
-0.064
0.006
-0.027
-0.059
-0.056
0.121
0.134
0.229
0.154
-0.041
0.023
0.014
-0.038
-0.026
-0.002
0.017
0.156
0.037
1.164
-0.226
-1.347
-0.137
0.652
0.094
-0.308
-0.066
0.094
0.234
0.147
0.017
0.076
-0.425
-0.243
0.259
0.330
0.188
0.051
0.018
0.020
-0.091
0.131
0.203
0.365
0.163
-0.006
-0.476
-0.341
-0.021
0.276
0.221
0.113
0.024
-0.131
-0.029
-0.031
0.005
0.022
0.046
0.109
0.138
0.013
0.052
-0.009
0.034
0.028
0.030
0.038
0.047
0.056
0.038
0.040
0.048
0.020
0.146
0.044
-0.064
-0.013
-0.042
-0.003
0.004
0.081
0.575
0.876
-1.048
-1.350
0.039
0.661
0.672
0.199
0.017
-0.026
-0.291
-0.178
0.054
0.079
0.293
0.083
0.039
-0.013
-0.004
0.068
0.108
0.187
0.080
0.054
-0.062
0.026
0.086
0.028
-0.057
-0.080
-0.011
0.223
0.620
-0.239
-0.645
-0.251
0.125
0.304
0.284
0.319
0.091
-0.344
-0.580
-0.120
0.374
0.394
0.089
-0.136
-0.149
0.003
0.053
0.120
0.063
0.074
-0.104
-0.337
0.083
0.412
0.691
-0.316
-0.679
0.174
0.441
0.213
0.025
-0.034
-0.052
-0.021
-0.013
0.534
0.705
-1.150
-1.039
0.242
0.533
0.500
0.119
-0.031
-0.246
-0.127
-0.005
-0.009
0.116
0.061
0.038
0.032
0.089
0.131
0.097
0.087
0.068
0.112
-0.047
0.029
0.070
0.044
-0.115
-0.041
-0.184
-0.058
0.210
0.225
0.251
-0.025
-0.064
-0.027
-0.019
0.062
-0.027
0.052
0.051
0.080
0.058
0.048
0.031
0.032
0.015
-0.022
0.053
-0.114
-0.013
0.008
0.052
0.121
0.261
0.254
0.199
-0.304
-0.509
0.688
0.412
-0.931
-0.129
0.886
0.145
-0.330
-0.192
0.057
0.101
0.082
0.105
-0.082
-0.018
0.179
0.474
-0.610
-0.349
0.500
0.468
0.108
-0.172
-0.049
0.107
0.146
-0.338
-0.176
0.242
0.306
0.185
0.016
-0.109
-0.143
-0.146
0.136
0.113
0.119
0.144
0.052
-0.007
0.051
-0.010
0.033
0.012
0.076
-0.010
-0.025
0.065
0.050
0.086
-0.031
0.032
0.027
0.081
0.054
0.003
-0.008
0.038
0.003
0.021
0.105
0.102
0.047
0.041
-0.038
0.022
0.077
0.028
0.903
0.193
-1.327
-0.424
0.229
0.520
0.413
0.147
0.057
-0.187
-0.256
-0.023
0.049
0.192
0.049
0.118
0.098
0.087
0.092
0.186
-0.011
-0.048
-0.191
-0.268
-0.018
0.344
0.131
-0.063
0.052
-0.031
-0.016
-0.055
-0.066
0.032
0.049
0.103
0.128
0.178
0.105
0.134
0.054
-0.044
-0.127
-0.096
0.046
0.158
0.176
0.019
-0.021
0.018
0.068
-0.014
-0.096
-0.174
0.041
0.184
0.248
0.588
-0.672
-0.937
0.427
1.787
0.231
-1.507
-0.716
0.066
0.354
0.331
0.172
0.149
0.020
0.025
-0.147
-0.052
0.013
0.053
0.059
0.078
0.014
0.030
0.061
0.054
-0.007
0.055
0.067
0.107
0.068
-0.013
-0.053
-0.022
0.009
-0.056
0.037
0.120
0.083
0.095
0.012
-0.049
0.017
0.203
0.216
0.210
-0.057
-0.389
-0.509
-0.147
0.277
0.471
0.227
0.259
0.332
-0.533
-0.799
-0.139
0.343
0.221
0.201
0.139
0.890
0.252
-1.448
-0.686
0.162
0.603
0.527
0.148
-0.104
-0.099
-0.124
-0.044
-0.054
0.059
0.060
0.054
0.075
0.110
-0.008
0.071
0.103
0.170
0.086
-0.058
-0.174
-0.056
0.012
0.025
0.113
0.014
0.029
-0.055
-0.054
0.285
0.027
-0.696
0.048
0.546
0.374
0.107
-0.008
-0.092
-0.083
-0.078
0.092
-0.009
-0.420
0.141
0.392
0.216
0.010
-0.108
-0.140
-0.029
0.064
0.044
0.140
0.110
0.018
0.017
-0.014
0.004
0.060
0.059
0.039
-0.002
-0.061
0.033
0.122
0.240
0.230
-0.001
0.444
-0.804
-1.167
0.290
1.133
0.796
-0.396
-0.565
-0.317
-0.018
0.204
0.250
0.197
0.074
-0.099
0.009
0.005
0.015
0.132
0.062
0.195
0.144
0.155
0.041
0.112
-0.037
-0.055
-0.086
-0.004
0.038
-0.009
0.054
0.001
0.006
0.028
0.047
0.030
0.004
0.019
-0.058
0.047
0.192
0.148
-0.031
-0.258
-0.145
0.190
0.189
0.137
1.093
0.040
-1.501
-0.619
0.311
0.591
0.446
0.120
0.008
-0.132
-0.223
-0.048
-0.048
0.150
0.424
-0.559
-0.369
0.489
0.517
0.383
0.223
-0.292
-0.553
-0.744
-0.061
0.744
0.685
0.248
-0.126
-0.283
-0.123
-0.130
-0.096
0.126
0.084
0.077
0.191
0.008
0.133
0.121
-0.030
-0.062
-0.032
0.064
0.042
-0.119
-0.122
0.132
0.256
0.054
0.265
0.282
-0.443
-0.480
-0.054
0.154
0.240
0.275
0.132
0.055
-0.019
-0.108
-0.073
-0.040
-0.015
0.135
0.513
0.792
-0.992
-1.158
0.275
0.565
0.543
0.156
0.068
-0.075
-0.083
-0.181
-0.104
-0.059
0.002
0.124
0.152
0.172
0.136
0.025
0.032
0.085
0.058
0.007
-0.037
-0.043
-0.010
-0.033
0.028
0.128
0.081
-0.021
0.040
-0.022
-0.055
-0.134
-0.082
0.115
0.203
0.203
0.274
0.051
-0.354
-0.483
-0.151
0.294
0.338
0.231
0.070
0.057
0.004
-0.039
0.015
-0.447
0.042
0.356
0.324
0.126
0.085
0.030
0.260
-0.691
-0.582
0.394
0.502
0.208
0.139
1.026
-0.178
-1.196
-0.888
-0.103
0.526
0.583
0.194
-0.034
-0.103
0.090
-0.198
-0.135
-0.063
0.004
0.098
0.015
0.064
0.155
0.177
0.158
0.105
0.056
-0.069
0.049
0.027
-0.055
-0.049
0.023
0.040
0.141
0.083
0.022
-0.024
-0.131
-0.133
0.142
0.275
0.212
0.018
0.003
-0.044
-0.034
-0.017
0.073
0.037
0.129
0.068
0.074
-0.007
0.105
0.091
0.021
-0.003
-0.029
-0.047
0.038
0.014
0.001
0.056
0.137
0.536
0.930
-0.797
-1.099
-0.211
0.045
0.427
0.397
0.482
0.232
-0.100
-0.183
-0.223
-0.255
-0.161
0.004
0.229
0.273
0.304
0.198
0.147
0.011
-0.050
-0.010
-0.080
0.023
0.565
0.155
-0.579
-0.351
0.128
0.151
0.198
0.141
0.027
-0.050
0.064
0.124
-0.385
-0.096
0.321
0.290
0.177
-0.071
-0.133
-0.028
0.109
0.166
0.512
-0.659
-0.600
0.420
0.603
0.286
0.018
-0.168
-0.138
-0.099
0.021
0.069
-0.009
0.062
0.138
0.121
0.094
0.049
-0.030
0.019
-0.047
-0.011
-0.041
-0.025
0.748
0.588
-1.273
-0.781
0.243
0.414
0.296
0.189
0.065
0.002
-0.077
-0.098
-0.073
-0.063
0.001
0.051
0.071
0.043
0.215
0.211
0.014
0.009
0.048
0.000
0.079
0.049
0.039
-0.006
0.025
0.054
0.044
0.044
0.208
0.089
-0.129
-0.416
-0.286
0.132
0.353
0.183
0.011
0.174
0.073
-0.282
-0.402
0.133
0.400
0.387
0.440
-0.441
-0.652
-0.005
0.372
0.161
-0.061
-0.098
0.073
0.094
0.089
0.018
-0.177
-0.060
0.004
0.112
0.014
-0.004
0.086
0.603
0.841
-1.041
-0.996
0.156
0.401
0.417
0.169
0.102
-0.314
0.093
-0.236
-0.527
0.269
0.550
0.129
-0.041
-0.017
-0.038
0.029
0.024
0.119
-0.075
-0.009
0.119
0.122
-0.003
0.050
-0.023
-0.020
0.015
-0.072
-0.104
0.052
0.032
0.015
0.168
0.087
0.023
0.025
0.004
-0.034
0.073
-0.016
0.040
-0.039
0.105
0.024
-0.041
-0.017
-0.055
0.109
0.007
0.017
-0.011
0.002
0.003
0.061
-0.037
0.016
0.084
0.070
0.040
0.173
0.106
-0.254
0.676
0.313
-1.175
-0.456
0.448
0.775
0.371
-0.331
-0.575
-0.222
0.141
0.528
0.783
-0.254
-0.676
-0.213
0.054
0.213
0.265
0.207
0.236
-0.324
-0.282
0.227
0.358
0.085
-0.040
-0.006
-0.002
-0.094
-0.168
-0.093
0.026
0.123
0.126
0.029
-0.041
-0.099
0.186
0.108
0.120
0.059
-0.038
-0.043
0.034
0.090
0.043
0.130
0.182
-0.073
-0.082
0.167
0.203
0.080
-0.053
-0.080
-0.190
-0.041
0.022
0.155
0.110
0.022
0.072
0.022
0.002
-0.061
-0.004
0.071
0.026
0.006
0.050
-0.066
0.037
0.049
0.747
0.524
-1.210
-0.747
0.191
0.468
0.588
0.303
-0.755
-0.236
0.459
0.425
-0.013
-0.079
-0.111
-0.089
0.050
0.079
0.107
0.134
0.161
0.028
0.094
0.065
-0.089
-0.077
-0.034
-0.024
0.062
-0.022
0.048
0.010
-0.034
0.059
0.308
0.385
-0.401
-0.554
-0.028
0.270
0.295
0.205
0.133
0.021
-0.112
-0.046
-0.096
0.021
0.057
0.223
0.164
0.015
-0.464
-0.330
0.057
0.400
0.345
0.164
-0.067
-0.147
-0.014
-0.410
-0.125
0.294
0.331
0.187
0.000
-0.055
-0.043
0.670
0.637
-1.239
-0.933
0.341
0.706
0.454
0.026
-0.222
-0.233
-0.024
-0.169
-0.024
0.101
0.206
0.147
-0.032
-0.003
0.017
0.001
0.128
0.149
0.039
-0.020
-0.055
0.008
0.025
0.119
0.003
-0.084
-0.015
0.009
0.098
0.014
-0.032
-0.049
-0.040
0.067
0.130
0.062
0.079
0.045
0.020
0.115
-0.012
-0.051
-0.035
-0.005
0.074
0.060
0.018
0.008
-0.090
-0.024
0.427
-0.230
-0.677
0.192
0.470
0.244
0.084
0.099
-0.019
-0.076
-0.098
0.357
0.411
-0.369
-0.423
0.015
0.194
0.202
0.152
0.092
-0.022
-0.069
0.041
0.935
-0.365
-1.486
-0.486
0.553
0.657
0.416
0.164
-0.044
-0.141
-0.072
-0.109
0.012
0.081
0.052
0.202
0.364
0.125
-0.323
-0.348
-0.082
0.273
0.521
0.143
-0.140
-0.126
-0.085
-0.081
0.003
0.119
0.044
0.085
0.044
0.181
-0.025
-0.391
0.176
0.378
0.231
0.083
-0.286
-0.163
0.111
0.180
0.084
-0.041
-0.053
-0.034
-0.045
-0.003
0.022
0.036
0.044
0.103
0.026
-0.007
-0.091
0.067
0.021
-0.066
-0.154
0.030
0.105
0.094
0.803
0.598
-1.249
-0.895
0.178
0.616
0.435
0.157
-0.025
-0.101
-0.082
-0.066
0.012
0.042
0.170
0.053
0.090
0.145
0.077
0.017
-0.079
-0.051
0.132
0.543
-0.146
-0.502
-0.203
0.154
0.102
0.039
0.098
-0.014
-0.019
0.006
0.409
-0.578
-0.643
0.434
0.575
0.176
-0.078
-0.063
-0.010
0.021
0.246
0.117
-0.150
-0.440
-0.181
0.176
0.350
0.193
0.032
-0.081
0.003
0.029
-0.070
-0.057
0.017
0.026
0.102
0.137
0.133
0.017
0.052
0.039
0.080
0.170
0.001
-0.441
-0.028
0.346
0.225
0.046
-0.132
0.001
-0.165
0.465
1.038
-0.937
-1.088
0.132
0.528
0.444
0.019
-0.175
0.121
0.101
0.053
-0.061
-0.186
-0.007
0.110
0.062
0.097
0.060
0.072
0.082
0.078
-0.013
0.017
0.043
-0.017
-0.021
0.008
0.007
0.016
-0.085
-0.017
0.080
0.054
0.091
-0.059
0.008
0.154
0.146
0.190
0.543
0.034
-0.574
-0.326
0.040
0.085
0.009
0.282
0.123
0.025
0.014
-0.034
-0.084
-0.021
0.046
0.035
-0.019
-0.015
0.084
0.197
0.127
0.095
0.051
0.070
-0.001
0.713
0.409
-1.302
-0.785
0.173
0.567
0.517
0.018
-0.121
-0.071
0.026
0.149
0.048
-0.329
-1.341
-0.083
1.219
1.048
0.282
-0.318
-0.365
-0.225
-0.077
0.047
0.061
0.091
0.205
0.138
0.182
0.037
-0.206
-0.018
0.109
0.103
-0.017
-0.067
-0.081
0.030
-0.013
0.010
0.084
0.088
0.076
0.002
0.062
0.017
-0.065
-0.043
0.031
-0.003
-0.039
-0.012
0.065
0.069
0.031
0.073
0.045
-0.026
0.067
0.034
0.147
0.075
-0.099
-0.168
-0.045
0.070
0.136
0.226
0.089
0.055
0.052
-0.101
0.014
0.263
0.240
-0.357
-0.339
0.921
0.371
-1.228
-0.526
0.412
0.492
0.324
0.025
-0.127
-0.133
-0.158
-0.076
-0.017
0.073
0.104
0.247
0.137
0.107
0.083
0.074
0.011
-0.016
0.060
-0.016
-0.038
-0.013
0.102
0.014
0.006
-0.002
0.033
0.080
0.019
-0.079
-0.146
-0.086
0.149
0.181
0.071
-0.025
0.019
0.106
0.270
0.182
-0.214
-0.469
-0.193
0.206
0.495
0.329
-0.032
-0.058
-0.121
-0.033
0.074
0.121
-0.275
-0.031
0.359
0.111
0.162
0.144
0.089
0.970
0.003
-1.422
-0.133
-0.336
0.285
0.850
0.536
0.072
-0.217
-0.241
-0.224
-0.160
-0.070
0.040
0.123
0.230
0.215
0.011
-0.127
-0.065
0.047
0.148
0.059
0.016
0.065
-0.023
0.061
-0.004
-0.065
-0.045
0.081
0.120
0.240
0.077
0.026
-0.041
-0.080
0.020
0.036
0.011
0.109
0.046
0.089
0.052
0.140
0.608
-0.106
-0.674
-0.335
0.124
0.192
0.218
0.114
0.058
0.059
-0.024
-0.070
-0.020
-0.078
-0.013
0.071
0.033
0.012
0.081
0.146
0.887
0.271
-1.438
-0.379
0.465
0.624
-0.004
-0.337
-0.076
0.281
0.223
-0.031
-0.116
-0.116
-0.066
-0.063
0.121
0.146
0.144
0.058
0.146
0.131
0.073
0.009
-0.043
0.013
-0.020
0.057
0.158
-0.078
-0.268
-0.201
-0.027
0.183
0.163
0.140
0.092
0.028
0.084
-0.017
-0.240
-0.010
0.193
0.257
0.123
0.035
-0.001
0.033
0.040
0.041
0.012
-0.004
-0.039
0.017
0.053
-0.000
0.039
0.110
0.065
0.171
-0.254
-0.214
0.186
0.317
0.224
0.051
-0.127
0.164
1.042
-0.267
-1.687
-0.367
0.614
0.745
0.478
0.138
0.003
-0.365
-0.239
-0.145
0.009
-0.005
0.047
0.094
0.098
0.080
0.129
0.179
-0.014
-0.010
-0.036
0.174
0.270
0.026
-0.436
-0.475
-0.002
0.226
0.442
0.217
-0.018
-0.050
-0.114
-0.010
0.030
0.188
0.135
-0.023
-0.017
0.060
0.062
0.061
0.068
-0.054
0.087
-0.030
0.056
-0.039
-0.107
0.053
0.020
0.123
0.042
0.004
-0.080
0.006
0.064
-0.028
0.069
0.018
0.000
0.087
0.082
0.025
-0.028
0.081
0.033
0.174
1.069
-0.479
-1.487
-0.271
0.533
0.759
0.428
-0.029
-0.214
-0.086
-0.144
-0.088
-0.018
0.054
0.088
0.148
0.168
0.200
0.082
-0.073
-0.227
-0.009
0.052
0.207
0.104
0.087
0.071
-0.077
-0.161
0.042
0.133
0.115
0.235
-0.307
-0.257
0.188
0.351
0.563
0.256
-0.676
-0.476
-0.002
0.201
0.201
0.115
0.257
0.080
-0.217
-0.222
0.035
0.268
0.451
-0.940
-0.923
0.513
0.801
0.580
0.108
-0.127
-0.102
-0.121
-0.138
-0.035
0.102
0.138
0.095
0.108
-0.003
0.002
0.044
0.018
0.073
0.965
-0.193
-1.415
-0.275
0.375
0.475
0.282
0.193
-0.055
-0.051
-0.119
-0.135
0.080
-0.019
0.044
0.027
0.046
0.095
0.056
0.049
0.121
0.011
-0.080
-0.023
0.089
0.041
0.018
-0.021
-0.005
-0.021
0.180
-0.200
-0.004
0.240
0.213
0.081
-0.087
0.066
-0.035
-0.078
0.014
0.126
0.085
0.057
-0.022
-0.018
0.049
0.055
0.022
-0.109
-0.071
0.123
0.145
0.078
-0.083
-0.032
0.520
0.113
-0.423
-0.233
0.105
0.241
0.139
0.031
0.040
1.021
-0.489
-1.355
-0.019
0.620
0.790
0.184
-0.589
-0.341
-0.110
-0.081
0.286
0.356
0.275
-0.025
-0.109
-0.093
-0.066
-0.010
0.148
0.136
0.178
0.135
0.062
0.004
0.016
0.028
0.065
-0.060
-0.010
-0.068
0.015
0.092
-0.017
0.017
0.004
0.000
0.005
0.142
0.021
-0.023
0.061
-0.004
0.206
0.316
-0.656
-0.304
0.458
0.416
0.228
-0.051
-0.110
-0.056
-0.050
-0.044
-0.031
0.081
0.184
0.021
0.024
0.097
0.069
0.001
-0.017
0.064
-0.003
0.032
-0.063
0.012
0.086
0.075
0.087
-0.016
-0.105
0.044
0.001
0.097
0.134
0.981
-0.035
-1.603
-0.402
0.577
0.786
0.464
0.513
-0.125
-0.757
-0.538
-0.020
0.159
0.220
0.268
0.180
0.054
-0.021
-0.090
-0.089
0.024
0.001
0.027
-0.001
0.122
0.126
0.129
0.102
0.005
0.057
-0.070
0.040
0.138
0.236
0.191
-0.094
-0.533
-0.386
-0.001
0.309
0.325
0.179
0.130
0.091
-0.066
-0.250
-0.171
-0.124
0.170
0.264
-0.243
-0.067
0.285
0.306
0.098
-0.132
-0.142
-0.039
-0.059
0.136
0.112
0.128
0.063
0.079
0.020
0.039
0.076
1.061
-0.629
-1.422
-0.081
0.439
0.552
0.327
0.002
-0.020
-0.136
-0.172
-0.128
-0.038
0.094
0.103
0.204
0.177
0.093
0.058
-0.024
-0.062
-0.027
0.060
0.096
0.024
0.135
-0.014
-0.016
-0.003
0.027
0.078
0.310
-0.695
-0.324
0.703
1.001
-0.049
-0.740
-0.347
0.095
0.123
0.151
0.235
0.126
0.230
-0.057
-0.073
-0.055
-0.128
-0.110
0.025
0.063
0.096
0.104
0.030
0.025
-0.055
-0.092
0.109
0.073
0.039
0.032
-0.002
0.057
0.062
0.642
0.817
-1.054
-0.817
0.260
0.244
-0.072
0.047
0.343
0.308
0.047
-0.137
-0.155
-0.017
-0.082
-0.384
0.097
0.369
0.279
0.144
0.058
0.029
-0.181
-0.094
0.030
0.168
0.097
-0.043
-0.005
-0.092
-0.053
0.045
0.116
-0.031
0.014
-0.049
0.019
0.052
0.088
0.077
0.048
0.106
0.078
0.078
0.027
-0.020
-0.016
-0.027
-0.025
0.051
0.002
0.013
-0.022
0.027
-0.079
-0.003
0.036
0.008
0.005
0.087
0.289
0.462
-0.325
-0.625
-0.052
0.141
0.189
0.136
0.278
1.183
-0.552
-1.638
-0.275
0.520
0.611
0.388
0.033
0.029
-0.062
-0.130
-0.115
0.039
0.124
0.130
0.182
-0.015
0.034
0.053
0.053
0.022
-0.007
0.108
0.081
0.498
-0.086
-0.852
-0.393
0.221
0.390
0.414
0.301
-0.043
-0.118
-0.222
-0.455
0.007
0.328
0.337
0.152
0.001
-0.103
-0.027
-0.003
0.147
0.049
-0.045
-0.048
-0.023
-0.021
0.025
0.153
0.080
0.024
-0.031
-0.022
0.031
0.037
0.019
0.020
0.686
0.524
-1.174
-0.785
0.242
0.513
0.447
0.163
0.069
-0.158
-0.035
-0.052
-0.108
-0.233
-0.136
0.142
0.162
0.192
0.116
0.041
0.032
0.082
-0.004
-0.048
0.067
0.341
-0.212
-0.461
0.076
0.276
0.257
0.124
0.032
-0.055
-0.058
-0.103
0.022
-0.038
0.104
0.052
0.049
0.000
-0.038
-0.116
-0.024
0.226
0.119
0.102
-0.088
-0.171
-0.084
0.056
0.075
0.000
0.032
0.078
0.041
0.089
0.087
0.013
-0.094
-0.085
0.252
0.283
-0.105
-0.645
-0.169
1.224
0.070
-0.989
-0.067
0.133
0.308
0.159
-0.015
0.003
0.032
-0.052
0.092
-0.102
-0.289
0.219
0.367
0.320
0.419
-0.186
-0.743
0.011
0.479
0.371
0.091
-0.048
-0.109
-0.061
-0.026
-0.078
-0.001
0.096
0.025
0.007
0.017
-0.002
-0.041
0.061
0.010
0.035
0.043
-0.010
-0.082
0.007
0.030
0.123
0.229
0.460
-0.329
-0.501
-0.067
0.133
0.202
0.269
0.164
0.002
-0.040
-0.056
-0.019
0.131
0.084
-0.071
0.286
0.887
-0.857
-1.007
0.206
0.517
0.506
0.173
-0.011
-0.103
-0.107
-0.108
-0.200
0.055
0.148
0.022
0.032
0.152
0.162
0.121
0.142
0.053
-0.029
-0.082
-0.039
-0.001
-0.100
-0.019
0.120
0.122
0.081
0.160
0.149
0.099
-0.265
-0.461
-0.118
0.265
0.304
0.160
-0.010
0.067
-0.062
-0.091
-0.051
0.048
0.046
0.063
0.091
0.022
0.144
0.054
0.123
0.044
0.024
0.024
-0.007
-0.056
-0.018
-0.019
0.068
0.051
0.018
0.008
0.120
-0.048
0.811
-0.336
-0.866
0.384
-0.078
0.241
-0.258
-0.336
0.541
0.499
0.139
-0.095
-0.203
-0.131
-0.132
0.012
0.032
0.129
0.289
0.130
0.125
0.020
0.034
-0.019
-0.074
-0.038
0.027
-0.012
0.035
-0.018
-0.053
0.045
0.041
0.134
0.123
-0.061
-0.074
-0.061
0.052
0.093
0.143
0.106
-0.091
0.004
0.018
0.009
-0.053
0.026
0.101
0.008
0.074
0.031
0.021
0.033
0.003
-0.005
0.020
-0.073
-0.104
0.181
0.168
0.124
0.001
-0.076
-0.055
-0.109
0.126
0.160
0.168
0.063
0.075
0.022
0.033
-0.068
-0.114
-0.104
0.740
0.636
-1.107
-0.776
0.309
0.772
0.364
-0.296
-0.457
-0.219
0.178
0.200
0.016
0.041
0.010
0.030
0.091
0.124
0.079
0.060
0.114
0.009
0.027
0.129
0.042
-0.007
0.186
0.471
-0.447
-0.596
-0.081
0.106
0.239
0.121
-0.287
0.073
0.289
0.215
-0.030
-0.213
-0.092
0.153
0.177
0.044
0.070
0.050
0.066
0.085
0.142
0.339
-0.560
-0.402
0.499
0.415
0.132
-0.106
-0.150
-0.056
-0.148
-0.041
0.168
0.112
0.077
0.054
0.031
0.038
-0.042
-0.004
-0.030
0.084
-0.004
0.950
-0.227
-1.424
-0.146
0.417
0.594
0.320
0.071
-0.015
-0.105
-0.127
-0.145
-0.063
-0.029
0.069
0.264
0.222
0.134
-0.022
-0.100
0.009
0.017
-0.020
0.198
0.179
-0.339
-0.090
0.323
0.390
0.026
0.051
0.163
0.033
-0.576
-0.620
-0.122
0.309
0.558
0.372
0.091
-0.058
-0.135
-0.232
-0.148
-0.088
0.056
0.070
0.319
0.665
-0.041
-0.711
-0.330
0.188
0.260
0.204
0.160
0.030
0.023
-0.079
-0.128
-0.031
-0.015
0.108
0.088
0.005
0.107
0.062
0.114
0.041
-0.044
0.002
0.018
0.853
0.338
-1.271
-0.752
0.207
0.398
0.389
0.106
-0.022
-0.048
-0.049
-0.142
-0.036
-0.021
0.041
0.112
0.163
0.095
0.096
0.019
0.073
0.057
0.100
-0.019
-0.118
-0.006
0.031
0.047
0.022
0.036
-0.081
-0.065
0.092
0.025
0.034
-0.002
-0.011
0.063
0.071
0.099
0.074
0.108
0.286
-0.679
-0.265
0.546
0.432
0.142
-0.045
-0.172
-0.076
-0.248
-0.013
0.235
0.211
0.180
-0.065
-0.091
-0.113
0.011
0.027
0.005
0.116
0.099
0.011
-0.092
0.056
0.455
1.038
-0.950
-1.773
-0.233
0.812
0.735
0.185
0.196
0.143
-0.057
-0.257
-0.248
-0.166
0.014
0.219
0.601
0.369
-0.443
-0.310
0.180
0.359
0.213
-0.084
-0.281
-0.107
0.007
-0.020
0.051
-0.007
-0.029
0.055
0.056
0.039
0.089
0.046
0.052
0.004
0.127
0.045
0.113
0.016
-0.077
0.075
0.042
-0.060
-0.042
0.064
-0.027
0.003
0.006
-0.016
0.028
0.147
0.024
-0.010
0.051
0.031
-0.001
0.073
-0.016
0.090
0.833
0.443
-1.329
-0.742
0.211
0.514
0.408
0.266
-0.208
-0.300
0.126
0.132
0.215
-0.052
-0.131
-0.039
0.040
0.132
0.128
0.146
0.112
0.034
0.128
-0.044
0.003
0.002
0.054
-0.041
0.039
0.044
-0.028
-0.035
-0.046
0.336
0.233
-0.642
-0.329
0.484
0.513
0.147
-0.049
-0.173
-0.000
0.074
0.061
0.057
0.017
0.027
0.024
0.096
0.083
0.229
0.241
-0.002
-0.510
-0.198
0.378
-0.132
-0.249
-0.045
0.169
0.077
0.025
0.098
0.078
0.034
-0.055
-0.026
0.048
0.116
0.046
0.036
0.149
0.053
0.110
0.542
0.960
-0.864
-1.061
-0.042
0.415
0.469
0.151
-0.081
-0.059
-0.120
-0.039
-0.024
-0.009
0.064
0.148
0.095
0.069
-0.087
0.014
0.156
0.075
0.076
0.108
0.001
-0.052
0.105
0.107
-0.093
-0.139
-0.149
0.069
0.088
0.115
0.066
0.005
0.097
-0.012
-0.020
0.082
0.034
0.069
0.182
0.014
0.211
-0.025
-0.376
0.058
0.342
0.283
0.029
-0.112
-0.077
-0.090
-0.062
0.072
0.117
0.089
0.108
0.086
-0.009
0.005
-0.017
-0.040
-0.049
0.054
0.040
0.027
0.101
0.030
0.042
0.032
0.047
-0.008
0.026
-0.014
-0.018
0.083
0.280
1.088
-0.284
-1.514
-0.263
0.427
0.657
0.350
0.071
-0.045
-0.059
0.104
-0.011
-0.364
-0.520
-0.044
0.455
0.393
0.087
-0.070
-0.065
-0.028
-0.032
-0.010
-0.013
-0.056
0.073
0.087
0.412
0.013
-0.752
-0.004
0.441
0.334
0.080
-0.058
-0.149
-0.055
0.319
0.296
-0.485
-0.542
0.081
0.164
0.070
0.215
0.237
0.090
-0.078
-0.115
-0.119
-0.126
-0.019
0.041
0.053
0.121
0.139
0.111
0.084
0.128
0.005
0.038
0.003
-0.020
0.044
0.010
0.032
0.074
-0.047
0.081
0.059
0.022
0.016
0.010
-0.057
0.012
0.048
0.092
0.109
-0.005
-0.020
0.053
0.499
0.847
-1.038
-1.136
-0.010
0.434
0.394
0.425
-0.091
-0.298
0.073
0.218
0.084
-0.229
-0.167
-0.021
0.086
0.176
0.240
0.224
0.091
-0.019
-0.023
0.010
0.076
0.069
-0.070
-0.198
-0.032
0.162
0.210
0.012
-0.059
-0.076
0.012
0.084
0.017
0.091
0.102
0.148
0.252
0.164
-0.133
-0.526
-0.291
0.106
0.393
0.304
0.094
-0.051
-0.116
-0.079
0.118
0.560
-0.105
-0.592
-0.220
0.143
0.232
0.257
0.190
0.706
1.016
-1.573
-1.879
0.225
1.103
0.727
0.228
-0.101
-0.153
-0.160
-0.142
-0.045
-0.017
0.083
0.157
0.110
0.195
0.038
0.029
-0.010
-0.048
0.017
0.003
0.053
0.042
-0.011
-0.066
-0.020
0.104
0.109
0.024
0.044
0.014
0.070
0.111
0.038
-0.058
-0.085
-0.024
0.149
0.135
0.123
-0.056
-0.145
0.016
0.046
0.055
0.226
0.071
-0.031
-0.153
-0.022
0.177
-0.190
-0.099
0.285
0.269
0.134
-0.059
-0.207
-0.034
-0.047
0.091
0.099
0.076
0.033
0.176
0.405
0.720
-1.023
-0.993
0.227
0.520
0.324
0.027
-0.077
-0.026
0.172
0.166
-0.059
-0.289
-0.525
-0.086
0.346
0.430
0.167
0.055
-0.018
-0.014
-0.037
-0.085
0.037
0.042
0.144
0.102
0.050
0.072
0.170
0.086
0.065
0.050
-0.099
-0.001
0.057
0.095
-0.044
-0.021
-0.105
-0.012
0.089
0.011
0.104
0.029
0.109
0.669
-0.154
-0.757
-0.395
0.193
0.312
0.189
0.285
0.056
-0.104
-0.091
-0.074
-0.078
0.014
0.041
0.049
0.287
0.088
0.190
0.147
0.046
0.098
0.036
-0.092
0.035
0.079
0.424
-0.562
-0.472
0.437
1.234
0.399
-1.435
-0.823
0.128
0.460
0.389
0.193
0.056
-0.092
-0.096
-0.097
-0.037
0.074
0.063
0.176
-0.253
-0.216
0.361
0.401
0.265
0.137
-0.012
-0.313
-0.596
-0.416
0.227
0.583
0.425
0.147
-0.040
-0.142
-0.079
-0.064
-0.089
-0.061
0.008
0.266
0.243
0.140
0.036
-0.037
0.014
-0.036
0.030
0.035
-0.049
-0.081
0.022
0.076
0.019
0.025
0.019
0.016
-0.011
0.034
0.001
0.012
0.062
0.038
-0.015
0.006
0.126
0.038
0.038
-0.013
0.103
0.826
1.041
-1.482
-1.530
0.034
0.669
0.725
0.433
0.090
-0.082
-0.263
-0.143
-0.108
-0.035
0.098
0.051
0.056
0.114
0.149
0.163
0.160
0.004
0.060
0.029
-0.041
-0.018
-0.033
-0.004
-0.006
0.043
0.066
0.084
-0.012
0.059
0.099
0.035
0.012
0.055
-0.035
0.097
-0.006
-0.033
-0.014
0.084
-0.020
0.069
0.073
0.080
0.020
0.008
-0.061
0.041
0.091
-0.015
-0.333
0.134
0.362
0.237
0.081
-0.167
-0.107
0.095
0.056
0.024
0.238
0.321
-0.212
-0.843
0.048
0.697
0.668
0.102
-0.247
-0.472
0.667
-0.116
-1.163
-0.016
0.447
0.468
0.324
0.083
0.008
-0.060
-0.145
-0.298
-0.104
0.078
0.177
0.114
0.220
0.140
0.246
0.168
-0.460
-0.290
0.108
0.096
-0.025
0.086
0.127
0.191
0.061
-0.096
-0.064
-0.044
-0.076
-0.041
0.062
0.098
0.170
0.083
0.029
0.074
0.009
0.015
-0.012
-0.073
0.052
0.159
0.045
0.118
0.021
0.010
0.087
0.034
-0.045
-0.049
-0.022
0.103
0.078
0.043
0.035
-0.052
0.053
-0.068
0.065
-0.045
0.047
-0.059
-0.125
0.615
0.872
-1.044
-0.997
0.177
0.491
0.424
0.165
0.038
-0.071
-0.079
-0.108
-0.060
0.002
0.089
0.139
0.028
0.061
0.127
0.100
0.036
0.048
0.002
0.013
-0.032
0.102
0.106
-0.373
-0.115
0.287
0.267
0.080
-0.086
-0.073
-0.040
-0.036
0.097
0.018
0.231
0.251
0.012
-0.369
-0.400
-0.008
0.389
0.233
0.184
0.031
-0.064
0.042
-0.048
-0.024
0.044
0.059
0.079
0.129
0.249
0.530
-0.206
-0.472
-0.093
0.042
0.088
1.226
-0.033
-1.445
-0.274
0.479
0.528
0.236
-0.113
-0.104
-0.091
0.001
-0.044
0.097
0.111
0.013
0.258
-0.012
-0.648
0.101
0.628
0.427
0.004
-0.154
-0.135
-0.093
-0.071
0.083
0.077
0.085
0.087
0.099
0.089
0.040
-0.042
0.043
-0.083
0.013
-0.076
0.062
0.026
0.087
0.088
0.081
-0.016
0.060
0.004
0.040
0.000
0.074
0.068
0.114
-0.011
-0.041
-0.033
0.031
-0.014
0.117
0.073
-0.015
0.015
0.075
0.055
0.031
0.034
-0.004
0.020
0.093
0.287
0.579
-0.841
-0.787
0.272
0.441
0.360
0.072
0.001
0.073
0.080
-0.178
-0.591
-0.401
0.193
0.540
0.515
0.159
-0.037
-0.041
-0.132
-0.101
0.028
0.076
0.182
-0.024
-0.004
-0.063
0.077
0.132
0.035
-0.010
0.055
-0.090
0.007
0.033
0.067
0.064
-0.036
0.015
-0.029
0.022
0.564
0.112
-0.699
-0.329
0.063
0.173
0.120
0.152
0.149
0.195
0.038
-0.017
-0.046
-0.125
0.042
0.161
0.074
0.103
0.023
-0.095
-0.014
-0.018
0.099
0.121
0.035
0.017
-0.012
-0.084
-0.073
0.406
0.873
-0.823
-1.063
0.242
0.673
-0.251
-0.007
0.588
0.220
-0.094
-0.168
-0.225
-0.125
-0.097
0.013
0.123
0.071
0.169
0.094
0.119
0.018
-0.038
0.070
0.001
0.034
0.006
0.028
-0.086
-0.027
0.005
0.072
0.086
0.062
-0.026
-0.075
-0.049
0.194
0.327
0.225
-0.215
-0.396
-0.255
0.173
0.354
0.193
0.070
-0.054
-0.022
0.074
-0.234
-0.280
0.194
0.373
0.349
-0.027
-0.096
0.423
0.064
-0.653
-0.287
0.194
0.206
0.126
0.182
0.087
-0.168
0.013
0.989
-0.383
-1.452
-0.197
0.363
0.582
0.395
-0.035
-0.104
0.031
0.189
-0.028
-0.146
-0.080
0.024
0.058
0.111
0.138
0.108
0.138
0.124
0.010
0.081
-0.042
-0.053
-0.039
0.066
0.017
0.033
0.068
0.030
-0.038
-0.014
0.064
-0.021
0.101
0.075
0.058
0.105
0.023
-0.144
0.013
0.019
0.118
0.166
0.202
0.054
-0.218
-0.304
-0.039
0.146
0.108
0.170
0.033
-0.049
0.046
-0.028
-0.015
0.016
0.031
0.127
0.080
0.271
0.122
-0.207
-0.464
-0.180
0.271
0.465
0.242
0.057
-0.122
-0.133
-0.047
0.009
0.559
0.612
-0.764
-1.177
-0.463
0.794
1.048
0.433
-0.007
-0.095
-0.591
-0.362
0.145
0.430
0.765
-0.075
-0.658
-0.278
0.204
0.208
0.218
0.213
0.030
-0.041
-0.082
-0.112
-0.090
0.029
0.020
0.041
0.051
0.095
0.063
0.045
0.021
0.090
0.030
0.014
-0.016
0.052
0.096
0.086
-0.042
0.065
0.023
0.012
0.062
0.010
0.076
0.046
-0.099
0.021
0.184
0.078
0.004
-0.041
0.074
0.066
-0.005
-0.080
0.031
0.097
0.123
0.106
0.098
-0.010
-0.007
-0.065
-0.101
0.001
0.072
0.083
0.037
0.070
-0.007
0.070
0.098
0.010
0.392
0.976
-1.048
-1.186
0.146
0.506
0.575
0.214
0.068
-0.008
-0.075
0.083
-0.062
-0.391
-0.386
0.034
0.308
0.501
0.201
0.093
0.106
-0.151
-0.233
-0.244
0.043
0.301
0.213
0.253
0.200
-0.361
-0.302
0.002
-0.037
0.144
0.217
0.123
0.051
-0.072
-0.066
-0.007
-0.047
-0.020
0.021
0.031
0.090
0.202
0.032
0.038
0.146
0.294
-0.783
-0.274
0.518
0.529
0.147
-0.147
-0.122
-0.067
-0.140
-0.034
0.056
0.179
0.117
0.126
0.026
0.047
-0.049
-0.074
-0.004
0.041
0.048
0.105
0.980
-0.252
-1.369
-0.282
0.432
0.488
0.349
0.042
0.009
-0.129
-0.052
-0.082
0.085
0.093
-0.096
0.081
0.135
0.226
0.178
0.000
-0.035
-0.010
0.038
0.064
0.009
0.006
-0.003
0.103
0.007
0.002
0.032
-0.046
0.020
-0.044
-0.012
-0.042
0.099
0.114
-0.032
-0.019
-0.011
0.045
0.080
0.181
0.297
-0.026
-0.460
-0.464
0.073
0.390
0.446
0.138
-0.054
-0.059
-0.097
0.458
0.194
-0.559
-0.577
0.053
0.245
0.322
0.207
0.076
0.059
0.054
-0.087
-0.013
0.018
0.217
0.938
-0.781
-1.156
0.322
0.576
0.349
0.074
-0.092
0.074
-0.411
-0.151
0.237
0.269
0.130
-0.075
-0.091
-0.089
-0.022
0.201
0.106
0.178
0.043
0.095
0.008
-0.009
0.102
-0.045
-0.053
-0.029
-0.049
0.028
-0.105
0.005
0.105
-0.008
0.014
0.375
0.153
-0.753
-0.104
0.622
0.253
0.071
0.063
0.043
-0.025
-0.118
-0.068
-0.059
0.100
0.132
0.070
0.096
0.024
-0.027
0.045
0.086
-0.031
0.029
-0.086
-0.015
0.156
0.038
0.084
0.030
0.101
0.297
0.315
0.974
-0.836
-1.767
-0.095
0.612
0.758
0.332
0.130
0.007
-0.112
-0.153
-0.227
-0.148
0.024
0.122
0.141
0.120
0.182
0.203
0.156
0.020
0.007
0.308
0.231
-0.473
-0.623
-0.034
0.124
0.147
0.177
0.089
0.031
-0.081
-0.060
0.034
0.059
0.031
0.126
0.132
0.003
0.033
0.001
0.069
0.032
0.079
0.052
0.081
-0.035
-0.012
-0.008
-0.016
0.008
-0.002
0.070
0.092
0.050
0.060
0.051
0.063
0.054
0.144
-0.036
-0.027
0.042
0.023
0.072
0.165
1.044
-0.358
-1.605
-0.265
0.526
0.459
-0.099
0.217
0.322
0.140
-0.351
-0.197
0.170
0.177
0.168
-0.149
-0.476
-0.182
0.337
0.436
0.400
0.123
-0.050
-0.126
-0.104
-0.106
-0.117
-0.050
0.056
0.158
0.118
0.170
0.296
-0.055
-0.766
-0.068
0.614
0.294
-0.001
-0.002
-0.074
-0.026
-0.063
0.010
0.052
0.145
0.117
-0.039
0.032
0.080
0.007
0.061
0.021
-0.003
-0.006
0.010
-0.030
-0.128
-0.109
0.060
0.106
0.159
0.189
0.488
-0.034
-0.588
-0.346
0.816
0.727
-1.200
-0.656
0.224
0.502
0.462
0.058
-0.121
-0.139
-0.127
-0.134
-0.017
-0.006
0.132
0.141
0.102
0.071
0.086
0.174
0.105
-0.060
-0.040
-0.031
-0.026
0.155
0.076
-0.007
-0.062
0.053
-0.005
0.017
0.039
0.089
0.029
0.051
0.008
0.069
0.098
-0.002
0.027
0.039
-0.035
-0.001
0.026
0.135
-0.250
-0.309
0.274
0.330
0.178
-0.025
-0.106
-0.058
0.043
-0.023
-0.110
0.032
0.188
0.178
0.009
0.002
-0.059
0.045
0.008
0.171
0.276
-0.002
-0.352
-0.459
-0.094
0.347
0.274
0.160
-0.030
-0.108
-0.001
1.091
-0.208
-1.539
-0.244
0.487
0.635
0.420
0.135
0.003
-0.099
-0.086
-0.034
-0.098
0.006
0.041
0.036
0.121
0.108
0.031
0.007
0.028
-0.027
0.366
-0.485
-0.643
0.411
0.724
0.504
0.490
-0.296
-1.127
-0.631
0.122
0.369
0.517
0.268
0.182
-0.085
-0.055
-0.072
-0.133
-0.224
-0.105
0.066
0.147
0.109
0.141
0.112
0.128
0.046
0.009
-0.010
-0.068
-0.054
0.005
0.093
-0.003
0.017
0.014
0.097
-0.008
0.097
0.046
0.066
0.063
0.064
0.248
0.977
-0.736
-1.361
-0.043
0.618
0.560
-0.177
0.110
0.261
0.083
-0.082
-0.219
-0.165
0.059
-0.006
-0.013
0.136
0.204
0.202
0.047
-0.152
0.064
0.115
0.116
0.002
-0.000
-0.085
-0.043
0.011
0.070
0.156
0.252
0.122
-0.172
-0.526
-0.208
0.144
0.424
0.198
-0.011
-0.032
-0.075
-0.037
-0.033
-0.071
-0.089
0.254
0.627
-0.242
-0.410
-0.084
0.200
0.173
0.197
0.160
0.018
-0.068
-0.139
-0.082
-0.081
-0.023
0.006
0.080
0.144
0.167
0.034
-0.008
0.023
0.061
0.396
0.940
-1.131
-1.146
0.105
0.519
0.549
0.179
-0.060
-0.013
-0.080
-0.099
0.226
-0.565
-0.540
0.411
0.645
0.303
0.125
0.088
0.001
-0.243
-0.293
0.023
0.065
0.176
0.222
0.006
0.029
-0.021
-0.057
-0.060
-0.058
-0.026
-0.018
-0.007
0.072
0.102
0.051
0.120
-0.005
0.058
0.045
0.052
0.039
-0.022
-0.091
0.047
0.170
-0.178
-0.322
0.183
0.322
0.265
0.000
-0.081
-0.099
-0.064
0.035
0.063
0.322
-0.121
-0.163
0.119
0.208
0.017
-0.054
0.029
-0.085
0.034
0.196
0.195
0.244
0.679
-1.114
-1.421
0.311
0.771
0.599
0.271
-0.032
-0.108
-0.298
-0.109
-0.151
0.068
0.155
0.260
0.601
-0.136
-0.533
-0.126
0.184
0.160
0.143
0.152
0.075
-0.053
-0.084
-0.146
-0.056
-0.043
0.047
0.042
0.126
0.077
0.046
0.047
0.091
-0.038
0.059
0.087
-0.023
-0.088
0.065
0.040
0.042
-0.024
0.028
0.051
0.044
0.063
-0.041
0.039
0.049
0.087
0.031
0.049
-0.049
0.072
0.105
0.109
-0.048
-0.032
0.020
-0.053
0.025
0.099
0.164
-0.025
-0.131
-0.027
0.072
0.052
0.104
0.168
0.050
-0.242
1.238
-0.565
-1.543
0.167
0.715
0.534
0.076
-0.044
-0.114
-0.054
-0.049
-0.070
0.021
0.008
0.037
0.054
0.137
0.243
0.193
-0.086
-0.130
-0.063
-0.001
0.042
0.108
0.008
-0.017
-0.031
0.018
-0.140
-0.055
0.218
0.224
0.088
0.164
0.136
-0.132
-0.351
-0.350
0.164
0.429
0.281
0.509
0.309
-0.629
-0.647
-0.106
0.178
0.244
0.153
0.150
0.170
0.061
-0.071
-0.051
-0.093
0.095
0.004
0.016
0.027
-0.041
0.107
0.073
0.122
-0.053
0.003
0.029
0.051
-0.075
0.004
0.761
0.418
-1.366
-0.764
0.232
0.668
0.611
0.225
-0.078
-0.307
-0.148
-0.175
-0.003
0.020
0.089
0.136
0.141
0.104
0.141
0.011
0.063
-0.012
0.079
-0.043
-0.037
0.052
0.123
0.148
0.062
-0.038
-0.009
-0.043
0.084
-0.018
0.075
0.067
-0.022
-0.375
0.144
0.324
0.289
0.184
-0.197
-0.273
-0.039
0.074
0.220
0.228
-0.021
0.078
-0.054
-0.050
0.064
0.050
-0.012
-0.029
-0.004
0.049
-0.016
-0.041
0.096
0.031
0.012
-0.030
-0.057
0.007
0.143
0.040
0.114
0.050
-0.033
-0.034
-0.139
0.003
0.251
0.229
0.120
-0.023
-0.090
-0.037
0.136
1.062
0.005
-1.038
-0.339
-0.219
0.142
0.468
0.470
0.200
-0.069
-0.165
-0.119
-0.212
-0.288
0.058
0.193
0.208
-0.001
0.041
0.089
0.054
0.082
0.071
0.068
0.046
-0.022
0.047
0.017
0.007
-0.097
-0.001
0.072
0.033
0.076
0.004
0.087
0.006
0.065
-0.053
0.044
0.006
0.083
0.061
0.011
-0.001
0.026
0.018
0.044
0.033
0.014
0.056
-0.050
-0.062
-0.021
0.050
0.017
0.070
0.068
0.107
0.095
-0.020
-0.014
0.079
0.017
0.092
-0.050
0.047
0.062
0.131
0.001
0.007
0.041
-0.015
0.009
-0.034
0.018
0.130
1.028
-0.020
-1.502
-0.453
0.539
0.680
0.385
-0.397
-0.134
0.157
0.145
-0.026
-0.040
-0.049
0.014
0.144
0.095
0.139
0.073
0.065
0.027
0.016
-0.074
0.004
0.155
0.043
-0.044
-0.039
0.093
-0.013
-0.135
-0.048
0.077
0.080
0.129
0.134
0.114
0.193
-0.116
-0.417
-0.096
0.660
0.247
-0.422
-0.263
0.058
0.131
0.122
0.204
0.039
-0.040
-0.121
-0.034
0.034
0.096
0.094
0.134
0.202
0.139
-0.033
-0.142
-0.041
0.063
0.195
0.308
-0.684
0.584
0.618
-0.982
-0.405
0.256
0.251
0.186
0.086
0.003
0.032
-0.108
-0.150
-0.034
0.125
0.256
0.097
0.004
0.005
0.023
-0.052
0.001
0.031
0.031
0.036
0.038
0.038
-0.007
-0.048
0.041
0.022
0.057
0.028
0.010
0.022
0.088
0.047
0.093
-0.065
0.021
0.108
0.068
-0.004
0.139
-0.043
-0.363
0.032
0.173
0.248
0.151
-0.090
-0.097
0.006
0.042
0.054
-0.094
-0.005
0.004
0.012
0.087
0.019
-0.003
0.054
0.061
-0.093
-0.065
0.062
-0.055
0.081
0.062
0.082
0.111
0.005
0.060
0.023
0.015
0.069
0.092
0.098
-0.038
0.593
1.654
-1.152
-2.642
-0.582
0.863
1.187
0.763
0.264
-0.179
-0.307
-0.321
-0.334
-0.040
0.049
0.204
0.276
0.200
0.212
-0.005
0.086
0.078
0.113
-0.029
-0.092
-0.060
-0.018
-0.100
-0.021
0.040
0.026
0.045
0.125
-0.029
0.040
-0.035
0.012
0.003
0.060
0.025
0.020
0.089
-0.026
0.014
0.065
0.052
-0.013
0.035
0.024
0.040
0.071
0.072
0.126
-0.042
-0.187
-0.045
0.085
0.156
-0.010
0.077
0.083
0.159
-0.284
-0.351
0.201
0.335
0.256
0.005
-0.130
-0.154
-0.049
0.006
0.029
0.086
0.037
0.027
0.109
0.012
0.275
0.955
-0.793
-1.300
0.005
0.508
0.525
0.213
0.160
-0.049
-0.179
-0.308
-0.224
0.011
0.146
0.093
0.138
0.110
0.146
-0.005
-0.057
-0.051
-0.040
0.148
0.078
0.115
-0.015
0.120
0.053
0.035
-0.081
-0.033
-0.005
0.122
0.017
0.029
0.007
0.004
-0.012
-0.012
0.025
-0.033
0.052
0.061
0.079
0.011
0.436
0.136
-0.452
-0.276
0.139
0.115
0.168
0.130
0.089
0.104
-0.003
-0.208
0.219
0.028
-0.633
-0.002
0.563
0.398
-0.057
-0.029
0.007
-0.020
-0.091
0.082
0.142
0.112
-0.040
0.019
0.054
0.275
0.107
-0.268
-0.450
0.721
0.143
-1.085
-0.205
0.545
0.505
-0.026
-0.059
0.091
-0.025
-0.125
-0.034
-0.013
0.086
0.166
0.141
0.049
0.158
0.123
0.045
0.133
0.031
-0.074
-0.021
0.000
-0.022
0.091
-0.016
-0.033
-0.088
-0.002
-0.048
-0.032
0.080
0.084
0.010
0.057
0.030
0.099
0.044
0.022
0.004
-0.009
0.066
0.040
0.106
0.066
0.033
-0.035
-0.018
0.038
0.055
0.022
0.047
-0.012
0.060
0.095
-0.008
0.177
0.077
-0.041
-0.041
-0.017
-0.018
0.041
0.172
0.010
-0.025
0.077
0.055
0.113
0.017
0.002
-0.035
-0.041
0.130
0.573
1.488
-1.263
-1.846
-0.040
0.665
0.713
0.306
0.145
0.072
-0.143
-0.486
-0.432
-0.213
0.065
0.221
0.365
0.226
0.137
0.051
0.075
0.105
0.090
-0.045
-0.041
-0.025
0.057
0.068
0.052
-0.109
0.069
0.231
0.262
0.235
-0.110
-0.420
-0.543
-0.079
0.374
0.752
-0.428
-0.410
0.408
0.472
0.006
-0.073
-0.013
-0.040
-0.497
0.005
0.377
0.445
0.157
-0.042
-0.185
-0.133
-0.024
0.060
0.064
0.023
0.063
0.045
0.098
-0.051
0.042
-0.007
0.019
0.014
-0.044
-0.047
0.045
0.062
0.098
0.115
-0.005
-0.008
-0.020
0.034
-0.019
0.041
0.102
0.166
0.052
0.023
0.084
0.062
0.031
-0.003
0.032
0.066
0.024
0.308
0.936
-0.877
-1.006
0.249
0.425
0.490
0.083
-0.087
0.005
-0.060
-0.157
-0.115
0.011
0.067
0.172
0.101
0.108
0.021
0.012
-0.010
0.071
0.096
0.040
-0.104
0.007
0.100
0.091
0.075
0.106
-0.131
-0.029
-0.051
-0.031
0.034
0.058
0.071
-0.003
0.108
0.026
-0.064
0.027
0.035
-0.053
0.018
0.056
0.041
0.232
0.663
-0.218
-0.695
-0.186
0.157
0.225
0.171
0.119
0.033
-0.021
0.019
0.067
-0.063
0.012
0.015
0.003
0.143
0.162
-0.514
0.159
0.703
0.590
-0.170
-0.661
-0.297
0.109
0.252
0.255
1.059
-0.103
-1.529
-0.541
0.315
0.594
0.387
0.096
-0.020
-0.054
-0.066
-0.139
-0.264
-0.179
0.228
0.403
0.164
0.386
-0.139
-0.722
0.006
0.576
0.391
0.054
-0.111
-0.081
-0.124
-0.024
0.053
0.076
0.143
0.089
0.052
0.006
0.021
0.014
-0.142
0.031
0.054
0.013
0.056
0.068
0.111
0.075
-0.037
0.025
0.148
0.102
0.050
-0.009
-0.065
0.066
0.024
0.013
0.023
0.032
0.017
-0.085
0.084
0.066
0.015
-0.014
0.026
-0.007
0.086
0.013
0.053
-0.034
0.050
0.079
0.049
-0.059
0.230
1.173
-0.673
-1.126
0.291
0.044
-0.000
0.140
0.205
0.067
0.082
-0.129
-0.304
0.058
0.143
0.158
-0.103
-0.096
0.015
0.150
0.182
0.195
0.178
0.071
-0.138
-0.117
-0.010
0.129
0.009
0.002
-0.008
0.052
-0.059
0.011
0.042
-0.029
0.004
-0.107
0.019
0.235
0.210
0.107
-0.029
0.089
0.100
-0.334
-0.407
-0.113
0.328
0.361
0.271
0.053
-0.080
-0.030
-0.160
-0.158
0.058
0.124
0.095
0.032
-0.039
0.080
0.149
0.041
0.080
0.020
-0.056
0.039
-0.007
0.030
0.087
-0.010
0.028
0.478
0.911
-1.459
-1.193
0.379
0.771
0.560
0.016
-0.021
-0.187
-0.100
-0.010
-0.015
0.035
0.047
0.069
0.447
-0.023
-0.715
0.061
0.575
0.433
0.124
-0.063
0.135
0.181
-0.750
-0.663
-0.054
0.359
0.361
0.259
0.063
-0.092
0.075
0.136
0.065
-0.231
-0.147
-0.093
0.146
0.200
0.146
0.119
0.076
0.106
0.105
-0.017
0.013
-0.001
-0.109
-0.061
0.024
0.129
0.046
-0.094
0.023
0.017
0.088
-0.026
-0.032
0.089
0.094
0.773
0.421
-1.433
-0.835
0.328
0.537
0.304
0.177
0.083
0.029
-0.051
-0.129
-0.175
-0.075
0.063
0.235
0.093
0.111
0.132
0.258
0.155
-0.069
-0.443
-0.263
0.112
0.397
0.267
0.062
-0.105
-0.107
-0.057
0.027
0.042
0.100
0.051
0.041
0.054
0.203
0.069
-0.431
0.074
0.337
0.248
0.067
-0.171
-0.153
0.044
0.097
0.093
-0.007
0.072
-0.055
0.065
-0.027
0.233
0.677
-0.162
-0.780
-0.375
0.123
0.162
0.213
0.137
0.020
-0.058
0.008
0.988
-0.024
-1.551
-0.516
0.353
0.739
0.561
0.244
0.101
0.027
0.325
-0.746
-0.748
0.332
0.504
0.271
0.091
0.072
-0.092
-0.091
-0.058
0.040
0.079
0.121
0.015
-0.058
-0.247
-0.057
0.060
0.140
0.047
0.106
0.093
-0.021
-0.029
-0.050
0.045
-0.057
-0.048
0.169
0.426
0.332
-0.102
-0.507
-0.427
0.074
0.297
0.232
0.086
0.010
-0.004
0.025
-0.034
-0.013
-0.023
-0.008
0.109
-0.050
0.020
0.061
0.171
0.058
-0.007
0.206
1.164
-0.567
-1.495
-0.113
0.339
0.581
0.346
-0.373
0.040
0.204
0.121
-0.129
-0.184
-0.009
0.096
0.090
0.120
0.378
0.316
-0.313
-0.349
-0.004
0.126
0.186
0.117
0.046
-0.029
-0.167
-0.056
0.038
0.037
0.027
0.049
0.149
0.078
0.002
0.066
0.042
0.061
0.115
0.045
0.043
-0.080
0.080
0.055
-0.036
-0.055
-0.054
0.073
0.082
0.099
0.044
-0.038
-0.030
0.000
0.042
0.043
-0.057
0.012
0.075
0.086
0.394
-0.324
-0.737
0.230
1.692
-0.028
-1.326
-0.249
0.180
0.378
0.248
0.071
0.076
-0.026
-0.110
-0.164
-0.053
0.106
0.129
-0.054
0.068
0.093
0.035
-0.020
0.045
0.245
0.238
-0.002
-0.440
-0.419
0.051
0.374
0.402
0.024
-0.231
-0.140
-0.066
0.099
0.206
0.179
0.132
-0.049
0.053
0.050
-0.041
0.142
0.011
-0.241
0.097
0.296
0.206
0.037
-0.025
-0.226
-0.094
-0.148
0.117
0.142
0.127
0.030
0.251
0.432
-0.293
-0.620
-0.130
0.254
0.251
0.154
0.080
-0.013
-0.097
-0.059
-0.007
0.577
0.608
-1.128
-0.930
0.206
0.601
0.522
0.206
0.116
-0.062
-0.154
-0.074
-0.008
-0.022
0.012
0.103
0.110
0.097
0.074
0.132
0.036
0.007
0.082
-0.057
0.084
0.022
0.082
0.026
-0.057
-0.076
-0.028
0.057
0.011
0.081
0.038
0.024
-0.029
0.048
0.041
0.006
0.032
-0.016
0.027
0.001
0.078
0.038
0.067
0.111
0.147
0.181
-0.280
-0.651
-0.210
0.387
0.475
0.244
-0.008
-0.173
-0.105
0.018
0.266
-0.645
-0.203
0.583
0.475
0.177
-0.004
-0.079
-0.100
0.469
0.600
-0.984
-0.950
0.159
0.524
0.507
0.224
-0.043
-0.079
-0.108
-0.146
-0.069
-0.020
0.037
0.069
0.061
0.239
0.101
-0.339
0.111
0.321
0.271
0.074
-0.152
-0.157
-0.052
0.021
0.063
0.092
0.020
0.016
0.137
0.034
-0.091
-0.040
0.054
0.080
-0.000
0.012
0.026
-0.007
0.053
-0.018
-0.014
-0.033
0.075
0.063
0.186
0.043
-0.079
-0.105
-0.050
0.115
0.068
0.117
0.537
0.335
-0.592
-0.502
-0.049
0.064
0.210
0.249
0.158
0.026
-0.098
-0.100
-0.009
0.033
0.017
0.080
0.060
0.146
0.035
-0.179
0.063
0.135
0.199
0.103
0.666
0.677
-1.205
-1.090
0.158
0.569
0.487
0.075
-0.006
-0.062
-0.068
-0.171
-0.083
-0.051
0.026
0.070
-0.008
0.118
0.067
0.136
0.017
0.252
0.249
-0.088
-0.382
-0.252
0.141
0.139
0.154
0.199
0.082
-0.038
-0.081
-0.005
0.002
-0.390
-0.079
0.361
0.338
0.253
0.074
-0.084
0.036
-0.073
0.003
0.028
0.464
-0.515
-0.502
0.350
0.621
0.151
-0.201
-0.125
-0.027
-0.006
0.070
0.010
0.019
0.043
-0.013
0.116
0.049
0.082
0.074
0.008
-0.036
0.044
-0.093
0.061
0.054
0.014
0.089
-0.024
-0.033
0.115
0.369
0.800
-1.085
-1.031
0.411
0.854
-0.020
-0.462
-0.009
0.111
0.083
0.036
-0.002
-0.011
-0.032
0.022
0.135
0.064
0.103
0.059
0.107
0.137
0.055
0.036
0.048
0.055
0.116
-0.008
0.018
0.030
0.005
0.012
-0.020
0.050
-0.054
-0.056
0.006
0.132
0.021
-0.020
0.079
-0.013
0.013
0.048
0.043
0.013
-0.013
0.044
0.132
0.076
0.004
-0.010
-0.121
0.042
0.035
0.005
-0.072
0.133
0.290
-0.278
-0.179
0.128
-0.060
0.128
0.142
-0.008
0.062
0.056
0.133
0.041
0.068
-0.051
0.033
0.126
1.208
0.239
-1.730
-0.881
0.205
0.766
0.616
0.147
-0.056
-0.221
-0.157
-0.264
-0.076
0.005
0.111
0.146
0.170
0.134
0.079
0.101
0.173
0.053
0.353
-0.171
-0.829
0.086
0.489
0.296
-0.061
-0.170
-0.069
0.031
0.085
0.079
0.055
-0.054
-0.091
0.025
0.216
0.543
-0.080
-0.525
-0.333
0.077
0.115
0.192
0.237
0.009
-0.124
-0.064
-0.131
0.000
0.004
0.150
0.015
0.105
0.126
0.095
0.102
-0.064
0.004
0.009
0.004
0.081
0.108
0.038
0.014
-0.031
0.074
0.023
-0.034
0.010
0.028
0.046
0.786
0.398
-1.287
-0.614
0.310
0.381
0.392
0.142
0.117
-0.098
0.020
0.002
-0.093
-0.063
-0.077
0.020
0.132
0.100
0.043
0.155
0.069
-0.378
0.140
0.248
0.213
-0.015
-0.072
-0.053
-0.197
-0.066
0.126
0.364
0.376
0.237
-0.007
-0.627
-0.433
0.019
0.439
0.391
0.170
-0.055
-0.099
-0.141
-0.105
-0.101
0.063
0.042
0.112
0.100
0.004
0.054
0.079
0.148
0.103
-0.090
-0.177
-0.176
0.578
0.320
-0.430
-0.501
-0.001
0.148
0.128
0.193
0.104
0.076
1.021
-0.375
-1.464
-0.185
0.430
0.562
0.313
0.133
-0.045
-0.060
-0.090
-0.119
-0.017
0.012
0.013
0.096
0.125
0.075
-0.017
-0.197
-0.039
0.032
0.151
0.131
0.081
0.066
-0.096
-0.050
-0.067
0.012
0.056
0.069
0.111
0.034
0.122
0.387
-0.549
-0.476
0.392
0.443
0.073
-0.058
-0.003
-0.085
0.015
-0.062
0.010
0.076
0.086
0.136
-0.002
0.062
0.105
-0.150
-0.059
0.031
0.026
0.013
-0.006
-0.024
0.073
0.094
0.177
-0.147
-0.340
0.177
0.317
0.223
-0.065
-0.098
-0.052
0.107
0.088
0.086
-0.084
0.159
1.210
-0.331
-1.197
-0.239
0.338
0.458
0.285
0.039
0.020
-0.109
-0.106
0.002
0.181
0.209
-0.032
-0.433
-0.335
0.124
0.339
0.336
0.237
-0.023
-0.038
-0.008
0.002
-0.186
-0.155
-0.047
0.135
0.146
0.161
0.191
0.065
-0.023
0.020
-0.045
-0.020
0.093
-0.074
-0.002
0.093
0.251
0.553
-0.371
-0.629
-0.118
0.188
0.266
0.252
0.116
-0.085
-0.134
-0.018
-0.059
0.044
0.034
0.075
0.006
-0.022
0.006
0.053
0.111
0.042
0.014
0.048
-0.007
0.063
0.023
-0.009
0.036
0.061
0.045
0.104
-0.089
-0.012
-0.018
-0.000
0.044
0.072
0.086
0.414
0.881
-0.937
-1.115
0.028
0.480
0.480
0.231
0.006
-0.130
-0.095
-0.075
-0.028
0.004
-0.056
-0.081
-0.373
0.416
0.664
0.308
-0.156
-0.120
-0.058
-0.084
-0.127
-0.001
0.117
0.170
0.052
0.037
-0.125
-0.069
0.110
0.005
-0.117
0.024
0.162
0.056
0.166
0.123
-0.094
-0.336
-0.335
0.093
0.382
0.336
0.156
-0.046
-0.051
0.003
0.043
0.013
-0.015
0.034
0.099
-0.007
0.081
0.143
0.078
-0.030
-0.020
0.069
0.085
0.035
0.065
0.089
0.379
0.226
-0.555
-0.544
0.013
0.218
0.228
0.169
0.128
0.210
0.993
-0.754
-1.413
-0.135
0.325
0.596
0.345
0.141
0.055
-0.129
-0.033
-0.104
-0.034
0.047
0.117
0.082
0.157
0.101
0.100
0.085
-0.023
-0.039
0.101
0.093
0.032
0.001
-0.007
0.067
0.039
0.101
0.047
-0.042
-0.136
0.009
0.028
-0.028
0.030
0.164
0.086
0.094
0.040
-0.018
-0.123
-0.000
0.080
-0.007
0.169
0.091
-0.391
0.080
0.307
0.273
0.055
-0.142
-0.118
-0.037
0.043
0.068
0.059
0.015
0.120
0.058
0.001
0.025
0.027
0.013
0.003
-0.001
0.001
0.044
-0.013
0.054
0.029
0.074
0.256
1.030
-0.623
-1.421
-0.076
0.369
0.371
0.370
0.302
0.058
-0.168
-0.156
-0.171
-0.013
0.051
0.104
0.154
0.290
0.259
-0.102
-0.424
-0.265
0.448
0.333
-0.507
-0.033
0.453
0.678
0.094
-0.657
-0.603
-0.143
0.265
0.237
0.208
0.254
0.059
-0.002
-0.037
-0.055
-0.003
-0.077
-0.017
0.201
0.063
0.040
-0.005
-0.048
0.084
0.166
0.015
-0.077
-0.028
0.019
0.056
0.018
-0.015
0.111
0.050
0.046
0.035
-0.025
0.040
-0.013
0.019
0.094
0.865
0.282
-1.370
-0.645
0.418
0.572
0.346
0.181
0.014
-0.089
-0.238
-0.297
-0.154
0.107
0.271
0.169
0.119
-0.008
0.052
0.046
0.104
0.002
0.086
0.010
0.001
0.008
0.014
0.089
0.188
-0.269
-0.048
0.237
0.308
0.021
-0.096
-0.174
-0.037
0.020
0.021
0.021
0.072
0.021
-0.087
0.179
0.209
0.107
-0.105
-0.130
-0.023
-0.023
0.043
0.116
0.109
0.396
0.534
-0.302
-0.718
-0.328
-0.181
0.273
0.489
0.403
0.097
-0.102
-0.149
-0.051
-0.128
0.017
0.017
0.010
0.107
0.143
0.180
0.084
0.063
-0.010
-0.064
0.170
1.132
-0.350
-1.435
-0.338
0.286
0.550
0.390
0.102
-0.001
-0.102
-0.092
-0.053
-0.124
-0.022
0.043
0.084
0.121
0.103
0.038
0.076
0.025
0.034
0.037
0.024
0.069
0.413
-0.599
-0.446
0.446
0.512
0.168
-0.029
-0.129
-0.048
-0.078
0.017
0.137
0.096
0.001
0.008
0.039
0.029
-0.007
-0.050
0.086
0.116
0.044
0.001
-0.008
0.202
-0.321
-0.232
0.245
0.201
0.255
0.073
0.016
-0.076
-0.050
-0.020
0.017
0.011
0.035
0.144
0.222
0.918
-0.101
-1.628
-0.598
0.318
1.118
0.865
-0.440
-0.711
-0.248
-0.004
0.102
0.217
0.218
-0.115
0.063
0.183
0.180
0.136
-0.148
-0.119
0.096
0.229
0.137
0.121
0.094
0.182
0.053
-0.275
-0.500
-0.197
0.278
0.374
0.271
-0.019
-0.082
-0.097
-0.074
-0.016
-0.058
0.007
0.115
0.126
0.045
-0.018
0.072
-0.001
0.069
-0.037
0.001
-0.007
0.051
0.004
0.047
0.008
0.008
0.077
-0.011
-0.043
-0.023
0.092
0.127
0.042
-0.013
0.054
-0.024
0.091
0.079
0.110
-0.010
-0.052
0.061
0.013
-0.058
0.069
0.046
0.470
0.866
-0.924
-1.177
0.098
0.380
0.494
0.278
0.104
-0.048
-0.017
-0.070
-0.379
-0.199
0.288
0.391
0.304
-0.197
-0.190
-0.032
0.149
0.219
0.057
0.098
-0.060
0.013
0.091
-0.018
-0.081
0.188
0.227
-0.850
-0.286
0.635
0.625
0.169
-0.134
-0.153
-0.195
0.057
0.019
0.067
0.108
0.396
0.372
-0.431
-0.475
-0.041
0.159
0.205
0.105
0.089
-0.047
-0.239
-0.162
0.162
0.307
0.337
0.000
-0.515
-0.355
-0.039
0.256
0.375
0.222
0.869
0.332
-1.387
-0.780
0.132
0.441
0.408
0.150
0.105
0.035
-0.072
-0.040
-0.047
0.055
0.069
0.124
0.077
0.018
0.112
0.078
-0.012
0.071
-0.084
0.018
0.112
-0.030
-0.047
0.045
0.061
0.035
-0.020
-0.035
-0.046
-0.023
-0.029
0.103
0.017
0.070
-0.045
0.031
0.091
0.148
0.069
0.006
-0.125
0.019
0.008
0.008
0.081
0.093
0.061
0.055
0.012
-0.019
-0.028
-0.047
0.159
-0.016
-0.308
0.061
0.378
0.309
0.133
-0.149
-0.147
0.006
0.039
0.078
0.092
0.010
0.073
0.071
0.035
0.082
0.064
0.009
0.018
0.034
0.002
-0.002
-0.066
0.103
-0.048
0.141
0.984
0.238
-1.369
-0.174
0.405
-0.023
-0.106
0.117
0.142
0.057
0.010
-0.013
-0.040
-0.104
-0.060
0.075
0.004
0.159
0.133
0.163
0.073
0.045
0.029
0.050
0.027
0.028
0.046
0.005
-0.032
-0.057
0.021
-0.054
0.177
0.304
0.012
-0.482
-0.258
0.139
0.356
0.339
0.039
-0.022
-0.012
0.022
0.001
-0.190
-0.084
0.079
0.410
-0.416
-0.346
0.538
0.450
-0.042
-0.197
-0.136
-0.100
0.043
0.122
0.111
0.037
-0.003
0.057
-0.013
0.111
0.003
0.063
0.025
-0.005
0.059
1.055
-0.165
-1.468
-0.237
0.360
0.512
0.429
-0.307
-0.293
0.075
0.170
0.116
0.032
-0.030
-0.052
0.082
0.053
0.075
0.196
0.118
-0.038
0.062
0.023
0.067
0.010
-0.053
0.056
-0.046
0.016
0.059
0.029
-0.002
-0.095
-0.016
0.082
0.069
0.123
0.179
0.042
0.078
-0.017
-0.068
-0.013
0.086
0.472
0.119
-0.579
-0.450
0.053
0.191
0.202
0.243
0.018
-0.011
-0.048
-0.003
0.134
-0.041
-0.085
-0.055
0.027
0.117
0.170
0.095
0.073
0.040
0.027
-0.037
-0.106
-0.002
0.076
0.055
0.087
0.075
0.102
-0.045
0.015
0.053
0.158
0.133
-0.148
-0.427
-0.234
0.948
0.694
-1.145
-0.756
0.143
0.466
0.466
-0.147
-0.148
-0.009
0.077
0.082
-0.024
-0.001
0.024
0.032
0.063
0.076
0.096
0.101
0.141
0.070
0.043
-0.022
-0.076
0.005
-0.033
-0.024
0.011
0.014
0.091
0.185
0.253
-0.292
-0.792
0.061
0.638
0.489
-0.213
-0.294
0.101
0.114
0.114
0.009
0.019
-0.057
0.026
0.045
0.094
0.097
0.041
0.023
0.091
0.064
-0.013
0.141
0.252
-0.445
-0.547
0.063
0.265
0.147
0.192
0.078
0.010
-0.039
0.003
0.009
-0.023
0.106
0.154
0.181
0.090
0.869
0.274
-1.282
-0.575
0.304
0.552
0.457
0.161
-0.014
-0.062
-0.137
-0.071
0.006
-0.063
0.066
0.072
0.297
0.282
0.070
-0.318
-0.317
0.079
0.364
0.330
0.005
-0.054
-0.048
-0.047
-0.104
0.052
0.114
0.273
0.227
0.143
0.055
0.047
0.029
0.179
0.088
-0.157
0.124
0.205
0.165
0.094
-0.060
-0.143
-0.061
0.081
0.099
0.040
0.099
0.091
0.107
0.146
0.106
0.107
0.119
0.084
0.140
0.120
0.003
0.119
0.156
-0.009
-0.190
0.334
0.407
0.268
0.011
-0.158
-0.102
-0.023
0.068
0.232
0.159
0.091
-0.031
-0.000
0.045
0.001
-0.011
0.114
0.894
-0.110
-1.479
-0.511
0.421
1.115
0.413
-0.642
-0.525
-0.088
0.032
0.097
0.208
0.145
-0.068
0.019
0.053
0.151
0.096
0.038
0.108
0.064
0.061
0.059
0.123
0.025
-0.106
-0.002
0.332
-0.480
-0.727
0.260
0.408
0.248
-0.151
-0.152
-0.137
-0.167
0.016
0.173
0.243
-0.125
-0.423
-0.320
0.099
0.287
0.251
-0.027
-0.092
-0.204
-0.211
-0.203
-0.073
-0.096
0.037
-0.022
-0.016
-0.013
0.121
-0.136
-0.335
-0.171
-0.194
-0.394
-0.803
-1.386
-1.291
-0.742
-0.210
0.196
-0.005
-0.224
-0.137
-0.092
-0.019
1.008
-0.035
-1.122
0.194
1.055
1.341
1.217
0.794
0.595
0.363
0.221
0.030
0.010
-0.043
0.007
-0.230
-0.079
-0.227
-0.131
-0.231
-0.653
-0.239
0.060
0.015
-0.136
-0.265
-0.329
-0.222
-0.124
0.293
0.302
-0.675
-0.498
-0.031
0.134
0.175
0.013
0.075
0.134
-0.016
-0.027
-0.045
0.095
0.177
0.151
0.141
0.147
0.175
0.248
0.273
0.304
0.157
0.121
0.025
0.226
0.329
0.373
0.190
0.139
0.072
0.209
0.225
0.120
0.252
0.149
0.264
0.194
0.218
0.366
1.121
-0.014
-1.866
-0.724
0.605
0.914
0.541
0.185
-0.061
-0.226
-0.252
-0.223
-0.048
0.111
0.100
0.152
0.106
0.112
0.065
-0.025
-0.131
0.088
0.006
-0.030
0.067
0.156
-0.864
-0.341
0.494
0.332
-0.079
-0.157
-0.162
-0.054
-0.185
0.010
-0.019
0.070
-0.032
-0.040
-0.057
0.027
0.221
0.220
-0.074
-0.097
-0.078
-0.029
0.110
0.081
0.092
-0.018
0.096
0.002
0.005
0.067
0.028
0.036
0.054
-0.025
-0.054
0.070
0.090
0.091
0.408
0.195
-0.526
-0.501
0.000
0.201
0.232
0.204
0.076
0.102
-0.052
0.043
0.028
0.868
0.043
-1.281
-0.383
-0.003
0.549
0.660
0.354
0.047
-0.209
-0.335
-0.218
-0.017
0.076
0.008
0.085
0.179
0.193
0.038
-0.025
0.124
0.032
0.080
0.098
-0.027
0.068
0.043
-0.036
-0.160
0.067
0.077
0.122
0.109
0.062
-0.020
0.023
0.215
0.172
-0.084
-0.515
-0.254
0.166
0.399
0.349
0.147
0.086
-0.101
-0.078
-0.036
-0.048
0.106
0.071
0.119
0.097
0.082
0.063
0.096
-0.015
0.026
-0.062
-0.028
-0.016
0.022
0.090
-0.077
-0.204
-0.064
0.040
0.063
-0.051
-0.053
0.201
0.152
-0.070
-0.095
-0.065
0.016
1.081
0.069
-1.460
-0.374
0.309
0.502
0.354
0.128
-0.032
-0.158
-0.167
0.187
0.147
-0.512
-0.415
0.023
0.166
0.286
0.227
0.260
0.057
0.024
0.055
-0.177
-0.472
0.002
0.405
0.331
0.147
-0.061
-0.047
-0.005
0.093
0.183
0.171
0.001
-0.091
-0.056
0.060
0.005
0.057
0.068
-0.011
-0.045
-0.086
0.063
0.103
0.339
-0.126
-0.649
0.027
0.688
0.419
0.057
-0.098
-0.023
-0.020
0.045
0.048
0.049
0.096
0.042
0.083
0.004
-0.030
0.023
0.020
0.009
-0.084
0.055
0.010
0.056
0.045
0.040
0.082
-0.048
0.054
0.062
0.217
0.255
0.300
0.429
-1.293
-1.032
0.348
0.771
0.530
0.134
-0.145
-0.176
-0.157
-0.168
-0.035
-0.084
0.110
0.043
0.105
0.184
0.154
0.102
-0.005
0.042
-0.032
0.027
0.036
0.036
0.037
0.111
0.019
-0.005
-0.026
-0.099
0.013
0.156
0.171
0.222
-0.057
0.268
0.359
-0.436
-0.514
-0.078
0.133
0.108
0.234
0.216
0.011
0.017
-0.048
0.027
-0.109
0.046
-0.016
0.017
0.125
0.087
0.071
0.027
0.203
0.121
0.039
0.036
0.043
-0.076
-0.470
-0.080
0.314
0.289
0.121
-0.116
-0.121
-0.168
0.027
0.211
0.075
0.019
0.449
0.809
-1.002
-1.149
0.182
0.543
0.408
0.248
0.029
-0.082
-0.169
-0.148
-0.072
0.030
0.052
0.098
0.091
0.121
0.064
0.079
0.026
0.047
0.057
-0.043
0.113
0.051
-0.003
0.049
0.041
-0.029
0.044
-0.004
0.115
-0.011
0.136
0.209
0.063
-0.270
-0.468
-0.110
0.259
0.379
0.224
0.012
-0.090
-0.101
-0.128
0.069
0.401
-0.578
-0.545
0.430
0.590
0.230
0.012
0.038
-0.005
-0.083
-0.085
0.009
-0.016
0.069
0.199
0.146
0.088
0.079
0.057
-0.055
-0.054
-0.008
0.023
0.004
0.044
0.001
0.117
0.522
-0.119
-0.632
-0.319
0.173
0.552
0.894
-0.754
-0.965
0.150
0.339
0.397
0.110
0.005
-0.030
-0.088
0.038
0.009
-0.002
0.116
0.135
0.099
0.098
0.064
0.063
0.067
-0.064
0.125
0.017
-0.083
-0.112
-0.019
0.065
0.096
0.160
-0.187
-0.276
0.112
0.420
0.193
-0.026
-0.151
-0.120
0.009
-0.010
0.046
0.110
0.003
0.063
0.038
-0.019
-0.079
0.105
-0.008
0.011
0.071
0.036
0.024
-0.047
0.017
0.046
-0.035
-0.010
0.044
0.038
0.129
0.125
0.084
0.057
-0.064
-0.172
-0.065
0.124
0.161
0.145
0.063
-0.017
0.011
-0.041
0.015
0.023
0.098
0.102
0.047
0.456
0.829
-1.017
-1.156
0.167
0.436
0.501
0.132
0.010
-0.047
-0.067
0.036
0.138
-0.106
-0.402
-0.284
0.141
0.338
0.287
0.045
0.218
0.047
0.380
0.263
-1.127
-0.953
0.462
0.705
0.405
0.153
-0.027
-0.095
-0.185
-0.155
-0.006
0.084
0.133
0.085
0.094
0.147
0.085
-0.082
0.044
-0.061
-0.001
0.008
0.043
0.034
-0.170
-0.032
0.181
0.192
0.109
-0.116
-0.054
-0.098
0.062
0.194
0.076
-0.440
0.048
0.409
0.281
0.958
-0.106
-1.634
-0.665
0.350
0.641
0.491
0.185
-0.031
-0.173
-0.117
-0.164
-0.039
-0.062
0.090
0.269
0.218
0.095
0.047
0.002
0.003
-0.080
0.001
0.054
0.132
0.025
-0.006
-0.035
-0.033
0.086
0.037
-0.007
0.044
-0.024
0.026
-0.036
0.103
0.140
0.034
0.007
0.010
0.028
0.006
0.086
0.147
0.114
-0.050
-0.188
-0.102
0.097
0.238
0.350
0.167
-0.176
-0.534
-0.339
0.150
0.383
0.215
0.109
-0.088
0.059
0.421
-0.239
-0.525
-0.115
0.041
0.084
0.202
0.270
0.403
0.974
-0.788
-1.376
0.076
0.375
0.403
0.255
0.041
-0.083
-0.030
0.073
0.050
0.026
0.003
0.057
0.019
0.405
-0.363
-0.668
0.296
0.755
0.314
0.000
-0.190
-0.155
-0.099
-0.098
-0.053
0.183
0.130
0.119
0.004
-0.001
0.030
-0.013
0.076
0.084
-0.363
-0.136
0.339
0.232
0.170
-0.182
-0.067
-0.028
-0.030
0.022
0.092
0.120
0.089
-0.015
-0.007
-0.005
0.022
0.063
0.010
-0.043
-0.041
0.054
0.058
0.085
0.028
0.050
0.077
0.072
-0.073
-0.006
0.019
0.046
0.068
0.049
0.097
0.913
-0.019
-1.518
-0.437
0.343
0.610
0.467
0.161
-0.018
-0.133
-0.116
-0.201
0.022
-0.038
0.121
0.092
0.110
0.043
0.093
0.147
0.211
0.174
-0.176
-0.403
-0.143
-0.018
0.100
0.237
0.060
0.043
-0.019
-0.049
-0.083
-0.103
-0.041
0.042
0.472
0.355
-0.454
-0.468
0.088
0.350
0.205
0.236
-0.023
-0.086
-0.135
0.003
0.063
0.121
0.019
-0.033
-0.010
0.077
-0.078
0.022
0.224
0.290
0.081
-0.007
-0.018
-0.115
-0.009
-0.013
0.013
-0.056
0.077
0.034
-0.012
-0.011
0.047
0.380
0.895
-1.012
-1.185
0.165
0.590
0.526
0.155
0.045
0.018
-0.298
-0.227
0.167
0.281
0.083
0.001
-0.093
0.071
0.029
0.110
0.167
0.033
0.435
-0.474
-0.511
0.238
0.496
0.204
-0.009
-0.056
-0.159
-0.097
-0.060
0.017
0.097
0.139
0.158
0.096
-0.065
-0.033
0.040
0.056
0.020
-0.021
-0.051
0.051
0.011
0.047
-0.069
0.102
0.245
0.117
-0.297
-0.323
0.047
0.294
0.287
0.097
-0.100
-0.150
0.070
-0.018
0.088
0.005
0.100
0.543
0.156
-0.568
-0.422
0.116
0.214
0.200
0.248
0.211
0.916
-0.260
-1.440
-0.492
0.309
0.622
0.329
0.123
0.072
0.029
-0.118
-0.200
-0.261
-0.083
0.184
0.251
0.080
0.124
0.032
0.026
-0.040
-0.016
0.069
0.097
0.048
-0.250
-0.024
0.171
0.239
0.185
-0.089
-0.067
0.030
0.001
0.015
0.039
0.032
-0.023
0.012
0.021
0.010
-0.017
-0.007
0.096
0.009
0.151
0.059
0.025
0.011
-0.121
0.076
0.103
-0.364
-0.004
0.252
0.279
0.116
-0.080
-0.015
-0.057
0.002
0.057
0.026
0.028
0.036
0.072
0.043
0.025
-0.010
0.055
0.003
0.062
0.021
0.001
0.012
0.012
0.084
0.010
0.178
0.962
-0.056
-1.477
-0.424
0.386
0.565
0.401
0.092
-0.130
-0.208
-0.163
0.078
0.075
0.036
0.027
0.073
0.242
0.227
-0.612
0.023
0.804
0.553
-0.223
-0.563
-0.244
0.093
0.506
0.647
-0.326
-0.556
-0.214
0.071
0.187
0.164
0.171
0.038
-0.016
-0.030
-0.095
-0.083
0.018
0.079
0.104
0.011
0.032
-0.035
0.032
0.019
0.070
0.036
0.037
0.059
0.148
-0.045
-0.110
-0.023
0.029
0.070
0.062
0.205
0.177
0.143
-0.288
-0.534
0.416
1.303
-0.485
-1.186
-0.184
0.377
0.398
0.108
0.014
-0.055
-0.035
-0.103
-0.089
-0.014
0.028
0.076
0.076
0.080
0.077
0.081
-0.017
-0.014
0.087
0.058
-0.015
0.026
0.061
0.088
-0.055
-0.002
-0.068
0.077
0.119
0.039
0.037
-0.023
0.041
-0.050
0.077
0.049
-0.017
0.043
0.035
0.002
0.061
0.032
0.003
-0.028
0.075
0.015
0.008
0.106
0.043
0.036
0.002
0.046
0.013
0.094
-0.030
0.028
0.031
0.028
-0.042
-0.046
-0.011
0.035
0.096
0.113
0.092
0.147
0.110
0.192
0.052
-0.353
-0.312
0.077
0.592
-0.090
-0.502
0.483
1.448
-0.485
-1.337
-0.158
0.327
0.399
0.141
0.057
0.509
-0.135
-0.580
-0.310
0.207
0.196
0.169
0.116
0.093
-0.050
-0.124
-0.054
0.018
0.118
0.017
0.021
0.054
0.065
0.033
0.017
0.052
0.065
-0.010
-0.071
-0.131
0.058
0.107
0.181
0.058
-0.129
-0.139
-0.020
-0.009
0.018
0.027
0.142
0.083
0.053
-0.420
-0.009
0.402
0.242
0.017
-0.154
-0.118
0.023
0.003
0.051
0.047
-0.042
0.133
0.029
0.064
-0.149
-0.090
0.096
0.108
0.055
0.054
-0.036
0.003
-0.049
0.043
0.001
0.167
0.035
0.112
1.011
-0.152
-1.414
-0.400
0.442
0.581
0.371
0.031
-0.051
-0.247
-0.284
-0.130
0.060
0.132
0.061
0.102
0.100
0.062
0.120
0.083
0.024
-0.030
0.099
-0.003
0.090
0.003
-0.025
0.017
-0.022
0.146
0.017
-0.013
0.030
0.214
0.251
-0.009
-0.409
-0.448
-0.023
0.307
0.294
0.204
-0.037
0.029
-0.048
-0.009
0.027
0.505
-0.164
-0.523
-0.097
0.198
0.234
0.255
0.256
0.070
-0.172
0.040
-0.060
-0.751
-0.076
0.550
0.426
0.101
-0.142
-0.153
0.065
0.420
1.034
-0.737
-1.332
0.020
0.527
0.561
0.242
-0.039
-0.015
-0.102
-0.517
-0.093
0.247
0.235
0.043
-0.052
-0.042
0.135
0.105
0.095
0.174
0.110
-0.075
-0.031
-0.051
0.030
0.040
0.016
0.121
0.015
-0.074
-0.054
0.134
0.045
0.078
0.026
-0.003
0.048
0.003
0.108
-0.025
0.042
0.025
0.076
0.056
-0.003
0.054
0.052
0.035
0.028
-0.085
-0.028
0.020
0.103
0.055
-0.001
-0.056
-0.049
0.050
0.112
0.046
0.075
0.013
0.248
0.125
-0.127
-0.452
-0.213
0.601
1.111
-0.871
-0.981
0.107
0.424
0.503
0.258
-0.089
-0.257
-0.221
-0.002
0.313
0.666
-0.170
-0.557
-0.030
0.211
0.274
0.239
0.150
-0.020
-0.103
-0.034
-0.023
0.004
-0.005
0.017
0.034
0.020
0.054
0.051
0.079
-0.013
0.012
-0.042
-0.096
0.094
0.177
0.125
0.111
-0.113
0.005
-0.048
-0.702
0.023
0.611
0.418
0.211
-0.063
-0.136
-0.050
-0.100
0.119
0.110
0.060
0.111
0.037
0.307
0.810
-0.713
-1.068
0.052
0.107
0.164
0.238
0.312
0.115
-0.092
-0.180
-0.114
-0.109
0.054
0.150
0.028
0.126
0.200
0.292
0.237
0.025
-0.050
-0.119
0.024
-0.009
0.013
0.027
0.070
0.024
-0.053
0.017
0.075
0.019
0.008
0.019
0.052
-0.028
0.027
0.151
-0.013
0.016
-0.019
0.001
0.021
-0.044
0.002
0.076
0.510
0.232
-0.487
-0.431
-0.000
0.120
0.190
0.223
0.161
-0.054
-0.065
-0.102
-0.030
0.017
0.015
0.086
-0.011
-0.002
0.035
0.166
0.076
0.097
0.133
0.065
0.069
0.039
-0.171
0.336
1.009
-0.736
-1.099
0.047
0.402
0.394
0.158
0.157
-0.019
-0.054
-0.103
-0.082
-0.140
-0.115
0.000
0.171
0.176
0.191
0.140
0.045
0.011
-0.153
-0.021
0.160
0.209
0.113
-0.209
-0.459
-0.123
0.235
0.585
0.469
-0.668
-0.374
0.429
0.472
-0.116
-0.428
-0.100
0.271
0.281
0.027
-0.039
-0.078
0.042
0.192
0.028
0.034
-0.009
-0.026
0.053
0.098
-0.046
-0.074
-0.160
0.038
0.066
0.096
0.037
0.017
-0.040
-0.015
0.132
0.253
0.408
0.161
0.137
-1.196
-0.861
0.457
0.730
0.583
0.189
-0.086
-0.199
-0.190
-0.205
-0.071
0.155
0.104
0.194
0.133
0.113
0.038
0.114
0.004
0.040
-0.016
-0.033
0.052
0.058
-0.025
0.079
-0.046
-0.032
0.002
0.082
0.114
0.012
-0.018
0.014
0.011
0.022
0.053
0.002
0.032
0.063
0.019
-0.007
0.027
0.054
-0.024
-0.101
-0.006
0.059
0.084
0.020
0.113
0.009
-0.038
0.029
-0.085
0.220
0.310
0.166
-0.286
-0.272
0.093
0.204
0.081
0.049
0.060
-0.008
0.062
0.028
0.882
-0.054
-1.411
-0.518
0.451
0.672
0.478
0.181
-0.050
-0.293
-0.216
-0.149
0.019
0.111
0.158
0.210
0.142
-0.319
-0.198
0.266
0.290
0.258
-0.067
-0.163
0.318
0.163
-0.174
-0.768
-0.559
0.551
0.694
0.275
0.078
-0.063
-0.198
-0.245
-0.075
0.015
0.101
0.161
0.098
-0.026
0.181
0.066
0.173
0.011
-0.175
0.014
-0.017
0.079
0.068
0.010
0.075
0.013
0.004
-0.040
0.092
0.040
0.129
0.106
0.014
0.028
0.024
0.034
0.000
0.106
0.007
0.032
0.021
-0.013
-0.004
-0.008
0.505
0.890
-0.914
-1.086
0.088
0.445
0.482
0.239
0.036
-0.123
0.043
0.116
-0.040
-0.289
-0.439
-0.071
0.271
0.526
0.299
-0.103
-0.004
0.123
-0.009
0.104
0.014
0.074
0.056
-0.049
0.055
-0.050
0.082
0.208
0.111
-0.036
0.061
0.046
-0.092
-0.167
0.006
0.133
0.563
-0.180
-0.574
-0.129
0.203
0.086
0.069
0.125
0.106
0.146
0.012
-0.068
-0.068
0.058
0.034
0.077
0.076
-0.279
0.040
0.352
0.203
0.042
0.020
-0.059
-0.062
-0.039
0.002
0.094
0.010
0.761
0.598
-1.272
-0.853
0.258
0.460
0.411
0.097
0.015
-0.122
-0.153
-0.026
-0.068
-0.018
0.088
0.087
0.086
0.151
0.070
0.119
0.019
0.035
0.073
0.090
0.001
0.027
0.124
0.197
-0.731
-0.210
0.623
0.509
0.048
-0.070
-0.118
-0.146
0.012
0.044
0.053
0.046
0.251
0.142
-0.136
-0.375
-0.079
0.190
0.267
0.034
-0.040
-0.027
-0.144
-0.052
0.033
-0.013
0.134
-0.094
0.029
0.238
0.233
0.198
0.061
-0.056
-0.105
-0.038
0.047
0.099
0.051
0.500
0.161
-0.542
-0.393
0.134
0.202
1.123
-0.164
-1.302
-0.252
0.409
0.442
0.186
-0.000
-0.063
-0.059
-0.073
-0.069
0.054
0.096
0.103
0.132
0.050
0.119
0.025
-0.007
0.054
-0.006
-0.012
0.014
-0.006
-0.003
-0.001
0.067
0.018
0.047
-0.032
0.011
0.176
0.105
-0.036
-0.251
-0.072
0.169
0.221
0.076
-0.013
0.006
0.210
-0.284
-0.551
0.097
0.435
0.276
0.071
-0.105
-0.180
0.038
0.080
0.063
0.071
0.048
0.069
0.129
0.007
0.040
-0.055
-0.043
0.050
0.171
0.118
0.084
0.101
0.020
0.025
0.880
0.332
-1.339
-1.021
0.026
0.744
0.038
0.039
0.558
0.301
-0.279
-0.318
-0.275
-0.080
0.039
0.243
0.136
0.192
0.142
0.242
0.589
-0.060
-0.642
-0.226
-0.064
0.037
0.179
0.268
0.097
-0.152
-0.187
-0.073
-0.049
0.105
0.164
0.080
0.083
0.206
-0.027
0.080
0.064
0.017
0.042
0.078
-0.028
0.091
-0.124
-0.085
0.072
0.033
0.076
0.042
-0.006
-0.016
0.020
0.042
0.102
0.033
-0.104
0.000
0.002
0.104
0.095
0.029
-0.013
-0.090
0.041
0.081
-0.013
0.883
0.074
-1.375
-0.590
0.330
0.629
0.525
0.147
0.015
-0.123
-0.202
-0.085
0.077
-0.064
0.070
0.043
0.070
0.103
0.087
0.042
0.096
0.090
-0.015
-0.020
-0.030
-0.020
0.095
0.053
-0.109
-0.023
0.035
0.061
0.075
0.108
0.001
-0.014
-0.205
-0.047
-0.001
0.239
0.228
0.093
0.012
-0.009
-0.028
-0.078
0.065
0.043
-0.006
0.029
-0.003
0.178
0.117
0.028
0.003
-0.037
-0.023
-0.024
0.067
0.141
0.142
-0.091
-0.457
-0.284
0.051
0.345
0.306
0.105
-0.006
-0.063
-0.063
-0.014
-0.014
0.019
0.883
0.507
-0.970
-0.743
0.064
-0.239
0.325
0.655
0.422
0.093
-0.190
-0.740
-0.276
0.187
0.270
0.193
0.028
0.005
-0.003
0.049
0.172
0.089
0.017
0.115
0.085
0.016
0.005
-0.011
-0.035
-0.004
-0.113
-0.064
0.079
0.047
0.136
0.067
0.128
0.107
0.061
-0.082
-0.055
-0.029
0.034
0.036
0.123
0.084
0.068
0.097
-0.021
-0.080
-0.049
0.022
0.057
0.094
0.040
0.109
-0.001
-0.003
0.010
0.054
-0.030
0.043
0.007
0.042
0.055
0.069
0.015
0.018
0.236
1.042
-0.591
-1.416
-0.041
0.500
0.513
0.292
0.037
-0.037
0.023
0.101
0.058
-0.222
-0.453
-0.167
0.214
0.430
0.300
0.021
-0.120
0.168
0.511
-0.135
-0.611
-0.360
0.079
0.197
0.262
0.231
0.053
-0.037
-0.172
-0.065
0.070
0.068
0.027
0.044
-0.178
0.025
0.213
0.175
0.069
-0.058
-0.108
-0.028
0.021
-0.035
-0.050
-0.028
0.079
0.030
0.113
0.018
0.136
-0.019
-0.146
-0.091
0.012
0.363
0.022
-0.732
0.082
1.528
0.383
-1.483
-0.602
0.343
0.287
-0.028
0.229
0.317
0.163
-0.130
-0.232
-0.114
-0.048
-0.019
0.085
0.074
0.099
0.127
0.067
0.136
-0.023
0.117
-0.002
0.025
-0.012
0.020
0.093
-0.020
-0.026
0.123
0.123
0.058
0.037
-0.159
-0.092
-0.048
-0.032
0.031
0.199
0.081
0.126
0.066
0.130
0.109
-0.019
-0.406
-0.346
0.024
0.393
0.239
0.378
0.433
-0.499
-0.720
-0.069
0.190
0.157
0.093
0.210
0.186
0.038
-0.032
0.072
0.012
-0.009
-0.071
0.524
0.747
-1.088
-0.806
0.247
0.476
0.372
0.169
-0.036
-0.111
-0.124
-0.089
-0.130
0.030
0.073
0.116
0.052
0.113
0.056
0.074
0.035
-0.042
-0.008
0.047
0.019
-0.004
0.127
0.004
-0.058
0.006
-0.168
-0.006
0.106
0.127
0.117
0.036
-0.038
0.052
-0.047
0.076
0.082
-0.059
0.106
0.050
0.099
-0.014
0.068
-0.023
0.131
-0.224
-0.260
0.206
0.297
0.225
-0.101
-0.234
-0.131
0.026
0.101
0.219
0.425
-0.585
-0.502
0.416
0.461
0.063
0.448
0.808
-1.150
-1.275
0.188
0.605
0.634
0.184
-0.065
-0.074
-0.102
-0.138
-0.080
0.039
0.130
0.086
0.075
0.148
0.062
-0.293
-0.179
0.197
0.332
0.176
0.364
0.270
-0.616
-0.638
-0.114
0.211
0.305
0.222
0.153
0.021
-0.049
-0.064
-0.046
-0.039
0.021
0.060
0.069
0.041
0.033
0.034
-0.124
0.027
0.125
0.150
0.071
-0.015
-0.025
0.005
0.018
0.054
0.102
0.087
-0.002
0.035
0.028
0.010
0.110
0.026
-0.003
-0.141
0.016
0.065
0.042
-0.080
-0.002
0.033
0.034
0.112
0.072
0.086
-0.008
0.065
0.530
0.505
-1.273
-0.909
0.263
0.617
0.524
0.219
0.083
-0.018
-0.151
-0.223
-0.247
-0.048
0.153
0.166
0.116
0.165
0.122
0.113
-0.073
0.074
-0.101
-0.381
0.174
0.470
0.320
-0.061
-0.241
-0.207
-0.080
0.042
0.126
0.039
0.079
0.037
0.008
-0.095
-0.006
0.025
0.002
0.152
0.042
0.021
0.040
-0.023
-0.034
0.070
0.040
-0.036
-0.042
0.039
0.072
0.167
0.086
0.044
-0.114
-0.053
0.353
-0.128
-0.601
0.171
0.553
0.303
-0.036
-0.026
-0.117
-0.086
-0.024
0.040
0.231
0.213
0.349
-0.341
-0.750
0.686
0.073
-1.074
-0.286
0.440
0.690
0.418
-0.038
-0.213
-0.238
-0.153
-0.113
0.051
0.123
0.197
0.227
0.187
0.146
0.067
0.063
-0.005
-0.042
-0.056
-0.038
0.014
0.066
-0.004
-0.011
-0.007
0.070
-0.007
-0.014
-0.022
0.077
0.029
0.066
0.040
-0.005
0.012
-0.050
0.039
0.119
0.045
0.057
-0.058
0.032
-0.049
0.004
0.087
0.050
0.117
0.020
-0.048
0.067
-0.032
0.095
0.004
0.079
0.150
0.101
0.006
-0.147
-0.145
-0.012
0.055
0.302
1.086
-0.246
-1.632
-0.709
0.455
0.875
0.553
0.077
-0.186
-0.203
-0.179
-0.085
-0.012
0.132
0.121
0.113
0.124
0.101
0.154
0.105
0.059
-0.004
-0.129
0.014
0.004
0.027
0.092
0.013
0.039
0.574
-0.163
-0.562
-0.321
0.121
0.191
0.160
0.227
0.043
-0.049
-0.058
-0.036
0.058
0.015
-0.003
-0.019
0.087
0.212
0.293
0.061
-0.128
-0.429
-0.147
0.191
0.374
0.213
0.011
-0.043
-0.090
-0.096
0.085
-0.162
-0.014
0.205
0.258
0.157
-0.009
-0.011
-0.023
0.058
0.066
0.066
0.034
-0.017
0.077
-0.077
-0.016
0.068
-0.011
0.585
0.520
-1.139
-0.686
0.214
0.637
0.635
-0.683
-0.302
0.578
0.319
0.010
-0.203
-0.175
-0.070
-0.031
0.090
0.048
0.165
0.173
0.028
-0.002
0.034
-0.021
0.060
0.115
-0.114
0.057
0.048
-0.207
-0.145
0.171
0.225
0.178
0.028
0.029
-0.008
-0.088
0.050
-0.006
0.088
-0.020
-0.327
-0.014
0.324
0.297
0.057
-0.136
-0.096
-0.058
0.042
-0.063
0.103
0.087
0.066
-0.095
-0.120
-0.037
0.072
0.160
0.047
0.102
-0.035
-0.037
-0.083
0.039
0.123
0.003
0.028
0.077
0.044
0.097
-0.022
-0.004
0.060
-0.054
0.025
-0.038
0.043
0.083
0.739
0.503
-1.290
-0.546
0.544
0.039
-0.093
0.115
0.225
0.098
0.066
-0.002
-0.059
-0.053
-0.051
0.013
0.069
-0.050
0.087
-0.017
-0.002
0.106
0.325
0.194
0.078
-0.085
-0.046
-0.009
-0.010
0.107
-0.041
0.056
-0.038
0.003
0.077
0.142
0.026
-0.096
-0.194
0.044
0.080
0.152
0.006
-0.009
0.002
-0.002
0.046
0.057
0.000
0.087
-0.224
-0.356
0.059
0.389
0.381
0.092
-0.062
-0.128
-0.104
-0.040
0.042
0.073
0.081
0.101
0.053
0.052
0.067
0.095
0.191
0.030
-0.444
-0.464
0.032
0.319
0.406
0.089
0.002
-0.032
-0.036
0.164
0.107
-0.690
-0.222
0.624
1.436
-0.219
-1.445
-0.261
0.444
0.449
0.192
-0.027
-0.076
-0.067
-0.043
-0.071
-0.065
0.023
0.023
0.129
0.056
0.013
0.044
0.114
0.041
0.088
0.034
0.069
-0.029
-0.012
0.008
0.009
0.089
0.103
0.409
0.280
-0.563
-0.641
0.068
0.222
0.294
0.185
0.171
0.007
-0.016
-0.087
-0.204
-0.179
-0.054
0.261
0.379
0.275
0.163
-0.020
-0.037
-0.161
-0.155
0.100
0.212
0.148
0.069
0.043
0.011
-0.051
-0.066
-0.012
0.012
-0.006
-0.006
0.029
0.050
0.102
0.957
0.372
-1.842
-0.806
0.527
0.877
0.493
0.003
-0.195
-0.106
-0.100
-0.075
-0.080
0.081
0.037
0.131
0.083
0.130
0.129
0.015
0.095
0.040
0.104
-0.005
-0.016
-0.000
0.034
0.075
-0.038
-0.017
-0.022
0.025
0.022
-0.011
0.040
-0.103
-0.039
0.150
0.338
0.083
-0.018
0.049
0.001
-0.093
0.036
0.071
0.172
0.188
0.077
-0.239
-0.456
-0.128
0.182
0.364
0.273
0.047
-0.165
-0.148
0.302
-0.557
-0.413
0.909
0.521
-0.390
-0.271
0.079
0.093
0.126
0.069
0.064
0.014
0.064
0.074
0.020
0.991
-0.315
-1.418
-0.193
0.479
0.609
0.314
0.013
-0.087
-0.102
-0.070
-0.105
0.012
0.213
0.116
-0.007
-0.211
-0.071
0.196
0.342
0.276
0.011
0.042
-0.108
-0.497
0.006
0.373
0.231
0.066
-0.086
-0.045
-0.031
-0.019
0.042
0.043
0.085
-0.011
0.034
0.124
-0.063
-0.001
-0.011
0.017
0.059
-0.053
-0.207
-0.006
0.165
0.249
0.082
-0.040
-0.053
-0.073
0.007
-0.035
0.148
0.005
0.079
-0.056
0.052
0.055
0.007
0.019
0.107
0.055
0.039
-0.096
0.021
0.021
0.022
0.084
0.073
0.144
1.035
-0.305
-1.444
-0.218
0.392
0.536
0.368
0.121
-0.083
-0.179
-0.071
-0.111
0.049
0.111
0.069
0.155
0.071
-0.070
0.103
0.033
0.038
-0.002
-0.030
0.127
0.122
0.519
0.408
-0.846
-1.019
-0.162
0.456
0.489
0.346
-0.023
-0.122
-0.163
-0.001
-0.007
0.007
0.058
0.025
0.081
0.035
0.181
0.159
0.055
0.096
0.096
-0.004
0.091
0.019
-0.083
-0.043
0.268
0.054
-0.695
-0.013
0.615
0.385
-0.073
0.016
0.524
0.507
-1.201
-0.963
0.171
0.637
0.455
0.201
0.079
-0.014
-0.476
-0.422
0.157
0.273
0.177
-0.021
-0.025
-0.064
0.124
0.216
0.133
0.008
0.182
0.077
0.068
0.041
-0.006
-0.077
-0.091
0.029
0.036
-0.091
0.050
0.011
0.067
0.076
0.010
-0.083
-0.071
0.032
0.036
0.159
0.099
0.051
0.028
0.131
0.024
-0.037
0.070
-0.035
0.001
0.043
0.142
-0.008
0.009
0.126
0.067
0.059
0.178
0.086
-0.145
-0.378
-0.259
0.061
0.420
0.285
0.039
-0.037
-0.037
-0.149
0.076
0.488
-0.226
-0.577
-0.072
0.210
0.325
0.266
0.293
0.057
-0.168
-0.142
-0.131
0.085
0.948
-0.211
-1.277
-0.136
0.468
0.447
0.288
0.034
-0.052
-0.115
-0.138
0.043
-0.046
-0.077
0.036
0.021
0.106
0.023
0.109
0.150
0.260
0.082
0.001
0.016
-0.063
-0.015
-0.022
-0.074
-0.145
0.027
0.353
0.168
-0.388
-0.025
0.297
0.216
-0.006
-0.115
-0.077
-0.010
0.061
0.108
0.088
-0.005
0.028
-0.022
0.015
0.030
0.081
0.054
0.034
-0.098
-0.158
-0.115
0.084
0.122
0.184
-0.019
0.006
0.037
0.145
0.229
-0.716
-0.287
0.540
0.451
0.113
0.460
0.773
-1.125
-1.271
0.082
0.642
0.523
0.214
0.134
0.130
-0.045
-0.244
-0.411
-0.356
0.249
0.336
0.281
0.024
0.073
0.045
0.421
0.141
-0.589
-0.471
0.138
0.291
0.126
0.228
0.179
-0.001
-0.058
-0.040
-0.017
-0.055
-0.025
0.012
-0.013
0.112
0.109
0.095
-0.013
-0.019
-0.020
0.033
0.110
0.032
0.029
0.051
-0.002
0.042
-0.012
0.019
0.005
0.077
0.024
0.050
-0.002
0.016
0.111
0.033
0.015
0.057
-0.015
0.235
1.066
-0.743
-1.382
-0.048
0.623
0.607
0.134
-0.022
0.112
0.017
-0.035
-0.207
-0.124
0.061
0.161
-0.200
0.015
0.392
0.356
0.125
-0.084
-0.130
0.029
-0.024
0.071
0.006
0.015
0.132
0.021
-0.053
0.014
0.064
-0.039
-0.003
0.039
-0.065
-0.020
0.036
0.071
0.043
0.091
-0.011
0.055
0.091
0.066
-0.104
-0.263
0.101
0.246
0.207
0.072
0.057
0.125
0.173
0.097
-0.264
-0.471
-0.221
0.128
0.459
0.332
0.114
-0.103
-0.080
-0.037
0.405
-0.220
-0.631
-0.247
0.343
0.320
0.187
0.274
0.492
0.814
-1.032
-1.306
0.169
0.361
0.501
0.270
0.025
-0.152
-0.099
-0.044
-0.036
-0.015
0.052
0.101
0.064
0.070
0.051
0.079
0.102
0.174
0.080
0.027
0.024
0.350
-0.408
-0.665
0.254
0.568
0.195
0.001
-0.126
-0.055
-0.075
-0.004
0.043
0.057
0.122
-0.051
0.049
0.053
0.004
0.056
-0.014
-0.020
0.027
0.034
0.036
0.069
-0.146
0.059
0.183
0.165
0.039
-0.069
-0.041
0.082
0.074
0.090
0.104
0.111
-0.369
-0.182
0.272
0.318
0.208
-0.039
-0.179
-0.160
-0.082
0.061
0.193
0.159
0.030
-0.056
0.049
-0.014
0.078
0.103
1.000
-0.214
-1.420
-0.397
0.404
0.584
0.386
0.101
-0.009
-0.112
-0.033
-0.058
0.071
0.074
0.116
0.113
0.044
0.108
0.081
0.000
0.094
0.043
-0.010
-0.070
-0.025
-0.021
-0.012
0.064
0.134
0.187
-0.072
-0.040
-0.058
-0.378
-0.244
0.248
0.180
0.181
0.170
-0.014
-0.059
-0.106
-0.041
-0.014
0.077
0.125
0.088
0.026
0.111
0.022
0.070
0.025
0.095
0.040
0.048
-0.014
0.018
-0.022
-0.023
0.008
0.104
0.037
0.093
0.006
-0.023
0.074
0.091
-0.011
-0.084
0.061
0.078
0.144
-0.020
-0.148
-0.054
0.149
0.076
0.100
0.537
0.730
-1.105
-1.107
0.188
0.559
0.525
0.166
-0.013
-0.044
-0.082
-0.035
-0.268
-0.038
0.241
0.282
0.150
-0.089
-0.174
-0.039
0.050
0.079
0.184
0.072
0.047
-0.135
-0.429
0.134
0.414
0.387
-0.041
-0.172
-0.204
0.019
0.051
0.169
0.128
0.080
0.028
0.155
0.029
-0.044
-0.037
-0.025
0.075
-0.009
0.070
0.025
0.011
-0.116
0.078
0.040
0.104
-0.011
0.035
0.088
0.070
-0.037
-0.022
0.032
0.022
0.127
0.060
0.110
0.332
-0.332
-0.694
0.143
0.527
0.358
0.289
1.014
-0.371
-2.145
-0.671
1.272
1.032
0.027
-0.581
-0.126
0.070
0.121
0.167
-0.047
-0.201
-0.077
-0.028
0.117
0.129
0.174
0.159
0.024
0.114
0.044
0.016
0.052
0.009
-0.069
-0.059
-0.008
0.042
0.045
0.071
0.141
0.026
0.017
0.052
-0.089
0.073
0.029
-0.073
-0.066
0.025
0.073
0.057
0.003
0.046
0.118
0.029
0.012
-0.087
0.088
0.070
0.025
0.024
0.005
0.036
0.001
0.003
0.085
0.023
0.052
-0.265
-0.228
0.207
0.296
0.294
0.038
-0.074
-0.146
-0.054
0.035
0.042
0.082
0.065
0.155
0.094
-0.030
0.008
0.093
-0.014
0.082
0.870
0.103
-1.388
-0.565
0.377
0.625
0.376
0.091
0.021
-0.121
-0.129
-0.157
-0.115
0.030
0.115
0.127
0.112
0.060
0.157
0.138
0.043
-0.023
0.061
-0.021
-0.109
-0.035
0.081
0.005
-0.005
0.002
0.056
0.039
0.047
0.082
0.055
0.145
-0.088
-0.106
-0.005
0.487
0.346
-0.546
-0.455
0.013
0.094
0.175
0.203
0.053
0.078
0.095
-0.006
-0.062
0.032
0.105
0.206
-0.075
-0.390
-0.299
0.178
0.421
0.383
0.084
-0.071
-0.308
-0.237
0.002
0.030
0.162
0.152
0.064
0.016
0.003
0.054
0.172
0.145
0.582
0.608
-1.242
-1.062
0.211
0.566
0.610
0.231
-0.073
-0.107
-0.078
0.235
-0.720
-0.620
0.405
0.637
-0.180
0.042
0.300
0.293
0.035
-0.103
-0.169
-0.029
0.010
0.022
0.056
0.121
0.097
-0.028
-0.032
0.050
-0.009
0.046
0.059
0.029
-0.056
0.024
0.051
0.076
-0.046
-0.034
0.113
0.253
0.198
-0.036
-0.076
-0.092
-0.041
0.077
0.044
0.022
0.142
0.128
-0.114
-0.124
0.020
0.007
0.054
0.093
0.087
0.026
0.079
0.024
0.024
0.022
0.012
0.051
0.033
0.114
0.001
0.054
-0.002
0.038
0.053
0.020
0.019
-0.002
-0.027
0.176
1.005
-0.419
-0.838
-0.207
-0.191
0.243
0.464
0.198
0.138
0.082
-0.158
-0.257
-0.071
-0.046
0.233
0.052
0.116
0.056
0.055
0.116
0.137
0.050
0.024
-0.005
0.020
0.037
0.012
0.036
0.001
-0.015
0.031
-0.003
-0.087
-0.005
0.086
0.005
0.054
0.002
0.009
0.070
0.048
0.061
0.023
-0.066
0.083
-0.018
0.081
0.159
0.200
-0.226
0.084
0.143
-0.216
-0.223
0.094
0.282
0.192
0.104
-0.003
-0.055
-0.022
-0.114
-0.019
0.024
0.053
0.149
0.085
0.130
0.021
0.015
-0.011
0.038
0.028
0.008
-0.043
0.103
0.026
0.096
0.031
-0.004
0.069
0.012
0.530
0.683
-1.072
-0.997
0.249
0.535
0.445
0.071
-0.058
-0.112
-0.027
-0.037
-0.048
0.033
0.196
0.090
0.053
0.073
0.093
0.099
0.083
-0.052
0.018
0.037
0.094
0.080
0.042
-0.086
0.011
-0.031
-0.129
-0.009
0.121
0.167
-0.010
0.110
0.092
0.041
-0.071
-0.044
-0.012
0.113
0.075
0.045
-0.029
0.343
0.320
-0.743
-0.311
0.638
0.703
-0.369
-0.606
-0.055
0.075
0.119
0.232
0.085
0.030
-0.035
0.004
0.048
0.019
0.096
0.086
0.014
0.110
0.060
0.057
0.046
0.107
0.069
-0.044
-0.034
0.047
-0.009
0.072
0.094
-0.016
-0.110
-0.079
0.046
0.302
1.020
-0.826
-1.197
0.230
0.612
0.207
-0.053
0.185
0.248
0.031
-0.150
-0.288
-0.031
0.060
0.041
0.144
0.114
0.209
0.052
0.089
0.008
0.013
-0.063
-0.017
0.030
-0.022
-0.034
0.058
0.065
0.043
-0.014
0.029
-0.001
0.025
0.052
0.010
-0.008
0.020
0.093
0.023
0.113
0.033
-0.038
-0.025
0.024
0.122
0.111
0.016
0.058
0.030
0.109
0.080
0.047
0.018
-0.031
-0.113
0.080
0.227
0.058
-0.036
0.047
0.013
-0.027
0.108
0.115
0.055
-0.016
-0.016
-0.012
-0.043
0.047
0.019
0.026
-0.001
0.055
0.064
-0.028
0.065
-0.024
0.126
-0.061
0.050
0.057
0.074
-0.007
0.452
0.784
-1.010
-0.984
0.188
0.549
0.465
0.158
-0.096
-0.158
-0.112
-0.044
-0.021
0.059
0.053
0.193
0.403
0.171
-0.317
-0.333
-0.061
0.381
0.426
0.505
0.409
-0.591
-0.640
-0.137
0.030
0.126
0.150
0.168
0.206
-0.079
-0.088
-0.016
0.061
-0.007
-0.079
0.058
0.059
0.226
-0.098
-0.252
0.115
0.295
0.361
-0.017
-0.084
-0.124
-0.218
-0.038
0.047
0.090
0.098
0.063
0.065
0.022
0.058
0.106
-0.028
-0.022
-0.057
-0.057
0.068
0.124
0.008
-0.039
0.098
0.037
0.049
0.011
-0.023
0.040
-0.004
0.004
-0.004
0.146
0.085
0.073
0.024
-0.013
0.066
-0.036
0.768
0.302
-1.387
-0.746
0.340
0.608
0.421
0.068
-0.043
-0.093
-0.080
-0.002
-0.050
0.048
0.057
0.041
0.030
0.074
0.222
0.121
0.088
0.018
0.026
-0.003
-0.021
0.010
0.049
-0.040
-0.005
0.001
0.064
0.022
-0.016
0.093
-0.051
0.042
-0.176
-0.052
0.215
0.212
0.125
-0.042
-0.039
-0.055
0.166
0.167
-0.745
-0.057
0.581
0.412
0.126
-0.143
-0.159
-0.070
-0.106
0.055
0.028
0.160
0.006
0.013
0.092
0.103
0.040
0.006
-0.030
0.037
-0.031
-0.036
0.009
0.062
0.040
-0.107
-0.022
0.155
0.164
0.074
0.077
-0.031
-0.043
0.009
0.052
0.075
0.098
0.048
0.017
0.004
-0.010
0.048
0.372
0.359
-0.367
-0.568
-0.460
0.687
1.190
-0.821
-1.011
0.105
0.465
0.494
0.055
-0.109
-0.357
-0.088
0.018
0.064
0.209
0.142
0.087
0.057
0.029
0.031
-0.120
-0.027
0.066
0.030
0.037
0.085
0.136
0.074
0.091
-0.070
0.020
-0.012
-0.044
0.005
0.062
-0.008
0.130
0.094
0.032
0.012
-0.045
0.046
-0.016
0.063
-0.004
-0.019
-0.032
0.056
0.004
0.076
0.029
0.036
0.009
-0.008
0.012
0.062
0.068
0.093
0.069
0.004
-0.015
0.149
0.060
0.007
0.030
-0.002
0.112
0.047
0.031
-0.113
0.040
0.080
0.048
-0.051
0.041
0.052
0.006
0.077
0.009
0.019
0.055
0.048
0.111
0.034
-0.017
0.052
0.225
0.983
0.272
-1.894
-1.028
0.479
0.966
0.657
0.176
-0.143
-0.242
-0.178
-0.164
-0.080
0.029
0.074
0.171
-0.060
0.114
0.304
0.223
0.103
-0.020
-0.091
-0.096
0.008
0.032
-0.010
0.151
0.098
-0.024
-0.114
-0.061
0.069
0.150
0.385
-0.697
-0.342
0.721
0.951
-0.179
-0.702
-0.141
0.021
0.215
-0.026
-0.175
0.306
0.317
0.202
-0.133
-0.182
-0.030
-0.043
0.027
0.054
0.090
0.090
0.072
0.102
0.003
-0.035
0.012
0.083
-0.052
0.003
-0.053
0.038
0.052
0.051
0.037
-0.027
0.040
0.036
0.123
0.035
0.036
-0.056
0.092
1.094
-0.313
-1.433
-0.289
0.464
0.662
0.342
0.019
-0.046
-0.108
-0.080
-0.145
-0.066
-0.011
0.097
0.081
0.089
0.205
0.096
0.079
0.131
0.052
-0.004
-0.048
0.018
-0.039
0.119
0.071
-0.008
0.046
-0.032
-0.001
-0.004
0.080
0.056
0.118
-0.001
-0.020
0.004
0.023
0.043
0.047
-0.009
0.019
0.033
0.119
-0.012
-0.005
0.075
0.042
0.050
0.039
0.041
0.159
-0.079
-0.056
-0.055
0.047
0.030
-0.015
0.061
0.049
0.070
-0.016
-0.043
0.022
0.057
0.078
-0.005
0.050
-0.057
0.037
0.062
0.086
0.080
0.031
0.076
0.040
0.051
0.024
0.060
-0.029
-0.019
0.006
0.046
0.081
-0.010
0.114
-0.163
-0.262
0.141
0.161
0.254
0.253
0.063
0.118
0.926
-0.496
-1.431
-0.250
0.455
0.619
0.427
0.098
-0.184
-0.201
-0.123
-0.160
0.027
0.062
0.060
0.100
0.098
0.097
0.364
0.396
-0.376
-0.543
0.075
0.156
0.167
0.146
0.097
0.002
-0.054
-0.116
-0.078
0.002
-0.005
0.064
0.091
0.054
0.094
-0.009
0.050
0.043
-0.011
0.059
0.032
-0.008
0.086
0.048
-0.066
0.002
0.099
0.057
0.033
0.060
-0.026
0.084
0.066
0.071
0.024
0.058
0.043
-0.034
-0.001
0.015
0.034
0.064
0.097
0.024
0.016
-0.080
0.025
0.011
0.045
0.083
0.000
0.061
0.068
0.002
-0.012
0.300
0.976
-0.789
-1.254
0.128
0.471
0.521
0.300
0.052
-0.130
-0.128
-0.112
-0.116
-0.006
0.040
0.012
0.065
0.152
0.039
0.062
0.069
0.029
0.051
0.120
-0.054
-0.014
0.160
0.004
0.044
0.044
0.060
-0.031
0.078
0.048
0.017
-0.001
0.015
0.552
-0.305
-0.725
-0.154
0.646
0.568
0.210
-0.150
-0.210
-0.190
-0.057
0.093
0.070
0.077
0.172
0.112
0.250
0.070
-0.095
-0.362
-0.569
-0.027
0.409
0.460
0.186
-0.062
-0.083
-0.185
-0.145
0.029
0.171
0.117
0.111
0.184
0.072
0.039
-0.017
-0.012
0.026
-0.024
0.035
0.567
0.668
-1.219
-1.046
0.179
0.579
0.465
0.172
0.043
0.358
0.016
-0.855
-0.688
0.048
0.271
0.415
0.313
0.218
0.013
0.011
-0.074
-0.031
-0.055
-0.030
0.060
0.094
0.088
0.039
-0.004
0.009
0.102
0.077
-0.011
-0.018
0.032
-0.006
0.011
0.155
0.085
-0.014
-0.088
-0.123
-0.048
0.130
0.118
0.162
0.053
-0.072
-0.014
-0.077
0.005
0.094
0.046
-0.035
0.029
0.015
0.117
0.000
-0.019
0.072
0.005
0.076
0.032
0.012
0.040
0.048
-0.021
0.058
0.065
0.047
0.013
0.019
0.015
0.050
0.063
0.030
-0.006
0.125
0.060
1.068
-0.157
-1.464
-0.378
0.365
0.618
0.350
-0.327
0.041
0.236
0.166
-0.101
-0.132
-0.138
-0.134
-0.004
0.180
0.293
0.176
0.124
0.020
-0.022
-0.083
-0.090
-0.046
0.015
0.052
0.134
0.055
-0.099
-0.125
0.085
0.028
0.117
0.045
0.026
0.005
-0.036
-0.058
0.160
0.202
0.032
0.031
-0.039
-0.057
0.075
0.032
0.097
0.047
-0.013
0.050
-0.099
0.062
0.203
0.033
0.020
-0.031
0.008
0.023
-0.020
0.023
0.015
-0.003
0.036
0.099
0.060
-0.066
0.076
-0.001
-0.036
-0.023
0.035
0.049
0.075
0.029
0.009
-0.019
0.051
-0.008
0.092
0.055
0.009
0.042
0.122
0.022
0.016
0.066
0.050
0.029
0.086
0.033
0.012
0.040
0.148
1.056
-0.527
-1.398
-0.097
0.441
0.621
0.318
-0.034
-0.073
-0.121
-0.102
-0.158
-0.005
-0.034
0.095
0.121
0.106
0.192
-0.256
-0.092
0.211
0.327
0.147
0.110
0.480
-0.326
-0.619
-0.210
0.024
0.162
0.252
0.204
0.193
0.000
-0.111
-0.177
-0.007
-0.119
0.091
0.064
0.046
0.200
0.228
0.005
-0.287
-0.422
-0.011
0.403
0.281
0.166
0.107
-0.134
-0.115
-0.100
0.053
0.046
0.078
0.127
-0.182
-0.061
0.122
0.270
0.344
0.433
-0.824
-0.526
0.291
0.326
0.164
0.058
0.027
0.044
-0.049
-0.073
-0.007
-0.033
0.024
0.037
0.192
1.114
-0.271
-1.470
-0.265
0.507
0.581
0.254
-0.050
-0.140
-0.142
-0.160
-0.065
-0.001
0.062
0.050
0.167
0.089
0.077
0.040
0.065
0.036
0.116
0.042
0.050
-0.108
-0.049
0.071
0.137
0.096
0.004
-0.053
-0.053
0.013
0.115
0.062
-0.012
0.046
0.044
0.071
0.066
-0.003
-0.050
0.107
-0.008
-0.015
0.058
0.120
0.016
0.184
-0.042
-0.057
0.025
0.006
0.096
0.031
0.065
0.176
0.022
-0.006
-0.038
-0.060
0.009
0.055
0.068
0.165
0.019
-0.335
0.109
0.327
0.183
0.090
-0.071
-0.070
-0.054
0.366
1.058
-0.912
-1.129
0.071
0.534
0.568
0.359
0.474
-0.450
-0.814
-0.246
0.054
0.130
0.258
0.290
0.182
-0.002
-0.025
0.003
0.017
-0.033
0.141
0.063
0.087
-0.006
0.089
0.055
0.045
0.085
0.008
0.117
-0.045
0.068
0.145
0.105
-0.065
-0.006
0.018
0.078
0.078
0.036
-0.049
0.004
0.006
0.062
-0.121
-0.015
0.096
0.170
0.195
0.145
-0.058
-0.307
-0.417
-0.193
0.272
0.418
0.169
-0.031
-0.105
-0.061
-0.053
-0.027
0.996
0.102
-1.451
-0.407
0.478
0.651
0.711
-0.149
-0.745
0.010
0.391
0.094
-0.302
-0.084
-0.012
0.087
0.090
0.132
0.129
0.014
0.155
0.045
-0.019
0.014
-0.147
0.018
0.254
0.040
-0.399
0.013
0.319
0.260
0.104
-0.159
-0.108
-0.028
0.001
0.108
0.137
0.068
0.058
0.012
0.016
-0.057
0.016
-0.022
0.006
-0.026
-0.053
0.046
0.022
0.014
-0.013
0.118
0.081
0.019
-0.003
-0.006
0.055
0.026
0.020
-0.008
0.032
0.072
0.015
0.081
0.071
0.102
0.106
-0.027
-0.099
-0.037
0.101
0.076
0.088
0.015
0.017
0.003
-0.013
-0.029
0.003
0.744
0.534
-1.344
-0.802
0.241
0.564
0.485
0.209
0.267
0.184
-0.548
-0.649
-0.071
0.143
0.284
0.247
0.179
0.080
0.008
0.037
0.033
0.029
0.034
0.038
0.156
0.025
0.006
-0.134
-0.010
0.196
0.120
0.065
-0.093
-0.102
-0.014
0.064
-0.055
0.023
0.109
0.102
0.059
0.069
0.007
0.022
0.154
0.185
0.094
-0.249
-0.859
-0.130
0.877
0.123
-0.347
0.192
0.389
0.031
-0.160
-0.082
-0.001
0.000
-0.015
0.186
0.207
0.159
0.083
0.873
0.292
-1.408
-0.623
0.271
0.508
0.210
-0.128
-0.071
0.092
-0.102
-0.090
-0.013
0.074
0.066
0.028
-0.023
0.152
0.096
0.148
0.120
0.042
0.106
0.082
-0.008
-0.015
0.009
-0.025
0.007
0.013
0.041
-0.015
0.007
-0.000
0.049
0.089
-0.059
-0.018
0.059
0.083
-0.069
-0.010
-0.008
0.070
0.101
0.131
0.036
-0.024
-0.102
0.033
0.096
-0.014
-0.021
0.109
0.009
0.017
0.079
-0.007
-0.016
0.072
0.048
-0.086
0.093
0.011
0.033
0.065
-0.024
0.024
0.052
0.052
0.080
-0.010
0.072
0.052
-0.013
0.097
0.116
0.037
0.020
0.029
0.005
-0.029
0.041
-0.033
0.095
0.550
0.245
-0.923
-0.570
0.382
0.584
1.458
-0.213
-1.486
-0.430
0.285
0.452
0.210
0.051
0.115
-0.024
-0.089
-0.085
-0.051
-0.006
0.077
0.132
0.122
0.099
0.046
0.064
-0.014
0.076
-0.017
0.036
-0.037
-0.029
0.018
-0.003
-0.110
0.010
0.130
0.307
0.206
0.008
-0.092
-0.062
0.016
0.001
0.084
0.054
0.023
0.062
-0.001
0.074
0.042
0.115
-0.028
-0.027
-0.016
-0.037
0.071
0.199
0.296
0.098
-0.291
-0.445
0.033
0.225
0.323
0.092
0.035
-0.051
-0.094
-0.036
-0.047
-0.076
-0.038
0.146
0.215
0.185
0.155
-0.056
-0.091
-0.033
0.050
0.177
0.118
0.138
0.122
1.059
-0.207
-1.765
-0.526
0.430
0.791
0.509
0.145
-0.141
-0.082
0.218
-0.870
-0.318
0.521
0.548
0.295
0.135
0.021
-0.012
0.048
-0.275
-0.194
0.231
0.376
0.223
-0.028
-0.119
-0.107
-0.054
-0.028
-0.045
-0.029
-0.030
0.079
0.123
0.087
0.004
0.049
0.062
0.079
-0.066
-0.033
0.045
0.065
0.083
-0.010
0.022
0.015
0.135
0.086
0.008
-0.058
0.009
0.082
-0.039
0.094
0.184
0.531
-0.205
-0.626
-0.240
0.225
0.141
0.031
0.173
0.192
0.065
-0.054
-0.026
0.843
-0.033
-1.441
-0.335
0.398
0.577
0.267
0.213
0.167
-0.069
-0.136
-0.133
-0.027
-0.066
0.005
0.107
0.154
0.091
0.062
-0.011
-0.030
0.000
0.070
0.026
0.031
0.020
0.044
-0.076
0.069
0.035
0.032
0.018
0.002
-0.036
-0.008
0.005
0.089
0.127
0.115
0.025
0.017
-0.047
0.092
-0.021
0.040
0.006
0.039
0.079
0.023
0.072
0.058
0.040
0.065
0.001
-0.012
0.043
0.034
0.146
0.006
0.068
0.154
0.134
-0.066
-0.363
-0.263
0.149
0.232
0.359
0.168
-0.064
-0.089
-0.091
-0.044
0.042
0.050
-0.004
0.284
1.053
-1.061
-1.204
0.494
0.884
0.290
-0.067
-0.269
-0.154
-0.012
0.094
-0.049
0.019
0.044
0.153
0.117
0.110
0.047
0.011
0.090
0.013
-0.018
0.027
-0.038
-0.023
0.098
-0.025
0.016
-0.015
-0.000
-0.040
-0.027
-0.046
0.047
0.074
0.024
0.038
0.079
0.037
0.027
0.040
-0.006
0.087
-0.056
0.070
0.636
-0.005
-0.998
-0.363
0.413
0.488
0.255
0.264
0.067
-0.147
-0.198
-0.169
-0.150
0.044
0.045
0.107
0.096
0.039
0.092
0.035
0.137
0.046
-0.043
-0.148
-0.189
0.052
0.253
0.176
0.019
-0.032
-0.090
0.046
0.034
0.893
0.240
-1.357
-0.540
0.282
0.573
0.420
0.130
-0.038
-0.102
-0.176
-0.077
0.042
-0.034
-0.086
0.017
0.106
0.184
0.168
0.079
-0.001
-0.005
-0.027
0.092
0.109
0.044
-0.120
-0.104
0.185
0.245
0.142
-0.286
-0.054
0.235
0.259
0.121
-0.105
-0.114
-0.105
0.005
0.048
0.123
0.129
0.124
-0.011
-0.009
0.023
-0.072
0.065
0.030
-0.020
0.062
0.083
0.044
0.036
0.006
0.004
0.046
0.078
0.042
-0.050
0.025
0.140
0.058
0.077
0.033
0.039
0.121
-0.012
-0.048
0.072
0.173
0.200
0.036
-0.169
-0.391
-0.232
0.178
0.378
0.217
0.102
0.961
0.057
-1.569
-0.725
0.189
0.801
1.016
-0.045
-0.508
-0.210
0.006
0.253
0.092
0.084
0.063
-0.001
0.000
-0.000
0.020
0.027
0.047
0.118
0.087
0.084
-0.037
-0.016
0.013
0.007
0.019
0.013
-0.005
0.044
0.086
0.006
-0.103
0.001
-0.005
-0.157
0.049
0.221
0.194
0.126
-0.100
-0.100
-0.048
0.021
0.036
0.040
0.053
0.060
0.086
-0.367
-0.128
0.295
0.312
0.272
-0.069
-0.135
-0.089
0.030
0.016
0.011
0.023
0.090
0.041
0.038
0.139
0.365
-0.651
-0.458
1.155
0.834
-1.193
-0.872
0.248
0.470
0.364
0.035
0.003
0.009
-0.123
-0.083
-0.072
0.012
0.020
0.159
0.019
0.091
0.036
0.042
0.035
-0.051
0.006
0.064
0.011
-0.046
-0.021
-0.039
0.120
0.259
0.143
0.064
-0.093
-0.147
0.016
0.121
0.015
0.033
0.008
0.055
0.087
-0.070
0.060
-0.012
-0.084
0.054
0.080
-0.007
-0.030
0.007
0.050
-0.021
0.069
0.140
0.085
-0.012
0.024
0.027
-0.046
-0.016
0.069
0.110
0.178
0.103
-0.100
-0.003
0.614
-0.030
-0.558
-0.253
0.135
0.242
0.182
0.267
0.056
0.017
0.015
0.109
-0.178
-0.374
-0.323
0.093
0.464
1.197
0.315
-1.490
-0.681
0.215
0.507
0.372
0.180
-0.330
-0.168
0.186
0.167
0.129
-0.027
-0.025
0.022
0.071
0.033
0.143
0.143
0.063
-0.072
-0.037
0.014
0.070
0.113
0.063
-0.006
0.010
-0.011
-0.042
0.034
0.072
0.054
0.106
-0.011
-0.051
0.049
0.123
0.004
-0.096
-0.128
0.089
0.095
0.066
0.088
-0.063
-0.019
0.023
0.067
0.020
0.104
-0.020
0.017
0.030
0.050
0.040
-0.046
-0.002
0.059
0.015
-0.008
0.018
0.045
0.332
0.996
-0.804
-1.252
0.060
0.384
0.553
0.348
0.031
-0.279
-0.147
0.007
-0.069
-0.002
0.097
0.067
0.081
0.085
0.074
0.058
0.022
0.084
0.002
0.001
0.061
0.011
-0.015
0.022
0.033
-0.071
-0.041
0.030
0.027
0.064
-0.008
0.027
0.057
0.082
0.000
0.050
-0.032
0.039
0.061
0.005
0.010
0.089
0.075
0.033
0.056
-0.028
0.065
0.040
0.006
-0.008
0.027
0.021
0.032
0.069
-0.042
-0.446
-0.063
0.401
0.384
0.125
-0.074
-0.112
-0.073
-0.010
0.023
0.075
0.005
-0.024
0.162
0.598
0.306
-0.257
-1.101
-0.386
0.567
0.574
0.476
0.200
-0.194
-0.486
-0.456
-0.038
0.377
0.406
0.177
0.381
0.865
-0.939
-1.367
0.025
0.516
0.569
0.245
0.102
-0.066
-0.066
-0.063
-0.183
-0.050
0.096
0.088
0.104
0.085
0.048
0.074
0.050
0.041
0.035
0.042
-0.087
-0.185
0.060
0.188
0.161
0.077
0.106
0.013
-0.070
0.011
-0.112
0.019
0.004
0.034
0.054
0.070
0.169
0.029
0.013
-0.023
0.044
-0.018
0.045
-0.038
-0.001
0.057
0.051
-0.018
0.004
-0.017
0.002
0.113
0.096
0.007
-0.025
0.046
0.111
0.022
0.049
0.031
0.023
0.065
0.030
0.004
0.009
0.050
-0.001
0.101
0.021
0.039
0.084
0.012
0.026
0.110
-0.025
0.108
-0.051
0.010
-0.039
-0.016
0.102
0.235
0.885
-0.675
-1.178
0.039
0.474
0.365
0.137
-0.003
-0.009
0.011
-0.092
-0.121
-0.152
0.146
0.102
0.144
0.058
0.075
0.099
0.047
-0.008
-0.015
0.025
0.039
0.055
0.021
0.060
0.006
0.020
-0.052
-0.060
0.013
0.043
0.044
0.049
0.157
0.113
-0.059
0.005
-0.005
0.057
0.096
0.062
0.050
0.043
-0.022
-0.016
0.028
0.005
0.013
0.021
-0.045
0.082
0.013
0.107
0.004
0.038
0.098
0.020
-0.066
-0.150
0.042
0.207
0.213
0.078
-0.034
-0.067
-0.071
0.005
0.106
0.053
0.114
0.001
-0.042
0.052
-0.042
0.123
-0.019
-0.007
0.008
0.015
0.027
-0.013
0.102
0.024
-0.018
0.101
0.040
0.015
0.089
0.091
-0.051
-0.079
0.038
0.881
0.333
-1.455
-0.627
0.323
0.654
0.675
0.533
-0.430
-0.755
-0.303
-0.049
0.054
0.220
0.261
0.223
0.096
-0.034
-0.041
-0.064
0.062
0.122
0.125
-0.009
-0.423
0.040
0.388
0.476
0.353
-0.049
-0.411
-0.638
-0.232
0.203
0.360
0.222
0.083
0.058
-0.121
0.005
-0.041
-0.101
-0.047
-0.022
0.040
0.126
0.165
0.087
-0.029
-0.034
0.007
0.045
0.422
-0.432
-0.659
0.203
0.630
0.291
0.080
0.046
-0.170
-0.125
-0.062
0.020
0.082
-0.000
0.035
-0.043
0.060
0.084
0.087
0.015
0.026
0.062
-0.004
-0.015
-0.009
0.004
0.968
0.107
-1.405
-0.445
0.325
0.591
0.455
0.067
-0.155
-0.104
-0.114
-0.146
-0.046
0.038
0.093
0.102
0.101
0.140
0.083
0.047
0.088
0.061
-0.028
-0.029
-0.026
-0.065
-0.052
0.029
0.017
-0.003
0.090
0.033
0.013
-0.025
0.026
-0.043
0.106
0.123
-0.105
-0.087
0.241
0.179
0.031
-0.063
-0.074
-0.080
0.014
0.092
0.013
0.018
0.210
0.066
0.044
0.048
0.016
0.021
0.014
-0.050
-0.077
-0.036
0.076
0.154
0.094
-0.515
-0.076
0.277
0.326
0.093
-0.067
-0.045
0.461
0.065
-0.668
-0.316
0.157
0.607
1.260
-0.478
-1.192
-0.215
0.257
0.329
0.202
0.079
0.028
-0.002
-0.083
-0.166
-0.015
0.086
0.091
0.118
0.156
0.114
0.059
0.068
0.034
0.060
0.030
-0.067
-0.038
0.035
0.042
0.017
-0.000
0.033
0.014
-0.018
0.035
0.085
0.100
0.023
0.029
-0.018
-0.043
-0.038
0.061
0.010
0.043
0.028
0.127
0.157
0.173
-0.041
-0.409
-0.346
0.023
0.294
0.264
0.088
0.059
0.026
-0.007
0.062
0.003
-0.014
-0.077
0.072
0.135
0.109
0.100
-0.026
-0.005
0.041
-0.066
0.016
0.075
-0.087
-0.114
-0.046
0.092
0.280
1.223
-0.494
-1.548
-0.140
0.431
0.635
0.250
0.100
0.075
-0.018
-0.050
-0.293
-0.101
0.013
0.050
0.032
0.163
0.072
-0.321
0.096
0.344
0.333
0.041
0.286
-0.129
-0.515
-0.256
0.100
0.202
0.225
0.214
0.013
-0.024
-0.030
-0.056
0.042
0.021
0.052
-0.018
-0.021
0.034
0.080
0.495
-0.178
-0.622
0.142
0.547
0.270
-0.045
-0.160
-0.058
-0.043
-0.004
-0.020
0.071
0.085
0.084
0.092
0.060
0.022
-0.030
-0.034
0.016
0.027
0.077
-0.047
-0.022
-0.040
0.108
0.029
0.072
0.165
0.108
-0.016
0.030
0.055
0.087
0.033
0.007
0.115
0.261
1.012
-0.735
-1.356
-0.020
0.475
0.541
0.239
-0.035
-0.028
-0.065
-0.127
-0.098
0.090
0.067
0.043
0.025
0.149
0.189
0.204
0.051
0.170
0.098
-0.322
-0.494
-0.113
0.259
0.447
0.210
0.141
-0.111
-0.137
-0.068
-0.042
-0.042
-0.014
0.115
0.090
0.154
0.094
0.098
0.053
0.109
-0.298
-0.161
0.270
0.343
0.141
-0.084
-0.114
0.100
0.460
-0.236
-0.608
-0.093
0.106
0.318
0.188
0.050
-0.001
0.134
0.107
-0.006
-0.102
-0.081
0.071
-0.040
0.101
0.101
0.097
0.032
0.091
0.050
-0.017
-0.049
-0.062
0.021
0.089
0.479
0.905
-1.000
-1.159
-0.016
0.452
0.495
0.262
0.051
0.006
-0.158
-0.032
-0.164
-0.062
0.154
0.166
0.102
0.406
-0.062
-0.748
0.073
0.550
0.337
0.062
-0.016
-0.103
-0.140
-0.093
-0.013
0.089
0.178
0.061
-0.057
-0.028
0.088
0.070
0.024
0.095
-0.085
0.006
-0.109
-0.094
0.114
0.122
0.230
0.307
0.034
-0.285
-0.486
-0.119
0.372
0.402
0.205
-0.013
-0.035
-0.010
-0.077
0.002
0.011
0.050
0.059
0.101
0.155
-0.099
-0.198
0.272
0.335
0.219
0.001
-0.034
-0.127
-0.016
0.070
0.005
-0.107
-0.138
0.345
1.083
-0.701
-1.186
-0.026
0.380
0.499
0.191
0.012
-0.108
-0.054
-0.082
-0.047
0.014
0.036
0.088
0.203
0.118
0.089
0.081
0.077
0.062
-0.169
-0.010
0.158
0.120
0.108
-0.008
-0.114
0.055
0.314
0.383
-0.353
-0.454
0.032
0.097
0.145
0.169
0.064
0.036
-0.043
-0.077
-0.066
0.047
0.029
0.042
0.002
0.058
0.211
0.074
0.055
0.034
0.024
0.067
-0.039
-0.039
-0.020
0.015
0.037
0.055
-0.029
0.000
0.053
0.023
0.187
0.156
0.024
-0.117
-0.029
0.084
-0.001
-0.033
0.051
0.093
0.084
-0.037
0.083
0.077
0.011
0.265
0.944
-0.800
-1.247
0.052
0.587
0.512
0.259
-0.374
-0.116
0.182
0.134
0.002
-0.147
-0.054
-0.049
0.274
0.393
-0.524
-0.240
0.520
0.564
0.328
0.008
-0.157
-0.538
-0.458
-0.007
0.281
0.278
0.265
0.007
-0.167
-0.304
-0.047
0.154
0.198
0.148
-0.087
-0.015
0.029
-0.010
0.056
0.174
0.087
0.237
0.079
-0.143
-0.201
-0.132
0.091
-0.008
0.024
0.122
0.076
-0.030
0.087
-0.022
0.003
0.097
-0.017
0.042
0.026
0.024
0.127
0.082
0.066
0.051
-0.035
0.041
0.113
-0.025
0.050
0.020
-0.047
0.000
-0.026
0.037
-0.009
-0.049
-0.026
0.105
0.090
0.127
0.173
-0.006
-0.002
0.741
0.356
-1.110
-0.316
0.076
-0.002
0.285
0.261
0.133
0.064
0.064
-0.136
-0.073
-0.022
-0.099
-0.051
0.057
0.055
0.146
0.073
0.133
0.056
0.035
0.115
0.143
-0.041
-0.029
-0.007
0.087
-0.290
-0.159
0.246
0.349
0.129
-0.101
-0.101
0.017
0.011
0.090
0.009
-0.072
0.020
0.134
0.174
0.005
0.070
-0.019
-0.022
-0.011
-0.012
-0.072
-0.014
0.025
0.063
0.074
-0.036
0.065
0.151
0.190
0.076
-0.262
-0.423
-0.105
0.268
0.217
0.190
0.024
-0.003
0.056
-0.098
-0.025
0.082
0.897
0.308
-1.360
-0.714
0.396
0.703
0.484
0.149
0.008
-0.109
-0.220
-0.206
-0.024
-0.036
0.029
0.252
0.160
0.056
0.062
-0.072
-0.119
-0.051
0.150
0.422
0.162
-0.019
-0.123
-0.146
-0.062
0.046
0.057
0.384
0.240
-0.789
-0.245
0.594
0.496
0.258
-0.063
-0.197
-0.318
-0.140
0.087
0.135
0.206
0.173
0.102
0.058
-0.066
0.001
0.099
0.033
0.008
-0.044
0.064
0.062
-0.029
0.199
0.747
-0.158
-0.486
-0.190
0.079
0.070
0.195
0.168
0.164
0.076
-0.134
-0.379
0.168
0.291
0.254
-0.015
-0.046
-0.054
0.027
0.057
0.023
0.103
-0.011
0.107
0.037
0.507
0.809
-1.139
-1.226
0.146
0.521
0.506
0.133
-0.042
-0.092
-0.081
-0.088
-0.002
0.009
0.071
0.031
0.142
0.211
0.279
-0.137
-0.417
-0.303
0.114
0.308
0.332
0.147
-0.001
-0.189
-0.166
-0.077
-0.029
0.165
0.042
0.037
0.049
0.028
0.049
0.088
0.004
-0.013
-0.005
-0.018
0.064
0.016
0.021
-0.035
-0.032
0.001
0.007
0.071
0.050
0.081
-0.014
0.025
-0.005
0.079
-0.016
0.027
0.020
-0.000
0.015
-0.013
-0.190
-0.011
0.193
0.175
0.166
-0.065
-0.163
-0.088
0.070
0.058
0.090
0.071
0.034
0.121
0.978
0.019
-1.469
-0.373
0.366
0.530
0.448
0.031
-0.100
-0.075
-0.088
-0.132
-0.082
0.099
0.145
-0.006
-0.072
0.246
0.310
0.261
-0.022
0.002
-0.150
0.011
0.057
0.074
0.026
0.087
0.007
0.013
-0.013
-0.001
0.005
0.018
0.193
0.063
0.300
0.171
-0.621
-0.501
0.099
0.179
0.222
0.240
0.134
0.019
-0.033
-0.123
0.004
-0.030
-0.038
-0.002
0.075
0.164
0.076
0.110
0.176
0.020
-0.070
-0.060
-0.021
0.065
0.042
0.013
0.002
0.113
-0.011
-0.024
-0.003
0.082
0.017
-0.110
0.002
0.171
0.426
0.140
-0.253
-0.558
-0.154
0.181
0.722
-0.307
-0.568
1.141
0.674
-1.284
-0.668
0.102
0.370
0.378
0.093
0.002
-0.013
-0.101
0.007
0.016
-0.017
0.014
0.029
0.058
0.054
0.127
0.012
-0.055
0.033
0.052
0.039
0.095
-0.006
0.036
-0.004
0.025
-0.025
0.048
0.043
0.079
-0.107
-0.089
0.035
0.183
0.121
0.072
-0.005
0.055
-0.043
-0.380
-0.097
0.308
0.392
0.116
-0.035
-0.112
-0.053
-0.043
-0.063
0.002
0.054
0.037
0.071
0.100
0.010
-0.069
-0.054
-0.002
0.073
0.150
0.079
0.053
-0.017
0.001
-0.031
0.070
0.055
0.037
0.024
0.006
0.060
0.084
0.038
-0.035
0.080
0.011
0.070
0.443
0.783
-1.095
-1.089
0.157
0.446
0.556
0.224
-0.022
-0.017
0.447
-0.325
-0.765
-0.202
0.177
0.124
0.213
0.322
0.311
0.114
-0.052
-0.114
-0.096
-0.075
-0.005
0.081
0.103
0.090
0.084
0.067
0.078
0.087
0.110
-0.042
-0.229
-0.176
0.113
0.308
0.081
-0.250
-0.411
-0.018
0.304
0.296
0.219
0.020
-0.009
-0.081
-0.030
0.028
0.024
0.020
0.019
0.039
0.139
0.019
0.072
0.056
0.005
0.059
0.064
-0.360
-0.249
0.261
0.235
0.268
0.043
-0.203
-0.134
0.018
0.124
0.049
0.007
0.218
0.205
-0.022
0.083
0.954
-0.580
-1.396
-0.193
0.669
0.603
-0.479
-0.116
0.600
0.258
-0.115
-0.245
-0.186
-0.028
-0.050
0.094
0.073
0.122
0.267
0.235
0.086
0.030
-0.118
-0.105
-0.120
-0.051
0.028
0.069
0.054
0.070
0.009
-0.029
-0.023
0.031
-0.003
0.092
-0.041
0.077
-0.046
0.010
0.031
0.589
0.195
-0.546
-0.355
0.003
0.226
0.274
0.235
0.064
-0.142
-0.047
-0.111
-0.094
-0.023
-0.002
0.107
