0.003
0.063
0.070
0.102
0.047
0.074
0.035
0.040
-0.355
-0.085
0.334
0.022
-0.226
-0.290
-0.005
0.170
0.231
0.191
-0.196
-0.079
0.128
0.047
0.098
-0.041
0.016
-0.132
-0.062
0.148
0.161
-0.096
-0.114
0.271
0.143
-0.201
-0.377
-0.221
0.364
0.509
0.074
-0.115
-0.485
-0.395
0.099
0.664
0.410
0.120
-0.096
-0.203
-0.191
0.108
0.085
0.028
0.061
0.067
0.118
0.017
0.019
-0.201
-0.090
-0.123
0.080
0.019
-0.023
0.052
0.135
-0.027
0.056
0.052
0.111
-0.100
0.056
0.065
0.079
-0.060
0.031
0.049
-0.025
-0.004
0.018
0.073
-0.024
0.093
0.061
0.048
0.105
-0.053
-0.074
0.034
0.109
-0.027
0.023
-0.023
0.027
0.010
0.051
-0.077
0.124
0.068
-0.143
-0.105
0.232
0.014
-0.116
-0.110
0.043
0.219
0.152
0.133
-0.002
-0.227
0.117
0.110
0.057
-0.404
0.104
0.179
-0.066
-0.534
-0.175
0.445
0.895
0.282
-0.192
-0.122
-0.185
-0.335
-0.253
0.182
0.413
0.178
0.241
0.067
-0.014
-0.075
-0.043
0.085
-0.126
0.082
-0.028
-0.267
-0.199
0.222
0.365
0.116
0.090
0.004
-0.043
-0.149
-0.081
0.114
-0.039
0.029
0.184
0.044
0.149
0.166
-0.008
0.038
-0.145
-0.048
0.083
0.078
0.058
-0.076
0.000
-0.124
-0.024
0.200
0.211
-0.079
-0.064
0.185
0.080
0.008
-0.030
-0.098
-0.038
0.015
0.132
0.144
0.026
-0.071
0.134
0.017
-0.127
0.062
0.139
-0.194
-0.227
0.017
0.537
0.303
-0.042
-0.185
-0.029
-0.036
0.022
0.294
-0.243
-0.558
0.118
0.555
0.410
-0.059
-0.112
0.014
-0.161
-0.162
-0.094
0.211
-0.162
-0.056
0.125
0.209
-0.097
-0.119
0.038
-0.007
0.090
0.050
0.083
0.039
-0.061
-0.183
-0.320
-0.185
-0.054
0.151
0.550
0.258
0.052
-0.084
-0.103
-0.410
-0.150
0.150
0.222
0.204
0.119
0.060
0.008
0.041
-0.020
-0.019
0.092
0.117
-0.187
-0.010
0.101
0.097
0.082
-0.051
-0.241
-0.069
0.132
0.081
-0.025
-0.205
-0.047
0.400
0.416
0.190
0.005
-0.235
-0.190
-0.135
0.042
0.056
0.009
0.174
0.183
0.060
0.032
-0.032
0.163
0.110
-0.426
-0.540
-0.040
0.384
0.200
0.207
-0.003
-0.056
-0.153
0.124
0.099
0.026
-0.019
0.006
0.201
0.034
-0.021
0.147
0.115
0.112
-0.020
-0.164
0.031
0.101
0.006
-0.022
-0.079
-0.002
0.241
-0.037
-0.148
-0.094
-0.102
0.299
0.225
0.199
-0.035
-0.091
-0.019
-0.138
0.107
0.006
0.005
-0.019
0.229
0.083
-0.126
-0.057
0.064
0.223
0.087
0.058
-0.077
0.024
-0.072
-0.021
-0.021
0.136
-0.103
-0.256
-0.367
0.315
0.780
0.470
-0.231
-0.568
-0.383
-0.262
0.130
0.537
0.391
0.065
-0.163
-0.176
0.064
0.148
0.129
-0.069
-0.012
-0.132
-0.106
0.085
0.166
0.129
0.121
0.195
0.225
-0.212
-0.552
-0.181
0.374
0.379
0.132
-0.014
0.014
-0.184
-0.144
0.008
0.148
0.194
0.052
0.009
0.059
-0.301
0.016
0.277
0.008
0.239
0.085
-0.030
-0.011
-0.046
-0.003
0.025
-0.038
0.021
-0.079
0.008
0.148
0.175
-0.049
0.013
-0.130
0.046
0.198
-0.305
-0.130
0.290
0.081
-0.023
0.056
0.074
0.087
-0.044
-0.066
-0.001
-0.047
0.027
0.036
-0.476
-0.074
0.600
0.472
0.244
-0.095
-0.204
-0.333
-0.066
0.103
0.097
0.074
0.092
0.114
-0.023
0.063
-0.037
-0.141
-0.081
0.024
0.044
-0.043
0.111
-0.009
-0.144
0.096
-0.007
0.082
0.091
0.071
0.078
0.007
0.202
-0.045
-0.219
0.010
0.125
0.079
0.133
0.074
0.165
-0.026
-0.399
-0.307
-0.023
0.481
0.431
0.174
-0.336
-0.334
-0.141
-0.040
0.093
0.324
0.235
0.128
-0.001
-0.029
-0.086
0.005
0.112
0.099
0.075
-0.101
-0.073
0.162
0.273
-0.002
-0.141
-0.140
0.158
-0.169
-0.252
-0.129
0.618
0.441
0.161
-0.229
-0.426
-0.222
0.117
0.242
0.214
0.210
0.125
0.052
-0.296
-0.164
-0.171
0.254
0.038
0.081
-0.016
-0.115
-0.202
0.109
0.287
0.058
-0.196
0.195
0.086
-0.259
0.129
0.242
-0.031
-0.037
0.043
0.086
0.087
-0.005
0.088
-0.045
-0.046
-0.007
-0.050
0.146
0.166
-0.127
-0.533
-0.051
0.430
0.140
0.145
-0.101
-0.047
-0.024
-0.086
0.011
0.143
0.040
0.080
0.047
0.029
0.035
-0.011
0.002
0.115
-0.024
-0.101
0.037
0.049
-0.055
0.103
-0.051
-0.024
0.105
0.175
-0.393
-0.441
0.241
0.690
0.314
0.066
-0.320
-0.345
-0.168
0.181
0.238
0.019
-0.057
0.139
0.035
-0.004
0.063
0.034
-0.218
-0.278
-0.048
-0.016
0.269
0.232
-0.121
0.062
0.242
0.172
-0.188
-0.222
0.132
0.241
0.104
0.080
-0.010
0.006
0.081
-0.002
0.013
0.077
0.001
0.039
-0.012
-0.031
0.117
0.013
-0.267
-0.485
-0.128
0.443
0.449
0.129
-0.105
-0.033
-0.056
-0.101
-0.012
0.057
0.088
0.082
-0.084
-0.320
0.063
0.388
0.205
0.122
0.038
-0.106
-0.108
0.000
-0.042
-0.112
0.000
-0.013
-0.244
-0.248
0.273
0.605
0.413
-0.032
-0.163
-0.300
-0.168
-0.051
-0.010
0.056
0.149
0.130
0.119
-0.007
-0.044
-0.066
-0.167
0.011
0.124
0.135
0.044
-0.313
0.019
0.265
0.095
0.044
0.075
0.007
-0.017
-0.152
0.105
0.100
0.092
0.142
-0.037
-0.083
-0.121
0.103
0.070
-0.146
-0.062
0.163
0.107
-0.111
0.096
-0.099
-0.089
-0.021
0.024
0.054
0.085
0.031
0.051
-0.007
0.064
0.180
0.188
-0.136
-0.330
-0.169
-0.088
-0.015
0.401
0.450
0.168
0.024
-0.088
-0.435
-0.658
0.044
0.520
0.381
0.158
-0.013
-0.120
-0.099
0.114
-0.067
-0.131
-0.240
0.325
0.427
0.305
0.030
-0.306
-0.290
-0.207
0.061
0.277
0.028
0.015
0.084
0.120
0.033
-0.213
0.078
0.075
-0.200
-0.019
0.056
0.054
0.008
0.037
0.091
0.003
-0.041
0.066
0.099
0.023
0.165
0.120
-0.188
-0.209
0.058
0.095
0.190
0.065
-0.171
0.020
0.107
0.161
-0.059
-0.066
0.016
-0.035
0.211
0.030
0.022
0.034
0.074
-0.034
0.039
-0.053
0.111
0.128
0.010
-0.092
-0.061
0.011
0.084
0.068
0.295
-0.262
-0.161
-0.037
0.115
0.103
0.054
0.124
0.153
0.197
0.040
-0.805
-0.808
0.425
1.129
0.511
-0.108
-0.312
-0.143
-0.193
-0.030
0.061
0.056
0.085
0.035
0.205
0.181
0.099
-0.005
-0.183
-0.231
0.000
0.147
-0.081
0.005
0.039
0.021
0.136
0.066
-0.052
-0.025
-0.045
0.170
0.071
-0.093
0.113
0.041
0.058
-0.111
0.002
0.016
0.007
0.156
-0.028
-0.030
-0.014
-0.039
0.172
0.205
0.177
-0.212
-0.260
-0.074
-0.009
0.177
0.112
0.155
0.097
0.040
-0.088
-0.103
-0.059
0.005
0.127
0.023
0.032
0.046
0.065
-0.014
0.047
0.003
0.059
0.066
0.017
-0.114
0.007
-0.003
-0.017
-0.316
-0.368
0.376
0.690
0.535
-0.007
-0.331
-0.148
-0.067
0.164
-0.034
0.169
0.052
-0.385
-0.256
0.168
0.571
0.286
0.014
-0.188
-0.094
-0.275
0.027
0.010
0.115
0.112
0.068
0.173
-0.022
-0.068
-0.091
0.126
0.136
0.181
0.004
-0.179
-0.005
-0.140
0.124
-0.046
0.070
0.158
0.091
0.040
-0.027
0.078
0.021
0.030
0.019
0.121
-0.060
-0.090
-0.026
0.001
0.008
0.189
-0.017
-0.019
0.073
-0.095
0.044
-0.024
-0.035
0.204
0.121
0.137
0.064
-0.084
-0.072
-0.039
0.115
-0.064
0.150
0.141
-0.057
-0.341
-0.167
-0.420
-0.328
0.526
1.061
0.415
-0.202
-0.442
-0.555
-0.188
0.151
0.114
0.226
0.308
0.020
-0.144
-0.017
0.011
0.138
0.009
-0.065
0.001
0.118
-0.143
-0.428
-0.244
0.148
0.370
0.307
0.186
0.009
-0.032
-0.058
0.003
-0.085
0.047
0.002
-0.038
0.168
0.108
-0.019
0.061
-0.089
0.029
-0.010
-0.011
0.084
-0.159
-0.040
0.012
-0.033
0.069
-0.041
-0.014
-0.027
0.093
0.115
0.069
0.009
-0.047
0.076
-0.090
-0.069
0.022
0.047
-0.026
-0.010
-0.062
-0.074
0.272
0.128
0.014
0.165
-0.032
-0.181
-0.178
0.238
0.165
0.230
-0.205
-0.478
0.030
0.592
0.527
-0.061
-0.207
-0.236
-0.081
-0.009
0.002
0.208
-0.052
-0.064
0.002
0.170
0.212
0.093
0.013
-0.120
-0.069
-0.063
0.163
-0.314
-0.471
-0.024
0.488
0.410
0.067
-0.078
-0.041
-0.009
-0.020
0.057
0.070
0.087
0.221
0.070
-0.213
-0.358
-0.114
0.060
0.040
0.467
0.262
-0.223
-0.155
-0.093
0.069
-0.057
0.017
-0.055
-0.066
0.115
0.182
0.169
0.091
-0.062
-0.078
0.042
0.119
0.116
-0.114
-0.019
-0.019
0.070
0.171
0.079
-0.277
0.091
0.145
0.071
-0.079
-0.004
0.094
-0.005
-0.067
-0.081
0.113
0.127
0.102
-0.145
-0.164
-0.060
0.107
-0.108
-0.331
-0.244
0.296
0.707
0.403
-0.241
-0.261
-0.236
0.025
-0.010
0.038
-0.071
0.159
0.199
0.217
0.069
-0.214
-0.255
0.177
0.138
0.099
-0.075
-0.009
-0.305
-0.446
0.089
0.484
0.280
0.008
-0.004
0.108
-0.124
-0.220
-0.254
0.112
0.223
0.148
0.078
0.092
0.084
0.139
0.103
-0.245
-0.204
-0.011
0.129
0.202
0.056
0.010
0.048
-0.149
-0.018
-0.051
-0.123
0.091
-0.012
0.028
0.115
0.013
-0.129
-0.056
0.040
0.008
0.145
0.020
-0.076
0.110
-0.009
-0.221
-0.418
0.114
0.720
0.461
-0.011
-0.271
-0.355
-0.085
0.040
0.068
0.124
0.089
0.285
0.222
0.102
-0.262
-0.461
-0.290
-0.005
0.128
0.317
0.204
0.038
-0.045
-0.018
0.059
-0.025
-0.061
0.009
0.108
0.135
-0.132
0.082
0.177
0.032
0.139
0.008
-0.129
-0.111
-0.070
0.199
0.140
0.071
-0.398
-0.402
0.101
0.518
0.241
0.060
-0.088
-0.081
-0.227
0.070
0.003
-0.009
-0.098
-0.033
0.135
0.144
-0.030
-0.089
0.160
0.086
-0.150
-0.042
-0.153
0.110
0.478
0.141
-0.081
-0.099
-0.023
-0.008
-0.065
0.131
0.312
-0.086
-0.159
-0.057
0.091
0.217
-0.039
-0.013
-0.297
-0.252
0.049
0.552
0.455
0.045
-0.095
-0.268
-0.177
0.080
0.072
-0.012
0.083
0.008
0.080
0.146
0.197
-0.068
-0.009
-0.172
-0.165
0.022
0.106
0.057
0.113
0.137
-0.028
0.077
0.067
-0.050
-0.050
0.111
-0.009
0.042
0.022
-0.112
-0.017
0.035
0.051
0.084
0.028
-0.149
-0.041
0.146
0.224
-0.037
-0.165
-0.025
0.206
0.185
0.082
-0.035
-0.441
-0.308
0.314
0.455
-0.006
0.020
-0.038
-0.079
-0.124
0.004
0.214
0.056
0.042
-0.073
-0.013
0.099
-0.034
-0.030
0.060
0.191
0.255
0.112
0.044
-0.293
-0.669
-0.533
0.022
0.741
0.818
0.216
-0.199
-0.174
-0.361
-0.387
-0.076
0.237
0.335
0.273
0.093
-0.002
-0.045
-0.278
0.001
0.089
0.122
-0.034
-0.133
-0.077
0.024
-0.042
0.031
0.112
-0.091
-0.026
0.025
0.037
0.052
0.109
-0.102
-0.032
0.108
0.037
0.022
0.119
0.039
-0.086
-0.174
0.306
0.103
-0.235
-0.237
-0.062
0.359
0.118
0.099
0.000
-0.270
-0.061
0.152
0.133
0.134
0.401
0.130
-0.476
-0.543
0.108
0.611
0.323
-0.100
-0.152
-0.039
-0.073
-0.118
-0.016
0.156
-0.034
-0.062
-0.231
-0.234
0.078
0.652
0.649
0.061
-0.201
-0.340
-0.316
0.035
0.083
0.070
0.073
0.082
0.165
0.036
-0.013
-0.064
-0.071
-0.084
-0.058
-0.021
0.042
0.047
0.069
0.044
0.025
0.044
0.147
0.067
-0.077
0.113
-0.148
-0.122
-0.040
0.135
0.167
0.061
0.010
-0.129
0.070
0.064
0.051
0.043
-0.179
0.041
0.337
0.199
0.011
-0.036
-0.066
-0.003
0.025
-0.106
0.048
0.135
0.000
0.009
-0.012
-0.011
-0.026
0.072
0.090
0.109
0.139
-0.180
-0.259
0.032
-0.203
0.286
0.515
-0.179
-0.576
-0.193
0.701
0.701
0.184
-0.523
-0.613
-0.090
0.255
-0.065
0.103
-0.071
0.192
0.304
0.182
-0.107
-0.162
-0.228
-0.126
0.094
0.155
0.212
0.043
-0.117
-0.037
0.153
0.203
0.104
0.175
-0.133
-0.306
-0.042
0.099
0.028
0.148
0.003
-0.105
-0.046
0.061
0.106
0.096
0.051
-0.091
-0.025
0.002
0.088
0.104
-0.019
-0.399
-0.161
0.247
0.242
0.278
0.010
-0.053
-0.088
0.049
0.188
0.062
-0.107
-0.005
0.064
0.044
0.132
0.087
-0.014
0.082
-0.141
-0.087
0.083
-0.060
-0.277
-0.221
-0.049
0.640
0.577
0.068
-0.141
-0.137
-0.458
-0.473
-0.147
0.521
0.636
0.164
-0.054
-0.140
-0.205
-0.053
-0.004
-0.090
0.041
0.027
0.120
0.157
0.075
-0.015
0.027
0.039
-0.013
0.062
0.126
0.132
0.060
0.044
-0.140
0.037
0.028
-0.148
0.099
0.136
0.038
0.073
-0.001
-0.086
-0.232
0.244
0.156
0.068
0.059
-0.020
0.083
-0.046
0.119
0.026
-0.100
-0.118
0.071
0.286
0.186
0.132
-0.314
-0.326
-0.111
-0.075
0.241
0.442
0.208
0.128
-0.133
-0.109
-0.095
0.004
0.131
0.102
-0.315
-0.288
0.194
0.389
0.416
0.075
-0.172
-0.215
-0.460
-0.474
0.361
0.758
0.368
-0.036
-0.186
-0.178
-0.108
0.073
0.179
-0.022
0.002
0.039
0.190
0.095
0.032
-0.139
-0.425
-0.385
0.288
0.476
0.115
-0.096
-0.112
0.020
0.022
0.060
-0.032
0.054
0.062
0.068
0.249
0.049
-0.237
-0.055
0.324
0.034
-0.026
-0.067
-0.030
-0.134
0.106
0.061
0.001
0.119
0.096
-0.063
0.054
-0.062
0.061
-0.021
-0.132
-0.019
-0.044
0.040
0.070
-0.032
-0.088
-0.029
0.097
0.140
-0.052
-0.028
0.111
-0.246
-0.244
-0.120
0.596
0.528
0.048
-0.015
-0.406
-0.325
0.117
0.119
0.096
0.163
0.082
0.077
0.210
0.019
-0.070
-0.143
0.006
-0.057
0.046
0.083
0.025
0.159
-0.013
-0.017
0.040
0.033
0.056
-0.096
0.179
0.169
0.131
-0.446
-0.484
0.051
0.560
0.152
0.153
0.130
-0.225
-0.271
0.019
0.137
0.201
0.044
-0.061
0.200
-0.065
-0.092
0.143
0.228
0.177
-0.158
-0.271
-0.111
-0.180
0.125
0.327
0.082
-0.051
-0.164
0.021
0.041
0.053
-0.014
-0.057
0.082
0.046
0.066
0.018
0.003
-0.205
-0.282
0.094
0.536
0.421
-0.111
-0.182
-0.188
-0.038
-0.093
0.090
0.268
0.102
0.070
0.109
0.078
-0.050
-0.046
0.055
-0.017
-0.116
-0.121
0.047
0.120
-0.037
-0.134
0.013
0.194
0.054
-0.237
0.054
0.179
-0.173
-0.111
0.127
0.191
0.093
0.110
-0.046
-0.202
-0.255
0.101
0.310
-0.107
-0.381
-0.285
0.404
0.584
0.000
-0.095
-0.016
-0.013
-0.150
-0.100
-0.016
0.140
-0.079
0.138
0.133
0.063
0.047
0.022
-0.002
0.039
-0.128
0.022
0.097
-0.149
-0.239
-0.040
0.457
0.295
0.061
-0.042
-0.213
-0.071
0.032
0.019
0.006
0.103
0.094
0.034
-0.041
0.083
0.065
-0.105
0.039
-0.001
-0.064
0.023
0.175
0.159
0.049
-0.164
-0.405
-0.153
0.048
0.200
0.521
0.181
-0.094
-0.174
-0.010
-0.014
0.089
0.101
-0.028
0.117
0.194
0.148
-0.100
0.001
-0.367
-0.182
0.337
0.531
-0.043
-0.286
-0.176
0.010
0.105
0.085
0.054
-0.072
-0.115
0.173
0.172
0.167
0.034
0.042
0.090
-0.063
0.057
0.066
0.074
-0.019
-0.110
-0.088
0.092
0.041
0.084
0.055
-0.064
0.009
-0.050
-0.068
-0.006
0.110
0.039
0.008
-0.145
-0.059
0.076
0.457
0.373
0.215
-0.096
-0.447
-0.184
0.093
0.115
0.183
0.209
0.061
-0.114
-0.060
0.012
0.058
0.050
-0.044
-0.025
-0.081
-0.003
-0.034
0.070
-0.059
-0.021
-0.072
0.213
0.094
0.003
0.050
-0.026
-0.082
0.044
-0.167
0.239
0.186
0.031
-0.090
-0.184
-0.057
0.144
0.164
-0.046
0.011
0.132
0.065
-0.005
-0.123
0.004
0.019
0.047
-0.013
0.174
0.058
0.191
-0.076
-0.487
-0.416
-0.019
0.684
0.437
0.085
-0.210
-0.165
-0.049
-0.157
0.005
0.106
-0.011
-0.369
-0.168
0.548
0.562
0.262
-0.061
-0.243
-0.350
-0.047
-0.024
0.055
0.160
0.140
0.099
0.029
-0.075
-0.074
0.055
-0.011
0.033
0.161
0.293
-0.048
-0.365
-0.541
-0.123
0.431
0.282
0.363
0.269
-0.032
-0.075
-0.136
-0.088
-0.085
0.060
0.155
0.288
0.093
-0.093
-0.160
0.205
0.079
-0.080
-0.087
-0.070
-0.008
-0.008
-0.055
-0.034
-0.020
0.069
0.040
0.011
-0.027
0.078
0.087
0.213
-0.019
0.073
-0.111
0.141
-0.054
0.025
0.021
0.073
-0.102
-0.039
0.117
0.153
-0.011
-0.036
0.048
0.141
0.051
-0.030
-0.168
-0.490
0.080
0.261
0.537
0.320
-0.008
-0.290
-0.110
0.273
0.124
-0.017
-0.077
0.065
-0.159
0.022
0.234
0.117
-0.094
-0.017
-0.005
0.002
-0.061
-0.062
0.056
0.073
-0.128
-0.055
-0.045
0.045
0.009
0.126
0.013
0.008
0.134
-0.170
0.014
0.223
0.012
-0.062
0.012
0.063
0.256
-0.025
-0.003
-0.092
-0.234
0.106
0.213
0.055
0.150
-0.008
0.025
-0.005
-0.095
-0.007
0.086
-0.123
-0.130
-0.006
0.252
0.242
0.118
0.065
0.090
-0.095
-0.309
-0.276
-0.343
-0.266
0.765
0.791
0.323
-0.080
-0.346
-0.250
-0.243
-0.076
0.141
0.075
0.183
-0.041
0.044
0.063
0.065
-0.077
-0.125
-0.110
-0.108
-0.051
0.107
0.025
-0.040
-0.297
-0.461
0.282
0.697
0.247
0.051
-0.089
-0.067
-0.007
-0.006
-0.012
0.103
0.026
-0.295
-0.135
0.423
0.199
-0.071
0.119
0.061
-0.170
-0.053
-0.265
-0.003
0.254
0.191
0.085
0.103
0.037
0.029
0.038
-0.057
0.108
-0.143
0.062
0.092
-0.052
0.101
-0.064
0.041
0.034
-0.014
-0.416
-0.318
0.181
0.709
0.291
0.033
-0.155
-0.245
-0.180
0.030
0.229
0.117
0.051
0.199
0.099
-0.082
-0.139
-0.015
-0.180
-0.147
0.158
0.227
0.224
0.037
-0.061
0.033
-0.073
-0.145
0.150
0.231
0.190
-0.050
0.074
-0.036
0.064
0.035
0.027
0.032
-0.075
-0.144
0.075
0.265
0.187
-0.312
-0.110
-0.082
-0.121
0.042
-0.197
0.116
0.295
0.456
0.101
-0.065
-0.029
-0.147
-0.018
-0.100
0.103
0.028
0.138
0.175
0.056
0.019
-0.127
0.044
-0.068
0.086
-0.039
-0.274
0.066
-0.064
0.156
0.121
-0.158
-0.283
-0.253
0.455
0.588
0.293
-0.065
-0.214
-0.247
-0.133
-0.013
0.211
0.121
0.082
0.094
0.073
-0.003
-0.037
-0.014
-0.157
0.032
-0.088
-0.013
0.066
0.046
-0.014
-0.024
-0.272
0.077
0.450
0.290
0.048
-0.196
-0.065
-0.009
-0.131
0.119
0.100
-0.002
0.057
0.078
-0.065
-0.115
0.127
0.099
-0.107
-0.039
0.102
-0.015
0.030
0.044
-0.112
0.079
0.147
-0.107
-0.298
-0.048
0.186
0.449
0.223
-0.042
0.145
-0.266
-0.713
-0.081
0.441
0.269
-0.002
0.120
0.093
0.286
-0.146
-0.182
-0.104
-0.150
-0.277
-0.224
0.119
0.734
0.509
-0.120
-0.181
-0.178
-0.156
-0.112
-0.081
-0.122
0.132
0.250
0.219
-0.049
-0.020
-0.076
0.136
0.008
0.091
-0.240
-0.317
-0.165
0.081
0.167
0.273
0.154
0.018
-0.010
0.001
-0.094
-0.135
-0.064
0.058
0.188
0.224
-0.095
0.052
0.040
-0.019
0.051
0.089
-0.124
-0.069
-0.096
0.052
0.093
0.089
0.005
-0.135
0.052
0.078
0.067
-0.053
-0.052
0.153
-0.159
0.184
0.389
-0.075
-0.167
-0.037
-0.148
0.036
0.119
0.104
0.034
0.045
-0.032
-0.261
-0.066
0.022
-0.114
0.182
0.500
0.078
-0.337
-0.085
0.185
0.101
-0.220
0.003
0.132
0.172
0.108
-0.053
-0.053
0.139
0.045
0.065
-0.064
-0.029
0.035
0.047
-0.165
-0.129
-0.139
0.255
0.306
0.227
-0.039
-0.010
-0.031
-0.100
-0.099
0.044
0.145
0.118
0.152
0.077
0.061
-0.051
0.007
-0.091
-0.049
0.077
0.008
-0.036
0.051
0.055
-0.013
-0.136
0.050
0.148
0.107
-0.082
-0.117
0.158
0.297
0.029
-0.191
-0.342
-0.239
0.100
0.276
0.331
0.105
0.049
-0.019
-0.200
-0.487
-0.166
0.505
0.626
0.313
-0.024
0.048
0.005
-0.325
-0.493
-0.164
0.390
0.361
0.195
0.059
-0.010
-0.174
-0.137
-0.060
-0.067
-0.141
0.083
0.209
0.055
-0.060
-0.022
0.198
-0.064
-0.022
0.183
0.080
-0.006
-0.148
0.049
0.031
-0.011
0.128
0.147
-0.084
-0.127
0.156
0.161
-0.039
-0.024
-0.004
0.086
0.144
0.063
-0.190
-0.078
0.115
0.117
0.200
0.050
-0.015
0.007
-0.056
0.005
0.051
-0.061
0.138
0.051
-0.071
-0.059
0.106
-0.040
0.101
0.001
-0.097
-0.102
0.091
0.069
-0.026
-0.021
-0.276
-0.204
0.345
0.445
0.118
0.135
-0.191
-0.186
-0.039
0.152
0.291
-0.277
-0.258
0.037
0.568
0.198
0.011
-0.042
-0.168
-0.228
0.067
0.059
-0.008
-0.076
0.199
0.032
-0.206
-0.104
0.280
0.356
0.156
-0.070
-0.176
0.131
0.077
-0.137
-0.308
-0.267
-0.098
0.247
0.526
0.249
-0.076
-0.082
-0.195
-0.150
-0.125
0.024
0.205
0.182
0.018
0.066
0.115
0.071
-0.057
-0.091
-0.090
0.034
0.152
0.147
-0.190
-0.058
0.100
0.142
-0.124
-0.194
-0.288
0.002
0.606
0.413
-0.158
-0.208
-0.099
-0.024
0.027
0.106
0.355
0.003
-0.299
-0.321
0.009
0.247
0.086
0.230
0.027
0.066
-0.016
-0.055
0.038
-0.047
-0.201
0.001
0.330
0.171
0.095
0.089
-0.003
0.032
-0.046
-0.020
-0.126
0.017
0.069
-0.067
0.088
0.056
-0.042
0.221
0.063
-0.352
-0.202
0.136
0.316
0.217
-0.184
0.042
0.014
-0.120
0.069
-0.059
0.063
0.094
0.082
0.000
-0.025
0.122
0.042
-0.010
0.025
-0.019
-0.014
0.035
-0.011
-0.078
0.110
0.003
-0.022
-0.316
-0.344
0.272
0.680
0.644
-0.182
-0.528
-0.456
-0.191
0.197
0.485
0.470
0.194
0.142
-0.165
-0.514
-0.320
0.206
0.294
0.189
0.060
-0.039
0.025
-0.060
-0.042
0.040
-0.034
-0.110
0.015
-0.073
0.080
0.043
-0.039
0.211
-0.031
-0.240
0.135
0.220
0.169
-0.051
-0.130
0.010
-0.067
0.076
0.183
-0.182
0.080
0.116
-0.067
-0.027
0.018
-0.007
0.017
0.162
0.029
-0.147
-0.025
0.037
0.274
0.192
0.111
-0.315
0.030
-0.324
-0.070
0.337
0.320
0.191
-0.253
-0.452
0.061
0.629
0.370
-0.255
-0.156
-0.169
-0.106
0.127
0.019
0.140
0.162
0.109
-0.125
0.069
-0.017
-0.234
-0.027
-0.067
0.074
0.093
0.008
-0.044
-0.029
0.065
0.010
0.120
0.279
-0.240
-0.521
-0.199
0.451
0.273
0.026
0.075
-0.041
0.001
-0.053
0.093
-0.048
-0.162
0.067
0.062
0.099
0.100
-0.038
-0.061
-0.040
0.112
0.183
-0.063
0.144
0.047
-0.138
-0.295
-0.293
-0.050
-0.075
0.237
0.433
0.193
-0.092
-0.156
-0.094
-0.115
0.095
0.133
-0.080
-0.098
0.153
0.125
0.026
-0.050
-0.269
-0.124
0.464
0.449
-0.082
-0.050
-0.151
-0.146
-0.409
-0.358
0.326
0.556
0.340
0.096
-0.192
-0.160
-0.191
-0.133
0.127
0.000
0.076
0.064
0.007
0.060
0.036
0.155
0.059
0.107
-0.089
-0.025
0.220
0.012
-0.460
-0.204
0.307
0.465
0.113
-0.080
-0.101
0.036
-0.002
0.082
0.118
-0.163
-0.052
0.057
-0.039
0.041
0.274
0.237
0.036
-0.014
-0.202
-0.249
0.082
0.089
0.211
0.178
-0.100
-0.161
0.113
0.204
0.081
-0.029
-0.100
0.018
0.058
0.033
0.061
-0.062
0.087
-0.096
-0.349
-0.215
0.680
0.585
0.152
-0.134
-0.337
-0.120
-0.120
0.066
0.174
0.051
-0.014
0.140
0.032
0.100
0.057
-0.177
-0.134
-0.069
0.217
0.085
-0.052
-0.164
0.020
-0.290
-0.184
0.353
0.549
0.262
-0.119
-0.113
-0.091
-0.131
0.052
0.110
0.141
0.212
0.273
0.086
-0.283
-0.435
-0.016
0.547
0.170
-0.019
-0.063
-0.210
-0.142
0.009
0.039
-0.203
0.155
0.065
0.166
0.248
-0.128
-0.074
-0.066
0.106
0.208
-0.004
-0.249
-0.023
0.106
0.121
0.034
-0.115
-0.440
-0.211
0.489
0.450
0.353
-0.013
-0.193
-0.168
-0.161
-0.077
0.030
0.013
0.271
0.109
0.055
0.100
-0.173
-0.251
-0.070
0.211
0.051
0.029
0.084
0.149
-0.076
-0.015
-0.034
0.056
0.094
0.015
-0.024
0.053
0.052
-0.036
0.002
-0.031
-0.067
0.026
0.039
-0.060
-0.003
0.084
-0.090
-0.147
0.138
0.279
0.154
0.071
-0.095
-0.220
0.206
0.128
-0.375
-0.311
0.168
0.536
0.147
0.008
-0.232
-0.136
0.069
0.074
0.151
-0.044
-0.138
-0.060
0.074
0.102
0.021
-0.099
0.082
-0.062
-0.057
-0.042
0.054
-0.030
-0.188
0.164
0.456
0.018
-0.302
-0.178
0.228
0.262
0.170
0.111
0.029
0.044
0.004
-0.091
0.118
0.119
0.059
0.044
-0.008
-0.161
-0.032
0.002
0.020
-0.069
-0.160
0.272
0.124
-0.019
-0.052
-0.058
0.021
0.065
0.110
0.087
0.011
0.071
-0.015
-0.007
0.080
0.162
0.022
-0.121
-0.019
0.111
0.043
-0.136
0.041
0.144
-0.025
0.098
0.178
0.085
0.129
-0.091
-0.081
-0.080
0.077
0.107
0.156
-0.050
0.015
0.073
-0.001
0.004
0.048
-0.194
-0.013
0.244
0.358
0.115
-0.418
-0.546
-0.018
0.491
-0.050
-0.327
0.420
0.723
0.095
-0.142
-0.162
-0.166
-0.064
-0.045
0.254
0.302
-0.043
-0.087
-0.114
0.225
0.210
0.070
-0.024
-0.140
-0.327
-0.028
0.068
-0.003
0.151
0.224
-0.003
-0.039
0.061
0.105
-0.012
0.076
-0.034
-0.034
-0.296
0.148
0.148
-0.076
0.056
0.095
0.076
-0.054
-0.024
0.089
0.070
-0.072
0.089
0.046
-0.076
0.195
0.296
0.044
-0.007
0.042
-0.159
-0.086
0.133
0.039
0.198
0.199
0.108
-0.145
-0.301
-0.197
-0.038
0.051
0.187
0.093
0.247
0.149
-0.092
-0.210
-0.438
-0.413
0.340
0.806
0.434
0.114
-0.114
-0.226
-0.199
-0.063
0.086
0.208
0.114
0.040
0.013
0.033
-0.249
-0.104
0.022
0.302
-0.026
-0.222
-0.414
0.219
0.489
0.135
0.002
-0.071
-0.097
0.066
0.076
0.100
0.029
-0.148
0.102
0.143
-0.075
-0.070
0.089
0.189
0.027
-0.081
0.070
0.081
0.078
0.020
-0.001
-0.037
0.021
0.049
-0.083
-0.104
0.248
0.137
0.084
0.126
-0.043
-0.164
-0.046
0.064
0.124
-0.092
-0.165
-0.119
0.172
0.221
0.155
-0.221
-0.437
0.174
0.540
0.297
0.082
-0.186
-0.264
-0.080
0.093
0.183
0.052
0.097
0.226
-0.052
0.084
-0.034
-0.185
0.083
0.024
-0.107
0.043
-0.040
-0.007
0.111
0.047
0.082
0.081
0.003
0.193
0.091
-0.550
-0.365
0.158
0.631
0.191
0.081
-0.146
-0.473
-0.041
0.423
0.253
0.087
-0.436
-0.250
0.316
0.386
0.349
0.260
-0.073
-0.232
-0.376
-0.176
-0.109
0.153
0.409
0.352
-0.071
-0.227
-0.204
0.070
0.059
0.028
0.037
-0.130
-0.384
-0.240
0.542
0.709
0.175
-0.257
-0.133
-0.174
0.026
-0.043
0.060
0.075
0.054
0.038
-0.021
0.030
-0.035
0.076
0.002
0.007
-0.035
-0.066
-0.094
-0.066
0.133
0.185
0.109
0.114
-0.127
-0.054
0.118
0.286
-0.124
-0.449
-0.212
0.435
0.412
0.117
-0.116
-0.126
-0.151
-0.245
0.061
0.154
0.180
0.075
0.124
0.081
0.053
-0.048
-0.190
-0.062
0.048
0.157
0.227
0.127
-0.106
-0.087
-0.067
-0.014
0.118
0.058
-0.030
0.005
-0.022
0.011
0.092
-0.227
-0.526
0.230
0.783
0.483
-0.161
-0.312
-0.261
-0.099
0.147
0.088
0.091
0.029
-0.065
0.152
-0.076
0.261
0.153
0.027
-0.179
-0.144
-0.054
0.104
-0.016
0.047
0.209
0.068
-0.005
-0.087
0.060
-0.083
0.146
0.032
-0.065
0.034
0.115
-0.049
-0.037
0.083
0.007
-0.015
-0.000
0.205
0.061
0.184
-0.053
-0.565
-0.306
0.293
0.546
0.077
-0.294
0.087
0.199
0.084
-0.143
-0.221
-0.206
-0.160
0.224
0.261
0.355
0.013
-0.159
-0.046
-0.108
-0.012
0.205
0.086
-0.258
-0.073
0.161
0.165
-0.231
-0.286
0.361
0.537
0.287
-0.061
-0.234
-0.231
-0.135
-0.151
0.029
0.078
0.238
0.075
0.023
0.088
-0.010
0.118
0.032
-0.380
-0.501
-0.015
0.262
0.390
0.255
-0.037
-0.186
-0.039
-0.065
-0.143
0.058
0.291
0.409
0.003
-0.017
-0.104
-0.086
-0.056
0.024
0.095
-0.042
-0.168
0.150
0.033
0.057
-0.010
-0.026
0.131
0.175
0.111
-0.224
-0.438
-0.201
0.434
0.426
0.076
-0.219
0.159
0.206
-0.155
0.036
0.011
-0.163
0.053
0.165
0.122
-0.007
0.003
-0.011
-0.015
0.025
0.066
-0.237
-0.278
-0.033
0.466
0.476
0.155
-0.223
-0.315
-0.094
-0.034
0.006
0.065
0.167
0.304
0.028
-0.052
-0.135
0.086
-0.044
-0.173
0.031
-0.038
0.016
0.095
0.042
0.065
-0.019
0.036
-0.007
0.078
-0.029
0.103
0.048
0.103
0.027
0.049
0.018
-0.013
-0.040
0.131
-0.004
-0.091
0.027
0.012
0.094
-0.039
-0.009
0.135
0.040
-0.184
-0.056
0.131
0.107
0.042
0.071
0.021
0.110
0.015
-0.185
0.092
-0.016
0.056
0.055
-0.096
-0.236
0.111
0.289
0.010
-0.100
-0.003
0.178
0.284
0.135
-0.306
-0.769
-0.589
0.150
0.387
0.275
0.395
0.510
0.147
-0.113
-0.312
-0.301
-0.095
-0.094
0.284
0.259
0.354
0.164
0.005
-0.001
0.044
-0.165
-0.253
-0.033
0.056
0.041
-0.237
-0.122
0.083
0.101
0.175
0.173
-0.031
0.010
-0.069
-0.033
0.038
0.080
0.038
0.099
0.032
-0.017
-0.083
0.010
0.022
0.084
-0.104
0.094
0.183
-0.069
-0.035
0.033
-0.053
-0.066
0.077
0.161
-0.007
0.135
0.162
-0.081
-0.145
0.009
0.017
0.100
0.065
-0.147
-0.050
0.201
0.138
-0.102
-0.212
-0.045
0.188
0.047
-0.083
0.102
0.056
0.126
0.093
-0.117
-0.035
0.007
-0.100
-0.255
0.456
0.598
0.195
-0.022
-0.329
-0.444
-0.132
0.197
0.257
0.311
-0.225
-0.553
-0.089
0.503
0.195
-0.023
-0.061
0.030
-0.062
-0.005
-0.017
-0.030
0.034
-0.130
0.031
0.237
0.098
0.111
-0.112
0.034
-0.068
-0.030
0.040
0.118
0.156
-0.131
-0.053
0.126
-0.082
-0.122
-0.018
0.026
0.149
0.187
0.028
-0.151
-0.318
-0.205
-0.176
0.184
0.283
0.307
0.104
-0.027
-0.102
-0.055
0.026
-0.043
0.006
0.073
0.139
0.119
0.016
0.160
0.050
-0.112
-0.267
-0.061
0.122
-0.033
0.017
-0.320
-0.186
0.183
0.616
0.630
0.014
-0.516
-0.563
-0.282
0.039
0.389
0.541
0.247
0.102
-0.013
-0.285
-0.325
-0.026
0.374
0.048
-0.381
-0.246
0.058
0.336
0.056
-0.005
-0.040
0.051
0.049
-0.019
-0.057
0.050
0.054
0.033
0.131
0.152
0.013
-0.054
-0.036
0.123
-0.032
0.065
-0.075
-0.000
-0.085
-0.065
0.165
-0.024
0.065
0.076
0.089
-0.079
0.019
0.050
0.002
0.108
0.009
0.018
-0.008
0.048
0.076
-0.029
-0.031
0.008
0.121
0.120
-0.029
0.002
0.019
-0.017
0.043
0.092
-0.020
-0.254
-0.052
0.164
0.005
-0.190
-0.357
-0.030
0.767
0.478
0.066
-0.267
-0.189
-0.222
-0.043
0.143
0.010
0.084
0.124
0.241
0.096
-0.026
0.043
-0.117
-0.153
-0.283
-0.069
-0.329
-0.547
0.041
0.746
0.680
0.082
0.086
-0.098
-0.346
-0.216
0.073
0.187
0.127
0.184
0.133
0.122
0.076
0.054
-0.088
0.044
-0.105
0.023
-0.086
-0.006
-0.067
-0.216
-0.152
0.209
0.164
0.008
-0.000
0.173
-0.091
0.043
0.041
0.039
0.071
0.054
0.001
0.038
0.080
0.050
-0.046
-0.041
0.018
0.036
-0.126
0.128
-0.009
-0.095
0.187
0.089
0.017
-0.018
0.173
0.014
-0.079
0.079
0.013
-0.310
-0.444
0.419
0.537
0.270
0.114
-0.253
-0.308
-0.163
0.001
0.061
0.085
0.149
0.120
0.037
-0.098
-0.184
-0.215
0.053
0.172
0.222
0.108
0.059
-0.008
-0.241
-0.439
-0.179
0.338
0.445
0.214
-0.104
-0.076
0.048
0.213
-0.018
-0.223
-0.043
0.138
0.185
0.110
0.037
-0.045
-0.066
0.102
0.095
-0.090
-0.130
-0.052
-0.167
-0.011
0.251
0.218
0.060
-0.078
-0.082
-0.137
-0.203
0.050
0.199
0.046
-0.076
0.082
0.246
0.163
0.019
0.023
-0.202
-0.033
-0.062
0.025
-0.015
-0.103
-0.283
-0.072
0.516
0.325
0.055
0.055
-0.227
-0.185
0.095
0.104
0.134
0.212
0.112
-0.066
-0.168
-0.196
0.307
0.279
-0.055
-0.041
-0.238
-0.056
-0.042
0.078
0.083
0.127
0.027
-0.168
0.245
0.132
-0.181
0.003
0.026
0.100
0.151
0.022
-0.007
-0.078
-0.072
0.031
0.104
0.201
-0.219
-0.397
-0.113
0.433
0.280
0.020
0.086
-0.104
-0.015
-0.137
0.198
0.180
-0.216
-0.136
0.041
0.299
0.176
0.096
-0.056
0.037
-0.189
-0.050
-0.079
-0.019
0.025
0.125
0.047
0.099
-0.052
-0.107
-0.162
0.177
0.105
-0.010
-0.132
-0.047
0.015
0.082
-0.031
-0.045
0.024
0.087
0.046
0.222
-0.052
0.018
0.061
0.015
0.029
-0.126
-0.314
-0.125
0.624
0.831
0.332
-0.163
-0.641
-0.525
-0.089
0.145
0.399
0.450
0.169
-0.055
-0.004
-0.102
-0.069
-0.028
0.073
-0.121
-0.146
-0.094
0.151
0.274
0.164
0.034
-0.011
-0.135
-0.056
0.029
-0.018
0.080
-0.042
0.068
0.098
0.147
-0.114
0.028
0.034
0.077
0.021
0.018
0.107
-0.006
0.005
0.032
0.135
-0.018
0.078
0.070
0.110
0.055
0.111
0.173
-0.346
-0.582
-0.129
0.568
0.390
0.066
-0.204
-0.170
0.235
-0.014
-0.228
0.021
0.196
0.169
0.112
0.016
0.066
-0.229
0.083
0.255
-0.020
-0.087
-0.282
-0.334
-0.256
0.655
0.649
0.234
-0.170
-0.409
-0.294
-0.261
0.190
0.196
0.203
0.157
0.018
-0.034
-0.066
-0.090
0.044
-0.115
-0.012
-0.038
0.026
-0.002
0.128
-0.028
0.018
-0.046
0.111
0.002
-0.178
0.085
-0.010
0.142
0.117
-0.005
-0.018
-0.014
-0.027
0.011
-0.030
0.165
0.014
0.067
0.045
-0.010
0.052
0.082
0.024
0.030
-0.026
-0.039
-0.003
0.047
0.034
0.106
0.035
0.111
0.168
-0.110
-0.239
-0.157
-0.106
-0.153
0.143
0.449
0.331
0.000
-0.118
-0.185
-0.099
0.079
-0.025
-0.112
0.267
0.203
0.050
0.012
-0.006
-0.172
-0.055
0.253
0.200
0.127
-0.083
-0.408
-0.232
0.478
0.547
0.138
0.186
-0.308
-0.341
-0.051
0.204
0.294
-0.299
-0.250
0.124
0.382
0.086
-0.002
-0.224
-0.084
0.023
0.047
0.047
-0.076
0.123
0.055
0.066
0.023
0.065
0.024
0.010
-0.018
-0.018
0.037
-0.010
0.163
0.027
-0.271
-0.063
0.300
0.258
0.008
-0.094
-0.043
0.054
0.051
-0.011
0.035
0.013
0.093
0.028
-0.047
-0.078
-0.035
0.070
0.059
-0.122
0.206
-0.101
-0.030
0.061
0.101
0.010
-0.083
-0.008
0.119
0.063
-0.007
-0.004
0.051
-0.064
0.151
0.069
-0.088
0.123
-0.035
0.062
0.044
0.085
-0.074
-0.009
0.085
0.083
-0.182
-0.108
0.176
0.124
-0.174
-0.078
0.020
0.158
0.256
0.194
0.030
-0.172
-0.639
-0.406
0.068
0.767
0.796
0.304
-0.299
-0.459
-0.232
-0.172
0.017
0.170
0.263
0.099
0.083
0.100
-0.009
0.057
-0.071
0.045
-0.031
-0.346
0.030
-0.028
0.097
0.204
0.217
-0.023
-0.166
0.079
-0.041
0.023
0.122
0.090
0.051
-0.038
0.025
0.026
-0.062
0.137
0.118
-0.035
-0.024
-0.036
-0.072
-0.030
0.044
0.170
0.147
0.045
-0.039
-0.006
0.005
0.062
0.041
0.019
0.061
-0.105
0.050
-0.021
-0.075
-0.046
0.084
0.221
0.003
-0.043
-0.001
0.007
-0.034
-0.042
-0.013
-0.235
-0.150
0.145
0.265
0.218
-0.032
-0.208
0.065
0.192
-0.006
0.005
0.156
0.044
0.122
-0.231
-0.489
-0.168
-0.016
0.117
0.445
0.606
0.381
-0.098
-0.339
-0.522
-0.160
0.341
0.132
0.204
0.052
0.110
0.108
0.024
-0.048
-0.076
-0.210
-0.089
-0.105
0.096
0.095
-0.030
-0.127
-0.149
0.019
0.315
-0.085
-0.038
-0.037
0.062
0.092
0.172
0.162
-0.268
-0.138
0.127
0.210
0.076
0.085
0.290
-0.011
-0.236
-0.264
-0.126
-0.050
-0.024
0.442
0.428
0.123
-0.143
-0.224
-0.081
-0.003
-0.123
0.056
0.162
0.065
0.050
0.127
-0.005
0.027
-0.144
-0.079
0.121
0.177
-0.087
0.007
-0.062
-0.042
-0.072
-0.026
0.088
0.182
0.279
-0.253
-0.195
0.118
0.188
-0.006
-0.371
-0.279
0.435
0.601
0.218
-0.144
-0.338
-0.139
-0.053
0.023
0.062
0.180
0.280
0.151
0.238
-0.254
-0.586
-0.178
0.247
0.391
0.010
-0.156
-0.165
0.038
-0.004
0.052
0.135
0.051
-0.144
-0.016
0.211
0.150
0.062
0.079
-0.042
-0.123
0.082
0.071
-0.091
0.021
-0.021
-0.045
0.050
0.055
-0.005
0.158
-0.097
-0.350
-0.071
0.123
0.294
0.050
-0.006
0.044
0.012
-0.136
-0.062
-0.006
0.343
0.250
0.021
-0.125
-0.092
0.042
0.007
0.060
0.090
0.173
-0.415
-0.580
0.058
0.530
0.280
0.262
0.241
-0.205
-0.292
-0.143
-0.078
0.138
-0.138
0.012
0.302
0.199
0.069
0.049
-0.043
0.044
-0.108
-0.387
-0.157
0.141
0.154
0.176
-0.044
-0.035
-0.048
0.068
-0.004
-0.037
0.092
0.044
0.281
-0.079
-0.133
0.112
0.138
0.118
-0.057
-0.177
-0.345
0.221
0.480
0.008
-0.042
-0.094
0.053
-0.090
-0.247
0.134
0.168
0.087
-0.043
0.051
0.096
-0.003
0.007
0.100
0.010
0.029
-0.114
-0.075
0.084
0.076
0.012
0.068
0.088
-0.027
-0.031
0.022
-0.082
0.118
0.182
-0.085
-0.075
-0.282
-0.224
0.268
0.582
0.431
-0.026
-0.225
-0.251
-0.250
-0.099
0.249
0.419
-0.016
-0.085
0.107
0.004
-0.165
0.059
0.147
0.001
0.007
-0.142
-0.086
0.011
0.104
0.013
0.076
0.022
0.145
0.013
0.097
-0.104
-0.036
0.244
0.284
0.071
-0.119
-0.167
-0.080
0.072
0.036
0.222
0.159
0.103
-0.159
-0.367
-0.157
0.066
0.208
0.297
0.282
-0.141
-0.125
-0.217
-0.080
0.108
-0.008
0.223
0.293
-0.011
-0.389
-0.207
0.326
0.371
-0.160
-0.113
0.073
0.001
0.014
-0.019
-0.167
-0.037
0.076
0.089
0.171
-0.040
-0.032
-0.174
-0.215
0.336
0.603
0.190
-0.155
-0.293
-0.159
0.030
-0.082
-0.190
0.195
0.314
0.297
0.103
-0.033
-0.104
-0.029
-0.283
-0.201
0.188
0.188
0.124
0.003
0.004
0.091
0.013
0.039
-0.014
-0.312
-0.077
0.227
0.131
0.048
0.109
0.039
-0.130
-0.060
-0.061
-0.124
-0.008
0.117
-0.004
0.002
-0.005
0.037
0.057
0.079
-0.006
0.007
0.113
-0.015
-0.015
0.020
-0.086
0.106
0.212
0.048
0.061
-0.018
0.083
0.000
0.074
-0.004
0.067
0.035
0.083
0.153
0.075
-0.438
-0.357
0.121
0.435
0.138
-0.022
-0.149
0.017
-0.146
-0.349
-0.274
0.170
0.633
0.467
0.019
-0.097
-0.275
-0.156
-0.039
0.046
0.167
0.073
-0.015
0.014
0.027
0.288
-0.131
-0.085
-0.080
-0.210
-0.211
-0.256
-0.017
-0.100
0.176
0.723
0.321
-0.165
-0.213
-0.191
-0.145
0.040
0.155
0.217
0.091
0.121
-0.015
-0.068
-0.013
0.129
-0.041
-0.052
-0.019
-0.080
-0.097
-0.026
0.194
-0.023
-0.049
-0.010
-0.043
0.079
0.006
0.123
0.089
0.043
0.046
-0.043
0.052
-0.043
-0.048
0.086
0.125
0.023
0.058
-0.060
0.015
0.071
0.049
0.006
-0.050
0.015
0.036
0.130
-0.001
0.031
-0.031
0.026
0.120
0.180
-0.355
-0.967
0.031
0.872
0.720
0.163
-0.132
-0.266
-0.174
-0.095
0.075
0.144
0.216
0.048
0.029
-0.040
0.036
0.118
-0.129
-0.021
-0.063
-0.066
0.003
0.060
-0.044
0.020
0.029
0.157
0.054
-0.014
0.048
-0.115
0.173
0.323
-0.011
0.085
-0.068
-0.030
0.049
0.063
-0.048
0.105
-0.030
0.180
0.097
-0.341
-0.180
0.051
0.215
0.191
-0.185
-0.281
0.065
0.109
0.097
0.014
-0.096
-0.061
0.138
-0.005
-0.013
0.091
-0.054
-0.194
-0.044
-0.059
0.137
0.315
-0.010
-0.221
-0.056
0.147
-0.334
-0.460
-0.075
0.688
0.483
0.117
-0.147
-0.333
-0.250
-0.094
0.222
0.172
0.167
0.212
0.114
-0.435
-0.600
-0.111
0.554
0.305
0.180
-0.033
-0.152
-0.246
0.110
-0.049
0.198
0.142
0.087
-0.015
0.065
0.069
-0.160
-0.144
0.129
0.291
0.121
-0.034
-0.091
0.085
-0.175
-0.094
-0.052
0.124
0.184
-0.027
0.039
-0.035
-0.043
0.114
0.043
-0.094
-0.093
0.061
0.110
-0.075
0.011
0.083
0.022
0.033
0.082
-0.038
0.093
0.117
0.062
-0.074
0.025
0.109
0.036
0.047
0.067
-0.087
-0.134
-0.021
0.254
0.168
0.034
0.031
-0.084
0.026
-0.030
-0.286
-0.177
0.357
0.670
0.354
0.014
-0.246
-0.339
-0.091
0.042
0.201
-0.006
0.079
0.036
0.012
0.042
-0.098
-0.102
0.020
0.040
0.032
-0.075
-0.010
0.032
0.047
0.009
-0.048
0.126
0.225
-0.072
-0.125
-0.011
0.198
0.230
0.049
0.156
0.202
0.174
-0.089
-0.745
-0.582
0.081
0.673
0.456
0.435
0.030
-0.128
-0.138
-0.189
-0.323
0.120
0.321
0.235
0.001
0.060
0.121
0.122
0.125
-0.093
-0.051
-0.017
-0.086
0.024
-0.015
-0.012
-0.046
-0.130
-0.090
0.064
0.148
0.125
0.143
0.097
0.054
-0.003
-0.004
0.112
0.060
0.085
0.084
0.019
0.097
0.071
0.008
-0.065
-0.277
-0.213
0.255
0.545
0.297
-0.302
-0.371
-0.163
0.089
0.176
0.031
0.211
0.136
0.074
-0.315
-0.044
0.150
0.093
-0.030
-0.067
-0.026
0.035
-0.003
-0.136
0.048
0.090
-0.023
-0.024
0.081
-0.095
0.100
0.032
-0.085
-0.008
0.123
-0.123
0.026
0.049
-0.252
0.007
0.174
0.167
-0.035
0.044
0.105
0.054
0.173
-0.052
-0.488
-0.359
0.287
0.588
0.142
-0.111
0.039
-0.145
0.022
0.115
0.119
-0.007
-0.084
-0.079
-0.023
0.151
0.020
0.014
-0.052
-0.066
-0.076
0.026
0.111
0.047
-0.096
-0.023
0.148
0.020
-0.125
-0.309
-0.082
-0.087
-0.040
0.468
0.340
0.022
-0.026
-0.088
-0.167
-0.225
-0.253
-0.040
0.704
0.562
0.178
-0.092
-0.177
-0.225
0.042
-0.044
-0.032
0.116
0.351
-0.039
-0.104
-0.262
0.185
0.242
-0.072
-0.161
-0.125
0.048
-0.037
0.036
-0.033
0.024
0.290
-0.020
0.184
-0.020
0.090
0.023
-0.041
0.024
-0.059
0.022
0.008
0.021
-0.055
0.103
0.019
-0.044
-0.052
0.000
0.079
-0.073
-0.019
0.150
-0.026
-0.126
-0.073
0.103
0.245
0.077
0.018
-0.144
-0.004
-0.072
-0.004
0.092
0.046
0.006
0.131
0.109
0.086
0.041
-0.102
0.037
-0.021
-0.031
0.135
0.046
-0.044
0.066
-0.007
0.040
0.055
0.010
0.101
-0.015
-0.087
0.021
0.104
-0.137
-0.250
-0.038
0.665
0.451
0.036
0.032
-0.105
-0.133
-0.515
-0.442
0.002
0.536
0.482
0.100
-0.082
-0.061
-0.074
-0.060
-0.069
0.071
-0.053
-0.111
0.037
0.202
0.114
0.141
-0.028
-0.010
0.034
-0.096
0.039
-0.072
0.053
0.040
0.041
0.080
0.152
0.062
-0.370
-0.015
0.102
0.113
0.120
-0.025
0.134
-0.019
-0.047
-0.059
0.028
0.028
-0.051
-0.169
0.177
0.215
0.039
0.199
0.231
-0.149
-0.652
-0.502
0.104
0.442
0.348
0.324
0.005
-0.156
-0.123
0.050
0.087
-0.071
0.003
0.237
0.098
0.054
0.083
0.064
0.001
0.056
-0.093
-0.102
-0.376
-0.372
0.471
0.613
0.315
-0.244
-0.348
-0.053
0.209
0.169
-0.176
-0.454
0.074
0.641
0.313
-0.059
-0.100
-0.097
-0.097
-0.109
-0.076
0.024
0.198
-0.025
0.030
-0.050
0.138
0.096
-0.029
-0.008
0.207
-0.019
-0.013
0.010
0.063
0.041
-0.018
0.108
0.050
-0.021
0.008
-0.029
0.071
-0.025
-0.067
0.143
0.147
0.050
0.087
-0.008
-0.276
-0.093
0.188
0.227
0.161
0.127
-0.217
-0.063
-0.037
0.148
-0.044
0.003
0.130
-0.011
-0.093
-0.019
0.190
0.081
0.081
-0.249
-0.346
-0.092
0.449
0.501
0.018
-0.121
-0.271
-0.277
0.099
0.180
0.046
0.097
0.159
0.039
-0.084
-0.201
0.002
0.116
-0.127
-0.045
-0.079
-0.063
0.131
0.097
0.095
0.251
-0.288
-0.395
-0.106
0.424
0.456
0.177
0.052
-0.072
-0.518
-0.079
0.242
0.039
-0.028
0.126
0.091
0.083
0.067
0.051
0.001
0.142
-0.126
-0.053
0.099
0.093
0.030
0.199
0.032
-0.094
-0.107
-0.036
-0.024
0.078
0.060
0.001
0.099
-0.049
-0.110
-0.065
-0.021
0.248
-0.031
0.057
0.248
-0.180
-0.194
-0.060
0.132
0.158
0.029
0.041
-0.052
-0.229
-0.170
0.054
0.478
0.358
0.071
0.069
-0.297
-0.310
-0.012
0.141
0.190
0.219
0.109
-0.043
-0.203
-0.083
-0.017
0.111
0.005
0.037
0.056
0.040
-0.035
-0.073
-0.076
0.144
0.085
0.136
-0.086
0.012
0.123
0.136
-0.026
-0.005
0.003
0.100
-0.115
0.007
0.002
0.065
0.043
-0.060
0.107
0.111
0.023
-0.034
-0.064
0.108
-0.025
0.033
-0.118
0.020
0.103
0.156
0.241
-0.271
-0.553
-0.221
0.418
0.429
0.061
-0.017
-0.041
-0.049
-0.121
0.004
0.049
0.123
0.179
0.062
0.167
0.075
-0.014
-0.258
-0.184
-0.102
0.014
0.256
0.181
0.041
0.057
0.094
-0.030
-0.045
-0.002
-0.232
-0.206
-0.008
0.354
0.426
0.117
-0.452
-0.402
0.066
0.428
0.440
0.045
-0.072
-0.227
-0.216
0.034
-0.106
0.048
0.180
0.168
0.203
-0.025
-0.317
-0.054
0.106
-0.088
0.148
-0.103
-0.093
-0.127
0.148
0.000
-0.161
0.121
0.261
-0.089
-0.010
0.050
-0.090
-0.026
0.077
0.113
0.137
0.110
0.015
-0.165
-0.043
-0.044
0.060
0.013
0.014
0.101
0.108
0.117
-0.007
-0.074
0.032
-0.025
-0.100
-0.080
0.028
0.206
0.141
0.063
-0.032
-0.144
-0.032
0.048
-0.042
0.068
0.114
0.036
0.200
0.096
-0.127
-0.572
-0.254
0.380
0.388
0.089
0.062
-0.045
-0.013
-0.147
0.001
0.103
0.134
-0.039
-0.258
-0.146
-0.157
0.250
0.693
0.526
-0.022
-0.113
0.011
-0.222
-0.052
-0.076
0.192
0.172
0.078
0.013
0.074
0.016
0.022
-0.258
-0.032
0.280
0.068
-0.339
-0.337
-0.287
-0.036
0.161
0.264
0.318
0.129
0.200
-0.111
-0.325
-0.008
0.340
0.160
0.022
0.052
0.055
0.040
0.007
-0.021
-0.022
-0.030
-0.180
0.031
-0.056
0.073
-0.014
0.044
0.135
0.067
-0.117
0.207
-0.098
0.179
0.197
0.188
0.078
-0.292
-0.322
0.033
0.424
0.348
-0.184
-0.197
-0.258
-0.229
-0.048
0.511
0.463
0.006
-0.185
-0.323
-0.016
0.097
0.011
0.057
0.228
0.014
0.155
-0.014
-0.150
0.079
-0.198
-0.366
0.087
0.160
0.257
0.084
-0.070
-0.118
0.072
0.156
0.047
0.011
0.090
0.085
-0.077
0.178
0.073
0.118
0.033
-0.033
-0.097
-0.089
0.033
-0.075
-0.163
-0.059
0.156
0.206
0.107
0.116
0.136
-0.060
-0.079
-0.041
0.010
0.058
0.154
-0.020
0.036
-0.050
0.060
0.299
0.197
-0.258
-0.805
-0.491
0.289
0.565
0.457
0.233
-0.251
-0.209
-0.272
-0.084
0.145
0.048
-0.058
0.143
0.124
0.233
0.018
-0.381
-0.334
0.233
0.563
0.528
-0.100
-0.693
-0.375
0.102
0.095
0.200
0.107
0.124
0.160
0.064
0.055
-0.089
0.092
0.023
-0.045
0.038
0.047
0.204
-0.209
-0.402
-0.144
0.220
0.412
0.183
0.056
-0.109
-0.076
-0.067
0.035
-0.016
0.119
0.072
0.057
0.015
0.041
0.045
0.073
0.076
0.178
-0.081
-0.556
-0.228
0.301
0.416
0.363
-0.034
0.013
-0.106
-0.059
0.028
0.140
-0.029
0.046
0.160
0.152
0.163
-0.011
0.079
-0.011
-0.066
-0.044
-0.168
-0.292
0.081
0.795
0.472
0.037
-0.090
-0.142
-0.131
-0.134
-0.122
-0.140
0.018
0.230
0.362
0.275
0.071
-0.023
-0.145
-0.245
-0.075
0.038
0.178
-0.030
-0.059
0.159
0.195
0.165
0.058
-0.012
0.082
0.051
-0.031
-0.051
-0.054
0.105
0.033
0.019
-0.109
0.130
0.021
0.130
-0.034
-0.090
-0.020
0.260
0.059
-0.112
0.010
0.057
0.067
-0.037
-0.012
0.041
0.013
0.220
-0.028
0.051
0.028
0.045
0.003
-0.384
0.003
0.331
0.441
0.317
-0.386
-0.531
-0.177
0.126
0.242
0.353
0.094
0.012
-0.035
-0.090
-0.061
-0.254
-0.290
0.168
0.801
0.500
-0.040
-0.260
-0.296
-0.074
-0.002
0.083
0.083
0.070
0.075
0.107
-0.102
0.016
-0.069
0.060
-0.081
-0.014
0.046
0.001
-0.084
0.012
0.008
-0.030
0.096
0.146
0.152
-0.016
-0.029
0.171
0.201
0.086
-0.154
-0.315
-0.185
-0.011
0.066
0.282
0.263
0.019
-0.091
-0.181
-0.175
0.009
0.107
0.099
0.073
0.114
0.087
-0.025
0.095
-0.021
0.063
-0.063
0.104
0.335
0.165
-0.568
-0.687
0.105
0.667
0.424
-0.067
-0.173
-0.022
-0.361
-0.300
0.474
0.617
0.298
-0.078
-0.292
-0.010
-0.066
0.027
0.156
0.216
-0.148
-0.009
-0.078
0.067
0.133
-0.061
-0.168
-0.080
-0.229
0.121
0.295
0.058
-0.121
0.023
0.169
0.050
-0.115
0.003
0.051
0.054
0.163
0.017
-0.181
-0.101
0.130
0.148
-0.036
-0.117
0.065
0.040
0.013
0.179
0.044
0.070
-0.078
0.044
0.127
0.044
-0.051
0.087
0.045
-0.033
0.071
-0.019
-0.029
-0.056
0.074
0.048
0.030
-0.167
-0.017
0.222
0.098
0.142
-0.016
0.112
-0.124
-0.490
-0.275
0.120
0.503
0.194
-0.018
-0.465
0.182
0.161
0.006
0.141
-0.196
-0.077
0.038
0.155
0.048
-0.005
0.091
0.089
-0.011
-0.008
0.003
0.060
-0.043
-0.099
0.002
0.092
-0.244
0.008
0.052
0.125
0.037
-0.086
-0.033
-0.036
0.038
0.037
0.167
0.143
0.159
-0.023
-0.201
0.003
-0.029
-0.029
0.145
0.071
0.027
0.088
-0.042
0.043
0.181
0.031
-0.281
-0.056
0.194
0.137
-0.038
-0.057
0.178
0.129
0.139
-0.285
-0.795
-0.278
0.854
0.832
-0.093
-0.359
-0.153
-0.088
0.012
0.093
0.170
0.076
-0.053
-0.005
0.056
0.023
0.146
-0.055
-0.047
-0.219
-0.233
-0.229
0.152
0.588
0.190
-0.086
-0.048
-0.286
-0.133
0.166
0.129
0.140
0.047
-0.256
-0.086
0.181
0.154
0.081
-0.107
-0.104
-0.050
-0.124
-0.045
0.276
0.256
0.214
-0.200
-0.389
-0.125
0.080
0.077
0.244
0.415
0.085
-0.077
-0.296
-0.209
0.106
-0.024
0.150
0.019
0.090
0.067
0.033
-0.065
0.012
0.107
0.025
-0.045
-0.081
-0.106
0.038
0.050
-0.020
0.107
0.073
-0.055
0.027
0.192
0.250
-0.363
-0.462
-0.017
0.444
0.498
0.054
-0.092
-0.026
-0.148
-0.195
-0.052
-0.079
-0.286
0.001
0.708
0.539
0.024
-0.128
-0.196
-0.231
-0.028
-0.048
0.148
0.158
0.033
0.067
0.118
-0.100
-0.016
-0.098
0.062
0.051
-0.033
-0.024
0.127
0.040
-0.121
-0.261
0.051
0.088
0.385
0.327
-0.080
-0.532
-0.166
0.080
0.179
0.033
-0.072
0.002
-0.022
0.058
-0.240
-0.009
0.309
0.186
-0.031
-0.002
-0.028
-0.131
0.033
0.158
0.071
0.056
-0.022
0.073
-0.047
-0.177
-0.023
0.187
0.091
0.000
-0.034
0.190
0.208
-0.295
-0.618
-0.104
0.176
-0.009
0.112
0.437
0.291
-0.301
-0.355
0.139
0.529
0.319
0.057
-0.107
-0.062
-0.062
0.061
0.069
0.042
0.136
-0.075
-0.097
-0.113
0.002
-0.073
-0.176
-0.052
0.037
0.007
-0.206
-0.064
0.242
0.004
0.165
0.163
0.183
0.032
-0.013
0.035
-0.146
0.229
0.124
0.183
-0.078
-0.052
-0.014
-0.017
0.205
0.047
0.086
0.209
0.151
-0.227
-0.097
0.052
0.151
0.149
0.040
0.079
-0.080
-0.066
-0.134
0.017
0.131
0.112
-0.011
-0.059
-0.141
-0.109
0.140
-0.020
0.077
0.005
0.019
-0.010
0.087
-0.009
-0.509
-0.120
0.219
0.454
-0.218
-0.223
0.126
0.458
0.296
0.049
-0.461
-0.522
0.046
0.253
0.421
0.132
-0.051
-0.196
-0.066
0.246
0.129
0.092
0.095
-0.112
-0.361
-0.317
-0.063
0.069
0.324
0.358
0.143
-0.086
-0.236
-0.105
-0.063
0.134
0.051
0.149
0.049
0.137
0.175
0.071
-0.006
0.068
0.075
0.039
0.003
0.004
0.148
0.030
0.086
0.003
-0.045
-0.125
0.024
0.168
-0.005
0.055
-0.036
-0.072
0.036
-0.105
-0.042
0.071
0.148
-0.067
-0.273
0.035
0.127
0.231
0.179
0.194
-0.373
-0.405
-0.154
0.521
0.213
-0.108
0.394
0.564
0.123
-0.246
-0.300
0.045
0.031
0.184
0.130
0.262
0.153
0.002
0.019
0.027
-0.129
0.091
-0.035
-0.144
-0.042
0.264
0.069
0.069
-0.093
-0.107
-0.041
0.064
0.025
-0.051
0.034
0.078
0.071
0.063
0.040
-0.116
0.015
-0.023
-0.092
0.140
-0.066
0.108
0.009
0.140
-0.006
-0.041
-0.058
0.092
-0.053
0.067
0.094
0.183
0.058
-0.163
0.019
-0.039
-0.076
-0.011
-0.121
-0.133
0.123
0.271
0.128
0.166
0.018
-0.043
-0.130
-0.163
-0.279
0.080
0.328
0.108
0.081
0.039
0.014
-0.315
0.300
0.454
-0.075
-0.377
-0.160
0.341
-0.039
-0.117
0.124
0.145
0.096
-0.030
0.054
-0.021
0.051
0.065
-0.077
-0.039
-0.020
0.028
0.021
0.093
-0.180
-0.014
-0.050
-0.055
0.207
0.087
0.020
-0.099
0.067
0.026
0.054
0.043
0.096
-0.020
-0.018
0.190
-0.022
-0.098
0.042
0.038
0.014
0.041
0.027
-0.063
-0.156
0.060
-0.040
0.081
0.095
0.081
0.026
-0.032
-0.016
-0.115
0.009
0.174
-0.001
0.169
-0.238
0.017
0.021
0.096
0.080
0.020
0.034
-0.076
0.075
-0.062
0.201
0.355
-0.208
-0.551
-0.539
0.202
1.119
0.670
-0.065
-0.400
-0.372
-0.460
-0.199
0.119
0.295
0.318
0.189
-0.021
-0.072
-0.102
-0.014
0.024
-0.027
0.060
-0.010
0.050
0.026
-0.026
0.007
0.043
0.007
0.101
-0.090
-0.239
0.104
0.143
0.173
-0.198
-0.067
0.287
0.154
-0.041
-0.111
-0.088
0.071
-0.122
-0.127
0.224
0.318
0.037
-0.024
-0.029
0.030
0.086
0.090
-0.122
-0.320
0.208
0.164
0.105
0.029
0.110
-0.012
0.003
0.107
-0.069
-0.068
-0.099
0.131
0.000
-0.126
-0.011
-0.040
-0.233
-0.177
0.503
0.706
0.277
-0.456
-0.643
-0.359
0.198
0.735
0.156
0.051
-0.047
-0.114
0.013
-0.103
-0.064
-0.020
0.093
-0.130
0.054
0.300
-0.012
0.031
0.133
-0.258
-0.315
-0.041
0.167
0.253
0.045
0.039
0.120
0.034
-0.009
-0.023
-0.219
0.263
0.236
0.162
-0.121
-0.245
-0.047
-0.056
-0.010
0.263
0.147
-0.056
0.047
-0.095
-0.168
-0.066
0.177
0.074
-0.020
-0.133
-0.022
0.079
0.046
0.211
0.148
0.127
-0.029
-0.128
-0.008
0.034
0.108
0.098
0.128
0.083
0.106
0.009
-0.034
0.081
-0.047
0.087
-0.092
-0.030
-0.181
-0.263
-0.247
0.578
0.445
0.011
-0.016
-0.009
-0.201
-0.303
-0.244
0.141
0.467
0.540
0.104
-0.505
-0.532
0.049
0.350
0.073
-0.016
-0.070
0.021
-0.068
-0.110
-0.083
0.070
0.156
-0.071
0.108
0.342
0.107
-0.257
0.009
0.185
0.105
0.131
0.077
-0.012
0.039
-0.120
-0.137
0.105
0.102
0.093
0.123
-0.145
-0.085
-0.132
0.177
0.152
0.086
0.041
-0.106
-0.089
-0.020
0.106
0.043
0.088
0.176
0.201
-0.018
-0.274
-0.367
-0.029
-0.119
0.165
0.598
0.180
0.040
-0.244
-0.574
-0.366
0.430
0.760
0.200
-0.073
-0.187
-0.117
0.013
0.107
0.145
0.142
0.220
-0.024
-0.011
0.079
-0.051
-0.116
0.000
0.087
-0.147
0.014
0.340
0.333
-0.435
-0.439
0.031
0.416
0.270
0.053
0.002
-0.032
-0.021
0.001
-0.077
0.072
-0.013
0.077
-0.005
0.087
0.177
0.012
0.089
-0.142
0.010
-0.085
0.002
0.041
-0.056
0.085
0.037
0.085
-0.077
0.036
-0.014
0.108
-0.023
0.075
0.138
0.054
-0.232
-0.128
-0.079
0.244
0.110
0.132
-0.002
0.022
-0.284
-0.107
0.367
0.196
-0.057
-0.141
0.005
-0.001
-0.073
0.044
0.189
0.115
0.050
-0.063
-0.075
-0.465
-0.111
0.530
0.486
0.096
-0.132
-0.161
-0.284
-0.169
0.135
0.205
0.146
-0.104
0.173
0.206
0.045
0.023
-0.255
-0.197
0.029
0.113
0.216
0.323
0.121
-0.157
-0.287
-0.255
-0.093
-0.321
0.099
0.583
0.494
0.123
-0.083
-0.166
-0.070
-0.111
0.028
0.080
0.245
0.128
-0.022
0.058
0.145
0.175
0.077
-0.032
-0.103
0.024
-0.059
-0.206
-0.011
0.145
0.044
0.100
-0.060
-0.000
0.078
-0.045
-0.004
-0.032
0.111
0.010
0.067
-0.080
-0.236
-0.078
0.135
0.387
0.096
-0.127
-0.078
0.031
-0.076
-0.026
0.061
0.137
-0.160
-0.002
0.168
0.087
0.139
0.071
-0.032
-0.064
-0.093
0.049
0.068
-0.084
0.005
-0.165
-0.370
0.269
0.599
0.222
-0.019
-0.262
-0.149
-0.226
0.140
0.107
-0.030
-0.031
0.086
0.099
-0.075
0.010
0.055
-0.046
-0.203
-0.048
0.154
0.067
0.046
-0.076
-0.125
0.034
0.013
0.112
0.050
-0.031
-0.159
0.022
0.017
0.060
0.048
0.067
0.001
-0.061
-0.228
0.153
0.452
0.106
-0.048
-0.270
0.000
0.280
-0.126
-0.230
-0.049
0.129
-0.049
0.028
0.076
0.253
0.119
-0.249
-0.031
0.109
-0.113
-0.038
0.063
0.092
0.125
0.032
0.136
0.143
-0.132
-0.210
-0.144
0.140
0.115
-0.033
-0.216
-0.031
-0.261
-0.286
0.072
0.676
0.468
0.007
-0.169
-0.185
-0.154
-0.066
0.023
0.125
0.089
0.067
-0.010
0.104
0.066
-0.052
-0.093
-0.114
-0.086
-0.073
0.157
0.124
0.203
-0.128
0.088
0.079
-0.120
-0.132
-0.056
0.103
0.304
0.036
-0.024
0.018
0.016
-0.063
0.035
0.051
0.148
-0.024
-0.276
0.079
0.092
0.046
0.103
0.069
0.014
-0.104
0.055
0.057
-0.091
-0.011
0.048
0.071
0.043
0.068
0.214
0.021
-0.013
0.064
0.191
-0.271
-0.484
-0.135
0.531
0.297
-0.002
0.031
-0.075
-0.145
0.072
-0.003
0.159
0.145
-0.357
-0.427
0.424
0.739
0.251
0.017
-0.124
-0.145
0.045
-0.190
-0.335
-0.075
0.042
0.075
0.226
0.292
0.135
-0.134
-0.276
0.052
-0.059
-0.231
0.001
0.024
0.230
0.025
0.201
0.134
0.114
-0.011
0.031
0.058
-0.008
0.025
0.082
-0.089
-0.228
-0.093
0.240
0.103
0.072
0.057
0.033
-0.243
-0.267
0.089
0.260
0.207
0.221
-0.098
-0.173
-0.111
0.039
0.133
0.116
0.032
-0.011
-0.078
0.040
0.009
0.085
0.068
-0.105
-0.011
0.065
0.074
0.065
0.062
-0.064
-0.393
-0.354
0.093
0.487
0.053
-0.225
-0.106
0.645
0.423
0.079
-0.165
-0.215
-0.262
0.078
0.055
0.046
0.334
0.208
0.085
-0.071
-0.025
-0.264
-0.238
0.036
0.052
0.105
0.038
0.080
-0.056
0.065
0.159
-0.142
0.057
0.006
0.214
0.154
0.053
-0.037
-0.068
-0.069
0.035
0.043
-0.052
0.010
0.086
0.098
0.042
0.075
-0.135
0.029
0.072
0.064
-0.037
-0.083
-0.140
0.103
0.064
0.016
0.037
0.027
-0.012
-0.115
0.011
0.041
-0.055
0.105
0.193
0.257
-0.069
-0.341
-0.233
0.085
-0.070
0.380
0.270
-0.034
-0.057
0.054
-0.171
-0.207
0.022
0.170
0.120
0.154
0.170
-0.091
-0.450
-0.393
0.785
0.690
0.078
-0.042
-0.211
-0.537
-0.727
-0.187
0.580
0.594
0.132
-0.181
0.073
-0.092
-0.223
0.216
-0.024
-0.256
-0.180
0.139
0.158
0.312
0.204
-0.065
-0.005
-0.218
-0.043
-0.015
0.127
0.219
0.146
0.058
0.008
0.022
0.245
-0.142
-0.262
-0.099
0.024
0.026
0.218
0.093
0.012
0.010
-0.071
-0.081
-0.051
0.033
0.040
0.048
0.153
-0.005
0.170
-0.079
-0.087
-0.021
0.097
0.057
0.009
0.019
-0.004
0.026
0.045
0.017
0.098
-0.081
0.066
-0.023
0.106
0.008
0.081
0.024
0.000
-0.029
-0.034
0.042
0.027
-0.008
0.022
0.131
0.092
-0.011
0.087
-0.019
-0.013
0.033
-0.261
-0.268
0.107
0.360
0.164
0.246
0.165
-0.144
-0.238
-0.046
-0.227
0.194
0.173
0.126
0.212
0.020
-0.028
-0.245
-0.023
0.293
0.115
0.002
-0.367
-0.207
0.117
0.127
-0.170
-0.126
0.044
0.316
0.388
0.139
-0.065
-0.118
-0.098
-0.011
0.123
0.113
0.117
0.123
-0.001
0.203
0.098
-0.051
0.018
-0.200
-0.320
0.115
0.324
0.003
-0.236
0.124
0.269
-0.129
-0.122
0.126
0.073
0.065
0.026
-0.065
0.042
0.073
0.009
0.037
0.068
-0.027
-0.011
0.021
-0.013
-0.058
-0.239
-0.166
-0.190
0.420
0.762
0.203
0.018
-0.177
-0.438
-0.149
0.132
0.284
0.287
0.060
-0.145
0.012
0.177
-0.022
0.023
-0.094
-0.029
0.083
0.037
-0.092
0.044
-0.001
-0.008
0.171
0.046
0.145
-0.370
-0.384
-0.067
0.404
0.473
0.163
-0.044
-0.203
-0.134
0.010
0.039
-0.042
0.034
0.104
0.021
0.043
0.088
0.115
0.042
-0.055
-0.151
0.025
0.040
-0.007
-0.031
0.011
0.162
0.023
-0.110
0.091
0.440
0.172
-0.514
-0.579
0.051
0.286
0.268
0.392
0.294
-0.149
-0.232
-0.309
0.044
0.178
-0.270
-0.169
0.178
0.664
0.620
0.114
-0.168
-0.285
-0.158
-0.053
0.041
0.066
0.125
0.196
0.100
-0.033
-0.161
-0.059
-0.036
0.037
0.134
-0.018
-0.159
-0.062
-0.008
0.048
0.186
0.007
0.032
0.053
-0.110
-0.085
0.318
0.290
0.041
-0.034
0.156
-0.155
-0.303
-0.428
0.268
0.499
0.254
-0.058
-0.020
-0.192
-0.082
-0.006
-0.017
-0.053
0.012
0.080
0.384
0.088
-0.092
0.033
0.192
0.080
0.195
-0.115
-0.313
0.081
0.060
0.049
-0.090
-0.026
0.095
0.048
0.051
0.006
-0.017
0.156
-0.059
-0.476
-0.347
0.669
0.686
0.333
-0.182
-0.624
-0.350
-0.077
0.204
0.281
0.187
-0.013
-0.091
0.145
-0.054
-0.152
-0.030
0.065
0.129
-0.173
-0.018
-0.041
-0.090
0.168
0.059
0.168
-0.039
-0.046
0.046
0.061
0.077
-0.004
-0.011
-0.078
0.023
0.208
0.175
0.156
0.101
-0.323
-0.581
-0.073
0.442
0.459
-0.108
-0.174
0.078
-0.115
0.052
0.027
0.063
0.023
0.114
0.001
-0.095
-0.042
-0.116
0.021
-0.146
0.320
0.458
0.139
-0.170
-0.165
-0.072
0.014
0.142
0.125
-0.019
0.113
0.085
0.015
-0.105
-0.075
-0.131
-0.198
0.289
0.522
0.244
-0.033
-0.273
-0.390
-0.144
0.087
0.079
0.145
0.206
-0.072
0.206
0.200
0.080
-0.236
-0.233
-0.174
0.251
-0.050
-0.265
0.057
0.004
0.084
0.138
0.116
0.010
0.017
0.034
0.028
0.033
-0.009
-0.095
-0.036
0.275
0.183
0.059
0.003
-0.037
0.043
0.032
-0.024
-0.005
0.066
0.173
0.291
-0.059
-0.674
-0.556
0.470
0.633
0.104
-0.078
-0.052
-0.103
-0.013
-0.076
0.051
0.093
-0.058
0.054
-0.018
0.048
0.101
0.170
0.056
0.028
-0.430
-0.369
-0.001
0.572
0.373
0.180
-0.156
-0.426
-0.290
0.060
0.318
0.112
0.042
0.014
0.088
0.064
-0.023
-0.047
-0.016
0.070
-0.213
-0.060
0.105
0.055
0.002
-0.090
-0.052
0.118
0.171
0.135
-0.064
0.007
0.086
0.129
-0.187
-0.290
-0.221
0.004
0.121
0.174
0.334
0.127
0.027
-0.109
-0.047
-0.004
0.149
-0.002
-0.166
0.024
0.290
0.224
-0.103
0.045
0.095
-0.102
-0.092
-0.147
0.015
0.071
0.020
0.036
0.096
-0.142
0.064
0.035
-0.024
0.030
0.156
-0.014
0.028
-0.075
0.126
0.084
-0.001
-0.133
-0.054
0.153
0.134
0.106
0.115
-0.383
-0.442
-0.057
0.359
0.107
-0.087
0.289
0.473
0.100
-0.033
-0.115
-0.295
-0.296
-0.072
0.320
0.415
0.222
0.044
0.086
-0.063
0.024
-0.031
-0.061
-0.131
0.001
-0.012
0.079
0.098
-0.011
-0.082
-0.065
0.223
-0.044
-0.132
0.085
0.086
-0.095
-0.006
0.214
0.200
-0.102
-0.036
0.040
-0.083
0.054
0.042
0.106
0.052
0.085
-0.074
0.103
0.021
-0.101
-0.118
0.102
0.099
0.094
-0.021
0.008
0.021
0.009
-0.034
-0.055
0.164
0.057
-0.093
0.066
0.127
0.259
0.145
0.017
-0.203
-0.239
-0.223
0.112
0.127
-0.254
-0.335
0.366
0.795
0.570
-0.079
-0.370
-0.266
-0.221
-0.134
0.214
0.185
0.132
0.206
0.099
0.002
0.045
-0.142
-0.121
-0.086
0.053
-0.167
0.029
-0.006
0.205
0.058
-0.223
0.011
0.086
0.236
0.092
-0.012
-0.186
0.031
0.075
0.085
0.148
-0.031
0.081
0.023
-0.093
-0.016
0.082
0.007
0.003
0.120
0.191
0.182
-0.037
-0.289
-0.037
0.185
0.051
-0.106
0.057
0.178
0.089
0.013
-0.091
0.053
-0.017
-0.006
-0.027
0.037
0.078
0.124
-0.059
-0.155
-0.055
-0.005
-0.039
0.079
0.071
-0.125
-0.247
-0.142
0.601
0.300
-0.086
-0.003
-0.007
-0.074
0.083
0.158
-0.442
-0.289
0.230
0.579
0.154
-0.213
-0.067
0.021
0.009
-0.078
-0.080
-0.057
-0.085
0.057
0.095
0.215
0.081
-0.036
-0.003
-0.154
0.002
0.118
0.033
-0.020
0.039
0.008
0.058
0.012
0.097
0.149
-0.242
-0.271
-0.071
-0.007
0.164
0.438
0.186
0.055
-0.052
-0.230
-0.301
-0.033
0.228
0.164
0.176
-0.024
-0.044
-0.079
-0.091
0.117
-0.058
-0.000
0.095
0.077
-0.012
-0.012
0.056
-0.022
0.061
-0.080
-0.054
-0.186
-0.156
0.328
0.538
0.174
0.031
-0.154
-0.199
-0.181
-0.090
0.079
0.242
0.290
-0.206
-0.090
0.167
-0.030
0.052
-0.100
0.041
-0.071
0.280
0.132
-0.663
-0.733
0.155
0.866
0.591
-0.002
-0.133
-0.135
-0.228
-0.040
0.091
0.309
-0.144
0.059
0.257
0.262
-0.097
-0.255
0.004
-0.061
0.116
0.030
0.060
-0.125
-0.046
-0.009
-0.156
0.051
0.130
0.076
0.073
-0.118
-0.165
0.118
0.181
0.099
0.074
-0.044
-0.021
0.061
0.045
-0.159
-0.338
-0.237
0.679
0.561
0.338
-0.115
-0.314
-0.612
-0.079
0.317
0.191
0.164
0.089
-0.012
-0.124
-0.023
0.001
0.036
0.052
-0.099
-0.101
-0.125
0.118
0.121
0.111
-0.047
-0.229
-0.139
0.122
0.163
0.034
-0.292
0.018
0.334
0.235
-0.151
-0.078
0.005
0.061
0.082
0.068
0.058
0.159
0.129
-0.312
0.033
0.223
0.339
0.168
-0.324
-0.386
-0.122
0.204
0.200
0.100
-0.099
0.064
-0.002
0.031
-0.074
-0.069
0.145
-0.001
-0.132
-0.099
0.047
0.113
0.105
-0.592
-0.362
0.324
0.771
0.500
0.012
-0.187
-0.254
-0.173
-0.006
0.120
0.073
0.139
0.045
-0.145
-0.024
0.096
-0.017
-0.034
0.050
-0.006
-0.125
-0.057
-0.023
-0.010
-0.290
0.226
0.343
0.261
0.224
0.002
-0.118
-0.088
-0.008
0.060
0.114
0.168
-0.127
-0.397
-0.322
0.379
0.348
0.044
-0.010
0.010
-0.104
-0.132
-0.069
0.059
0.012
0.096
0.209
0.134
0.032
0.008
0.136
0.026
0.158
-0.112
-0.015
0.016
-0.076
-0.013
0.064
0.174
0.022
-0.486
-0.029
0.327
0.140
0.177
-0.205
-0.324
-0.369
0.586
0.649
0.060
-0.170
-0.294
-0.242
-0.189
0.185
0.415
0.332
0.108
-0.090
0.102
-0.041
-0.078
-0.236
-0.229
0.046
0.125
0.293
0.333
-0.112
-0.187
-0.089
-0.034
-0.006
0.026
0.044
0.114
0.065
-0.062
-0.072
-0.015
0.000
0.009
0.073
0.069
0.041
0.007
0.093
0.070
0.165
0.155
0.083
-0.110
-0.437
-0.078
0.318
0.383
0.065
-0.203
-0.155
0.062
0.072
-0.056
-0.077
-0.094
-0.210
-0.097
0.247
0.315
0.089
-0.104
-0.082
-0.125
0.002
0.086
-0.326
-0.371
0.414
0.844
0.254
-0.077
-0.183
-0.399
-0.242
0.308
0.168
-0.209
0.093
0.248
0.113
0.042
-0.202
-0.058
0.065
0.022
-0.087
-0.053
-0.036
-0.087
0.105
0.092
0.053
0.092
0.080
0.027
0.075
0.120
0.040
-0.115
-0.003
0.164
0.009
0.035
0.044
0.005
-0.016
0.117
-0.024
0.061
-0.063
0.042
0.165
0.026
-0.106
-0.099
0.150
0.228
0.291
0.081
-0.687
-0.563
0.125
0.650
0.265
0.203
-0.096
-0.060
-0.031
-0.251
0.110
0.111
0.067
0.084
0.108
0.157
-0.109
0.084
0.267
-0.247
-0.528
0.126
0.452
0.194
-0.129
0.110
0.200
-0.061
-0.142
-0.111
0.086
0.129
0.116
-0.047
0.152
0.185
0.065
0.051
0.045
-0.063
-0.017
0.007
-0.084
-0.062
-0.051
0.071
0.070
0.110
0.227
-0.055
-0.297
-0.052
0.005
0.063
0.173
0.075
0.118
0.077
-0.015
-0.023
0.029
0.002
-0.012
0.044
-0.020
0.172
0.108
0.038
0.069
-0.090
-0.178
0.075
0.019
0.077
-0.016
0.092
0.161
-0.025
0.026
-0.105
0.063
0.304
-0.297
-0.373
0.180
0.431
0.298
-0.047
-0.072
0.019
-0.012
0.005
0.064
-0.104
-0.167
0.177
0.161
0.173
0.119
-0.097
-0.042
-0.073
-0.265
-0.229
0.272
0.633
0.332
-0.099
-0.278
-0.194
-0.166
0.068
0.232
0.157
0.092
0.077
-0.023
0.116
0.196
-0.359
-0.446
0.044
0.214
0.221
0.037
-0.079
-0.135
-0.059
-0.027
-0.076
-0.037
0.190
0.101
0.111
-0.012
0.104
-0.024
0.152
-0.005
-0.055
0.074
0.063
0.088
0.044
-0.197
-0.256
0.260
0.543
0.203
-0.249
-0.410
-0.193
-0.052
-0.024
0.393
0.205
0.038
-0.026
-0.068
-0.169
0.049
0.108
0.152
0.249
0.238
-0.124
-0.527
-0.321
0.295
0.499
0.098
0.086
-0.355
-0.463
-0.230
0.508
0.505
0.059
-0.148
-0.268
-0.037
-0.079
0.088
0.192
0.240
-0.014
0.019
-0.070
-0.166
-0.013
-0.049
0.018
-0.007
-0.077
-0.013
0.164
0.118
0.126
0.057
0.063
0.076
0.116
-0.209
0.022
0.244
0.180
0.058
0.037
0.055
0.014
-0.093
-0.302
0.209
0.232
0.085
-0.015
-0.061
0.052
-0.146
-0.061
0.133
0.068
0.103
0.050
-0.001
-0.013
0.047
-0.025
-0.094
-0.090
0.131
0.244
0.189
0.086
-0.250
-0.272
-0.114
0.119
0.268
0.151
0.390
-0.150
-0.777
-0.653
0.460
0.917
0.428
-0.076
-0.263
-0.295
-0.120
-0.054
0.133
0.126
0.053
0.015
0.231
-0.049
0.020
-0.055
-0.037
-0.044
-0.129
0.053
0.016
0.025
0.030
-0.056
0.057
0.048
0.169
-0.018
0.061
0.120
0.019
0.045
-0.158
-0.224
-0.163
0.043
0.243
0.372
-0.152
-0.076
0.182
0.034
0.007
0.069
-0.134
0.011
0.042
0.144
-0.066
-0.152
0.134
0.068
0.086
-0.167
0.013
0.112
-0.021
-0.099
0.002
-0.022
0.061
0.055
-0.044
-0.011
0.133
0.138
0.051
-0.026
0.081
0.017
-0.141
-0.364
-0.360
0.519
0.674
0.416
-0.161
-0.401
-0.269
0.003
0.125
-0.300
-0.281
0.674
0.631
0.120
-0.187
-0.059
-0.247
-0.023
-0.001
0.096
-0.020
-0.092
0.078
0.228
-0.022
-0.175
0.104
0.034
-0.024
0.065
0.153
0.013
-0.014
-0.146
-0.037
0.105
0.094
-0.088
-0.165
0.034
0.198
0.069
0.008
-0.143
-0.075
0.188
-0.025
0.155
-0.083
-0.307
-0.079
0.034
0.293
0.073
0.003
-0.081
0.050
-0.023
0.153
0.118
0.001
-0.081
0.076
0.048
-0.027
-0.021
0.115
0.023
-0.165
-0.069
-0.022
0.109
-0.009
0.053
-0.099
-0.488
-0.256
0.170
0.675
0.506
-0.052
-0.153
-0.257
-0.127
-0.017
-0.012
0.220
0.172
0.189
0.214
-0.153
-0.438
-0.211
-0.003
0.273
0.152
0.285
0.162
-0.276
-0.277
-0.161
-0.156
0.006
0.146
0.276
0.313
0.025
-0.074
0.024
-0.048
0.009
0.013
-0.190
0.009
-0.032
0.140
0.219
0.124
-0.205
-0.080
0.071
0.208
-0.154
-0.123
0.334
0.008
-0.114
-0.088
0.031
0.134
0.000
0.129
0.037
0.040
0.104
-0.048
0.056
0.043
0.021
0.091
0.030
0.097
0.020
-0.027
0.089
-0.068
-0.034
0.036
-0.215
-0.204
0.555
0.501
0.132
0.008
-0.228
-0.136
-0.211
-0.179
-0.017
0.090
0.322
0.280
-0.046
0.096
-0.058
-0.121
-0.329
-0.293
0.168
0.262
0.234
0.135
0.079
-0.201
-0.445
-0.204
0.404
0.523
0.031
0.042
0.069
-0.156
-0.028
0.073
0.050
0.014
0.090
0.171
-0.154
-0.061
0.073
0.137
0.081
-0.023
-0.012
0.028
0.043
-0.077
-0.140
0.191
-0.013
0.040
0.039
0.087
0.014
0.066
0.067
-0.112
0.057
0.209
0.050
0.003
-0.033
0.082
0.042
-0.107
-0.024
-0.005
0.085
0.086
-0.016
0.052
-0.076
-0.347
-0.179
0.416
0.597
0.191
-0.212
-0.240
-0.007
0.111
0.114
-0.261
-0.292
-0.095
0.213
0.239
0.371
0.103
-0.201
-0.180
-0.225
-0.007
0.061
0.010
0.087
0.019
0.116
0.077
0.234
0.201
0.023
-0.169
0.059
0.112
0.071
0.052
-0.071
0.044
0.030
-0.038
0.084
-0.025
0.121
-0.059
0.078
0.074
0.001
-0.119
0.137
0.314
-0.460
-0.407
0.068
0.449
0.081
-0.019
-0.082
0.070
0.125
0.009
-0.068
0.157
-0.124
-0.224
0.010
0.191
0.394
0.137
-0.229
-0.129
0.176
0.203
0.054
-0.231
-0.229
-0.021
0.117
0.087
-0.169
-0.175
0.390
0.452
0.005
0.044
-0.144
-0.297
-0.016
0.046
0.063
0.246
0.046
-0.042
0.057
-0.022
0.098
-0.116
-0.098
0.037
0.096
-0.015
0.037
-0.065
-0.027
0.139
-0.146
0.176
0.138
0.080
-0.045
-0.131
0.036
0.066
-0.060
0.014
0.005
0.045
-0.011
0.161
-0.005
0.086
0.022
0.012
0.030
-0.042
-0.117
0.072
0.126
0.044
-0.012
0.043
0.060
-0.007
-0.021
0.065
0.048
-0.063
-0.096
-0.085
0.026
0.036
0.141
0.165
0.034
-0.005
0.020
-0.111
-0.083
0.048
0.271
0.138
-0.033
-0.073
0.079
0.207
-0.302
-0.096
-0.153
0.005
0.045
0.019
0.299
0.009
-0.129
-0.068
0.511
0.516
-0.403
-0.566
-0.276
0.389
0.342
0.332
0.199
-0.197
-0.331
0.228
0.335
0.088
-0.221
-0.167
0.026
0.013
0.108
-0.029
-0.014
0.107
-0.032
0.086
-0.087
-0.062
0.002
0.083
0.034
-0.009
-0.014
0.065
-0.025
0.067
0.010
0.118
0.108
0.020
-0.006
-0.049
0.151
0.191
0.049
-0.281
-0.094
0.148
0.227
0.204
0.084
-0.004
-0.156
-0.134
0.038
0.174
-0.052
0.010
0.065
0.178
0.054
-0.014
-0.318
-0.018
0.186
-0.009
-0.161
-0.076
0.112
0.040
-0.002
0.089
-0.054
0.051
0.022
0.155
-0.099
-0.071
-0.216
-0.153
0.072
0.612
0.443
0.127
-0.060
-0.382
-0.263
-0.136
0.265
0.090
-0.040
0.098
0.185
-0.077
0.018
-0.083
-0.068
-0.115
0.020
-0.023
0.103
0.047
0.074
-0.186
-0.197
0.009
0.182
0.086
0.093
-0.001
0.071
0.271
0.100
-0.513
-0.598
0.061
0.551
0.292
-0.001
-0.192
-0.070
0.099
0.108
0.038
0.225
-0.044
-0.376
-0.399
-0.060
-0.004
0.089
0.343
0.483
0.105
-0.096
-0.327
-0.134
-0.019
-0.039
0.002
0.042
0.061
0.121
0.064
0.104
-0.069
-0.001
0.020
-0.196
-0.030
0.247
-0.013
-0.026
-0.039
-0.054
-0.164
-0.256
-0.024
0.422
0.635
0.321
-0.084
-0.200
-0.281
-0.080
0.037
0.139
0.151
0.130
-0.040
0.172
-0.017
0.008
-0.123
-0.112
0.034
0.091
-0.130
0.006
-0.004
0.054
-0.023
0.192
0.298
-0.066
-0.005
-0.038
-0.075
-0.039
-0.036
0.135
0.135
0.111
-0.009
-0.054
-0.018
0.182
-0.037
-0.101
-0.164
0.197
0.307
0.267
0.140
-0.524
-0.567
-0.031
0.584
0.529
0.185
-0.092
-0.185
-0.177
0.033
0.075
0.003
0.108
0.065
0.019
0.018
0.055
0.051
0.023
-0.092
-0.049
0.091
-0.060
0.062
0.012
-0.162
-0.313
-0.160
0.617
0.508
0.282
-0.193
-0.263
-0.285
-0.047
0.110
0.045
0.064
0.166
0.011
0.009
0.006
-0.042
-0.015
-0.113
-0.047
-0.019
0.022
0.092
0.062
-0.026
-0.032
0.096
-0.046
-0.049
0.015
0.037
0.134
0.056
-0.015
-0.072
-0.257
0.085
0.413
0.142
-0.127
-0.541
-0.401
0.138
0.226
0.393
0.252
0.139
0.028
-0.164
-0.203
0.009
0.170
0.073
0.107
0.091
0.049
0.007
-0.074
0.055
-0.107
-0.004
0.203
-0.071
-0.248
0.044
0.327
0.107
-0.422
-0.529
0.036
0.589
0.331
0.191
-0.027
-0.227
-0.046
-0.041
0.102
0.061
-0.292
-0.289
0.098
0.717
0.518
0.046
-0.177
-0.328
-0.191
-0.034
0.108
0.017
0.162
0.037
0.106
0.032
0.102
0.028
-0.019
-0.119
-0.426
-0.285
0.353
0.290
0.377
0.009
0.072
0.019
-0.051
-0.289
0.047
0.149
0.019
0.197
-0.015
-0.070
0.016
-0.025
0.095
-0.050
-0.006
0.111
-0.140
-0.061
0.188
0.155
0.061
0.134
0.052
0.011
0.024
0.145
0.257
0.094
0.043
0.023
0.077
0.084
0.198
-0.044
0.010
0.039
-0.039
-0.024
0.031
0.090
0.097
0.132
-0.488
-0.755
0.017
0.718
0.363
0.162
0.025
-0.106
-0.295
-0.696
-0.125
0.803
0.766
0.330
0.072
-0.249
-0.323
-0.219
-0.100
-0.158
0.488
0.554
0.109
-0.112
-0.128
-0.134
-0.030
-0.005
-0.072
0.010
0.007
0.219
0.024
-0.122
0.018
0.251
-0.006
-0.094
-0.061
0.061
0.027
0.067
0.046
0.009
0.056
-0.075
0.077
0.049
0.022
0.221
-0.115
-0.002
-0.075
-0.071
0.102
0.090
0.128
-0.027
-0.054
-0.018
-0.119
0.134
0.069
-0.013
0.073
0.016
-0.175
-0.024
-0.024
-0.175
0.093
0.268
0.277
-0.038
-0.643
-0.792
0.010
0.614
0.520
-0.021
-0.007
-0.003
-0.018
-0.162
-0.098
-0.277
-0.130
0.593
0.635
0.223
-0.006
-0.380
-0.412
-0.072
0.258
0.272
-0.194
-0.314
0.102
0.196
0.297
-0.062
-0.299
-0.195
0.109
0.237
0.065
0.084
-0.037
0.065
0.068
-0.104
0.018
0.044
0.087
0.048
-0.093
0.120
0.132
-0.028
-0.111
-0.072
0.084
0.142
-0.013
0.050
-0.047
-0.178
0.129
0.435
0.240
-0.244
-0.466
-0.208
-0.219
0.147
0.507
0.420
0.041
-0.066
-0.037
-0.143
-0.144
-0.123
0.040
0.017
0.183
0.192
-0.088
0.036
0.125
-0.017
-0.418
-0.571
0.010
0.517
0.379
-0.027
0.003
-0.328
-0.423
0.031
0.744
0.530
0.074
-0.210
-0.267
-0.172
0.048
0.090
0.135
0.026
0.111
-0.152
-0.128
0.074
-0.083
0.033
0.072
-0.094
-0.123
0.064
-0.222
-0.058
0.263
0.200
0.067
-0.017
0.057
0.152
-0.009
-0.203
-0.146
-0.018
0.164
0.169
0.172
-0.021
0.003
-0.124
0.061
-0.025
-0.109
-0.156
0.036
0.061
0.357
0.214
-0.039
-0.122
-0.152
0.084
-0.018
0.019
-0.035
-0.006
0.099
0.164
0.069
-0.110
-0.027
0.087
-0.026
-0.119
-0.077
0.193
-0.053
-0.062
-0.045
-0.076
0.124
0.238
0.141
0.067
0.150
-0.277
-0.541
-0.537
0.167
1.022
0.606
0.219
-0.110
-0.331
-0.352
-0.066
-0.032
0.120
0.494
0.488
-0.082
-0.396
-0.307
-0.099
-0.091
0.293
0.306
0.012
-0.138
-0.095
-0.132
-0.134
-0.054
-0.104
0.229
0.313
0.083
0.093
0.009
-0.060
-0.051
-0.056
-0.059
0.133
-0.059
-0.093
0.002
0.006
-0.074
0.027
0.087
0.191
0.095
0.031
-0.388
-0.067
0.101
0.223
0.199
0.242
-0.251
-0.228
0.011
0.240
0.165
0.010
-0.020
-0.034
-0.022
0.110
-0.167
-0.195
0.087
0.221
0.023
-0.010
-0.211
0.184
0.428
0.066
-0.335
-0.212
0.053
0.226
0.055
0.098
0.118
0.040
-0.003
0.000
0.071
0.026
-0.061
-0.129
-0.114
0.015
0.155
-0.023
0.085
0.015
-0.124
-0.058
0.032
-0.051
-0.008
0.063
0.042
0.047
0.072
0.067
0.038
0.016
0.088
0.018
-0.143
0.023
0.147
0.101
-0.034
-0.054
-0.032
0.010
0.169
0.076
-0.073
0.086
0.108
-0.000
-0.017
0.105
0.149
0.014
-0.352
-0.052
0.136
-0.089
-0.168
0.350
0.306
-0.058
-0.184
-0.219
0.002
-0.170
0.273
0.377
0.332
0.151
-0.032
-0.280
-0.263
0.136
0.267
-0.092
-0.421
-0.173
0.299
0.432
-0.068
-0.216
-0.126
-0.052
-0.009
-0.013
0.004
0.053
0.049
0.011
0.197
0.184
0.053
0.057
0.026
-0.034
-0.004
0.105
-0.061
-0.077
0.054
0.067
-0.006
0.017
0.034
0.214
0.017
-0.134
0.013
0.053
-0.055
0.138
0.071
0.059
-0.020
0.089
-0.091
0.073
0.092
0.105
0.031
-0.195
-0.173
0.064
0.168
0.158
0.013
0.115
0.069
-0.191
-0.103
0.189
0.220
0.095
-0.145
-0.346
-0.068
0.454
0.489
0.134
-0.038
-0.206
-0.271
-0.029
0.001
0.123
0.157
0.223
0.258
-0.192
-0.228
0.075
0.173
-0.004
-0.066
0.133
-0.194
-0.107
0.075
0.213
0.140
0.037
0.007
0.046
0.072
0.095
0.030
0.216
-0.026
-0.539
-0.251
0.131
0.411
0.226
0.291
-0.101
-0.175
-0.090
0.015
0.163
-0.222
-0.411
0.039
0.139
0.302
0.442
0.200
-0.274
-0.024
0.053
-0.200
-0.168
0.110
0.203
0.056
0.142
-0.014
0.022
-0.125
-0.316
-0.036
0.487
0.552
0.099
-0.208
-0.494
-0.264
-0.006
0.222
0.260
-0.022
0.159
-0.037
-0.044
-0.001
-0.079
0.039
-0.012
-0.047
0.025
-0.077
-0.118
0.134
0.042
0.117
0.060
-0.093
0.137
0.075
-0.064
-0.085
0.020
0.139
-0.082
-0.031
0.042
-0.003
-0.040
0.197
0.137
-0.089
0.067
0.063
-0.130
-0.309
0.005
0.379
0.409
0.016
-0.098
-0.056
-0.143
-0.216
0.194
0.271
0.170
0.065
-0.078
0.073
0.075
-0.111
-0.263
0.053
0.240
-0.057
-0.172
-0.424
0.370
0.533
0.026
-0.036
-0.265
-0.216
-0.031
0.106
0.114
0.157
0.212
-0.074
-0.032
-0.020
0.001
-0.030
0.125
0.056
-0.088
-0.162
-0.009
0.105
0.069
-0.010
0.114
0.112
-0.019
0.101
-0.018
0.004
-0.073
-0.124
0.030
0.212
0.070
-0.015
0.123
-0.069
-0.038
0.091
0.257
-0.137
-0.289
-0.117
-0.024
0.053
0.388
0.312
-0.034
-0.556
-0.284
0.388
0.166
0.179
0.040
-0.358
-0.078
0.117
0.237
0.011
0.126
-0.069
-0.019
-0.038
-0.305
-0.303
0.349
0.465
0.405
0.047
-0.259
-0.339
-0.174
0.079
0.133
0.200
0.056
0.079
0.040
0.058
-0.143
0.007
-0.095
-0.136
0.022
0.131
0.055
-0.030
-0.120
0.060
0.074
0.055
0.073
0.081
0.108
0.141
-0.131
-0.199
-0.125
0.083
0.138
0.224
0.063
0.021
0.017
-0.072
-0.123
0.109
0.035
0.025
-0.010
0.152
0.050
-0.066
-0.076
0.131
0.024
0.057
0.062
0.043
0.054
-0.003
0.036
0.061
0.047
-0.005
-0.067
-0.164
0.107
0.077
0.056
0.052
-0.082
0.049
-0.119
0.027
0.110
-0.035
-0.040
-0.311
0.103
0.192
0.463
0.345
-0.223
-0.232
-0.240
-0.033
0.127
0.064
0.288
-0.130
-0.035
0.102
0.190
-0.049
0.092
-0.041
0.030
-0.122
0.027
-0.005
-0.152
0.016
0.136
0.207
0.019
0.037
-0.033
0.276
0.234
-0.116
-0.387
-0.321
-0.110
0.061
0.151
0.328
0.170
0.023
-0.038
0.064
-0.179
-0.042
-0.119
-0.067
0.231
0.229
0.095
0.098
0.105
0.070
-0.041
-0.110
-0.083
0.133
-0.075
-0.048
-0.024
-0.038
0.219
0.036
0.099
-0.053
-0.025
0.034
-0.031
0.040
-0.010
0.111
0.138
-0.017
-0.280
-0.537
-0.068
0.678
0.625
0.196
-0.144
-0.134
-0.265
-0.047
-0.200
-0.235
0.356
0.543
0.096
0.018
0.086
-0.134
-0.130
-0.170
-0.085
0.053
-0.033
-0.002
0.068
0.142
0.011
-0.000
0.025
0.003
0.051
0.089
-0.225
-0.253
0.116
0.152
0.120
0.036
0.032
-0.021
0.007
-0.049
-0.034
0.009
0.098
0.131
0.069
0.084
-0.125
-0.355
0.163
0.102
0.133
0.015
-0.016
-0.107
-0.092
0.057
0.124
0.029
0.052
0.060
-0.182
-0.032
0.123
0.134
-0.011
-0.144
0.061
0.198
-0.070
-0.266
-0.355
-0.175
0.599
0.502
0.186
-0.161
-0.149
-0.188
-0.255
0.082
0.233
0.126
0.060
0.000
0.117
-0.125
-0.048
-0.099
0.017
-0.084
-0.003
0.085
0.014
0.003
0.176
0.088
-0.002
0.233
0.181
0.081
0.046
-0.075
-0.434
-0.553
-0.096
0.903
0.517
0.079
-0.143
-0.216
-0.233
-0.207
-0.009
0.104
0.217
0.039
0.066
0.236
0.066
0.135
-0.216
-0.174
0.050
0.171
-0.014
-0.065
0.116
0.060
0.028
0.030
-0.015
-0.132
0.043
0.114
0.115
0.134
0.128
0.143
-0.253
-0.195
-0.244
0.153
-0.054
-0.142
0.341
0.589
0.175
-0.015
-0.218
-0.300
-0.163
0.067
0.127
0.154
0.289
0.095
0.010
-0.161
-0.110
-0.042
0.049
0.028
-0.019
0.015
-0.126
0.170
0.098
-0.114
0.039
0.145
0.011
-0.015
-0.007
0.087
0.057
-0.008
-0.067
0.068
-0.069
0.088
0.023
0.014
0.078
-0.028
-0.016
0.271
0.031
0.068
0.194
-0.316
-0.353
-0.077
0.439
0.273
0.057
-0.124
0.035
-0.051
0.051
-0.002
-0.024
-0.031
0.045
0.119
0.152
0.036
0.052
0.021
-0.048
0.076
0.116
0.029
-0.001
-0.167
-0.076
0.124
0.089
0.128
0.034
-0.146
-0.493
-0.121
0.636
0.545
-0.030
-0.115
-0.186
-0.219
-0.082
0.030
0.290
0.100
0.060
0.103
0.122
-0.080
-0.193
-0.082
0.011
-0.002
-0.075
-0.044
0.256
0.337
0.061
-0.260
-0.294
0.119
0.013
0.024
0.481
0.298
-0.105
-0.273
-0.011
0.129
-0.002
0.108
-0.087
0.029
0.059
0.001
0.051
0.026
0.171
-0.047
0.071
-0.001
-0.112
0.076
0.063
-0.063
-0.025
-0.016
0.091
-0.071
-0.015
0.017
0.146
0.029
0.189
0.087
-0.011
-0.161
-0.363
-0.268
0.072
0.472
0.413
0.053
-0.306
-0.507
0.213
0.552
0.567
-0.091
-0.452
-0.368
0.027
0.360
0.191
0.109
0.107
0.190
-0.159
-0.219
-0.087
-0.189
-0.079
0.327
0.226
-0.079
-0.142
-0.101
0.076
0.113
-0.003
0.052
0.134
0.088
-0.204
-0.113
0.153
0.072
0.063
0.073
-0.012
-0.140
0.048
0.076
0.074
0.048
0.068
0.098
0.023
-0.026
0.027
-0.169
0.053
0.080
0.062
0.010
0.088
-0.016
-0.044
0.006
0.026
0.016
-0.031
-0.036
0.161
-0.034
0.052
-0.043
-0.071
0.083
0.111
0.110
-0.019
-0.077
0.029
0.136
0.092
0.023
0.044
0.023
0.140
-0.221
-0.462
-0.079
0.348
0.907
0.414
0.022
-0.539
-0.580
-0.317
0.020
0.439
0.628
0.399
-0.053
-0.178
-0.156
-0.195
-0.018
0.022
0.016
-0.090
0.017
0.086
0.086
0.099
0.044
0.042
-0.103
-0.241
0.117
-0.069
-0.100
0.170
0.246
0.090
0.020
-0.189
-0.064
-0.084
0.045
0.176
0.054
0.049
-0.015
0.019
0.078
0.069
-0.089
0.119
0.140
0.063
-0.050
-0.107
0.024
0.052
0.031
-0.084
0.123
-0.015
-0.169
-0.026
0.225
0.131
-0.012
-0.224
0.073
0.039
-0.107
-0.064
-0.143
0.000
0.201
0.035
0.068
0.059
0.036
-0.096
-0.333
-0.223
-0.205
0.190
0.362
0.461
0.147
-0.093
-0.299
-0.269
-0.077
0.011
0.159
0.080
0.182
0.113
0.159
0.164
-0.282
-0.526
-0.205
0.358
0.246
-0.183
0.050
0.083
-0.127
0.065
0.027
0.064
-0.094
0.088
0.040
0.250
0.025
0.011
0.013
0.071
0.135
0.096
-0.024
0.008
0.017
0.100
-0.202
-0.091
0.102
0.105
0.004
0.078
0.056
-0.030
-0.034
-0.051
-0.009
0.114
0.094
-0.003
0.115
0.114
-0.009
-0.122
-0.244
-0.115
-0.082
0.021
0.157
0.362
0.250
0.177
0.055
-0.198
-0.188
-0.062
0.116
0.002
0.220
0.218
0.060
0.059
-0.049
0.030
-0.305
-0.348
0.094
0.691
0.412
-0.138
-0.047
-0.174
-0.223
-0.009
0.096
0.263
0.299
0.090
-0.180
-0.201
0.160
0.113
0.096
-0.009
-0.123
-0.082
0.079
0.002
-0.006
-0.059
0.106
0.116
0.022
-0.044
0.168
0.256
0.090
-0.060
-0.515
-0.287
0.221
0.505
0.068
0.045
-0.051
-0.016
-0.141
-0.073
0.029
0.256
0.140
0.033
-0.052
0.039
0.083
0.081
-0.099
-0.176
0.060
0.291
0.114
0.110
0.066
-0.304
-0.338
-0.068
0.252
0.340
0.186
-0.011
-0.048
-0.060
-0.041
-0.008
0.032
0.041
0.031
0.064
0.027
0.068
0.075
0.086
-0.089
-0.137
-0.024
0.093
0.016
0.153
0.112
-0.066
-0.092
-0.312
-0.190
0.332
0.520
0.137
0.095
-0.156
-0.172
-0.117
0.102
0.076
0.159
0.163
-0.007
-0.084
-0.001
-0.134
-0.010
-0.008
0.109
0.218
-0.099
-0.051
-0.123
-0.040
0.086
0.004
0.125
0.020
0.182
0.106
-0.050
0.052
0.319
0.329
-0.113
-0.937
-0.516
0.061
0.505
0.431
0.442
0.158
-0.047
-0.171
-0.093
-0.055
-0.136
0.044
0.019
0.123
0.246
0.109
0.043
-0.024
0.005
-0.088
0.023
-0.117
0.028
0.039
-0.002
0.001
-0.092
0.103
0.199
-0.062
-0.128
0.076
0.029
0.328
0.171
0.073
-0.074
-0.010
-0.086
0.053
-0.017
0.099
0.164
-0.183
-0.247
0.086
0.728
0.363
0.073
-0.416
-0.330
-0.031
0.135
0.071
0.048
0.173
0.092
-0.002
0.016
0.052
0.027
0.065
-0.092
-0.205
-0.042
0.070
0.154
0.083
-0.157
0.026
0.014
0.167
-0.070
-0.047
0.324
0.361
-0.023
-0.096
-0.034
-0.082
-0.040
0.136
0.109
0.215
-0.042
-0.321
-0.368
0.132
0.420
0.118
0.063
-0.019
0.001
-0.035
-0.127
0.063
0.102
-0.034
0.042
0.139
0.257
0.012
-0.030
-0.015
0.009
0.025
-0.009
-0.088
-0.009
-0.012
-0.261
-0.154
0.236
0.198
0.316
0.057
-0.074
-0.270
-0.035
0.056
0.093
-0.542
-0.203
0.815
0.727
0.097
-0.153
-0.433
-0.360
-0.218
0.126
0.258
0.322
0.230
-0.107
-0.428
-0.219
-0.098
0.084
0.219
0.359
-0.013
-0.223
-0.052
-0.014
-0.029
0.058
0.031
0.229
0.076
-0.012
0.197
0.116
0.166
-0.055
0.023
-0.027
-0.007
0.055
0.173
-0.027
-0.091
0.005
0.062
-0.002
0.007
0.114
0.068
0.060
0.030
0.119
-0.080
0.017
0.044
0.183
0.094
-0.023
0.039
0.037
-0.195
-0.147
0.218
0.028
0.050
0.095
0.112
-0.053
-0.111
-0.095
0.094
0.051
0.105
0.191
-0.002
0.024
-0.112
-0.458
-0.032
0.528
0.401
-0.246
-0.305
-0.015
0.502
0.324
-0.012
-0.143
-0.174
0.024
-0.130
-0.038
0.246
0.600
0.147
0.013
-0.070
-0.119
-0.100
-0.054
-0.169
-0.152
-0.075
0.212
0.105
0.073
-0.094
-0.017
-0.097
0.096
-0.004
-0.159
0.058
0.314
0.151
0.072
0.026
-0.031
-0.041
0.030
-0.171
0.105
0.097
-0.070
-0.040
0.058
0.106
0.006
0.123
-0.044
-0.007
-0.059
-0.154
0.043
0.232
-0.061
0.148
0.100
-0.037
0.067
-0.166
-0.087
0.107
0.076
-0.011
0.022
-0.092
0.010
0.093
-0.025
0.132
0.029
-0.084
-0.023
0.057
0.212
0.258
-0.087
-0.372
-0.139
0.012
-0.070
0.180
0.423
0.207
0.041
-0.072
-0.118
-0.196
-0.379
-0.317
0.394
0.790
0.495
0.208
-0.098
-0.543
-0.531
-0.283
0.537
0.433
0.086
0.057
-0.073
-0.265
-0.123
-0.060
0.079
0.038
-0.031
-0.016
-0.005
0.176
-0.018
0.125
-0.140
-0.002
0.118
0.245
-0.036
0.155
-0.028
-0.073
-0.259
0.034
0.138
0.100
0.080
-0.099
0.061
-0.039
-0.031
-0.074
0.038
0.012
0.123
-0.133
-0.030
-0.002
0.159
0.048
-0.028
-0.019
0.011
-0.043
-0.101
0.044
0.146
0.158
-0.009
-0.068
0.003
0.021
0.007
0.070
0.167
-0.050
0.053
0.006
-0.027
0.138
0.115
-0.051
-0.128
-0.168
0.049
0.130
-0.333
-0.380
0.517
0.754
0.284
-0.364
-0.316
-0.068
0.051
-0.068
0.192
0.039
-0.025
0.044
0.112
0.056
-0.111
0.001
-0.196
-0.209
-0.062
0.080
0.063
-0.016
-0.088
0.084
0.135
0.138
-0.016
0.038
0.069
0.146
0.170
0.046
-0.414
-0.460
0.037
0.545
0.304
-0.172
-0.203
0.151
0.194
-0.060
-0.049
0.079
-0.004
-0.185
-0.164
-0.055
0.060
-0.032
0.138
0.204
0.007
-0.003
-0.093
-0.194
-0.044
-0.010
0.056
-0.050
0.143
0.113
0.112
0.139
0.034
-0.035
0.126
0.017
0.046
-0.016
-0.024
-0.004
-0.227
-0.359
-0.153
0.485
0.656
0.185
-0.168
-0.219
-0.295
-0.099
0.057
0.194
0.225
-0.030
0.006
0.110
0.063
-0.205
-0.335
-0.080
0.042
0.071
0.061
-0.065
-0.036
-0.104
0.143
0.113
0.072
0.113
0.016
-0.025
0.143
0.095
0.079
0.066
0.041
0.127
-0.002
-0.039
0.091
-0.114
-0.173
0.255
0.048
-0.027
0.058
0.072
0.088
0.085
-0.097
0.042
-0.085
-0.021
-0.137
0.242
0.142
0.140
0.006
0.043
-0.142
0.026
0.005
0.030
-0.005
0.033
-0.181
0.024
0.124
0.237
-0.109
-0.447
-0.375
0.128
0.332
0.296
0.067
0.041
-0.003
-0.081
-0.192
-0.327
-0.153
0.415
0.666
0.342
-0.087
-0.244
-0.369
-0.028
0.087
0.141
0.016
0.066
0.022
0.154
0.100
0.011
-0.069
-0.209
0.061
0.028
0.130
-0.008
0.066
0.187
0.126
0.131
-0.105
0.205
0.159
-0.027
-0.122
0.079
0.003
0.046
0.035
0.001
-0.072
0.011
-0.056
-0.182
0.169
0.200
-0.053
0.159
0.188
0.026
-0.192
-0.272
-0.204
0.086
0.337
0.434
0.162
-0.153
-0.077
0.014
-0.000
-0.059
-0.045
0.100
0.139
0.117
-0.028
0.070
0.146
-0.031
0.048
-0.093
0.010
0.080
0.037
0.004
0.067
0.109
-0.029
0.012
0.054
0.126
0.185
-0.049
-0.047
0.147
-0.278
-0.365
-0.099
0.420
0.463
-0.004
-0.396
-0.301
0.419
0.613
0.162
-0.256
-0.143
-0.143
-0.073
0.087
0.192
0.044
0.027
0.090
-0.090
-0.128
-0.088
0.092
0.045
-0.065
-0.061
-0.192
0.056
0.147
0.041
-0.034
0.048
0.202
0.068
-0.047
0.005
0.083
-0.102
-0.176
-0.238
0.189
0.353
0.126
0.034
-0.100
-0.043
0.019
-0.039
0.094
-0.036
0.109
0.030
0.038
0.010
0.124
0.071
-0.029
-0.034
-0.070
-0.040
0.104
-0.024
0.002
-0.042
0.141
0.122
0.033
-0.061
0.016
0.097
0.114
-0.023
0.058
-0.035
-0.058
0.045
0.054
-0.015
-0.061
0.004
-0.131
-0.270
-0.195
0.525
0.571
0.181
-0.230
-0.132
-0.106
-0.112
0.064
-0.063
0.231
0.165
-0.031
-0.155
-0.047
0.157
0.248
-0.013
-0.402
-0.703
0.206
0.575
0.354
-0.160
-0.372
-0.294
-0.158
0.155
0.524
0.331
0.078
-0.004
-0.099
-0.220
-0.205
0.117
0.291
0.122
0.105
-0.066
0.056
0.075
-0.030
0.041
-0.102
-0.029
-0.008
-0.110
-0.076
0.046
0.100
0.021
0.022
0.058
-0.056
-0.076
-0.017
0.125
0.074
-0.008
0.021
-0.025
0.114
-0.064
-0.037
-0.057
0.199
0.095
0.069
-0.029
-0.050
-0.050
-0.026
0.166
-0.090
0.051
0.154
0.097
0.030
-0.047
-0.078
0.012
0.088
0.119
-0.318
-0.429
0.104
0.570
0.413
0.154
-0.112
-0.183
-0.194
-0.012
0.118
0.140
0.099
0.134
0.084
0.018
0.172
-0.099
-0.247
-0.052
0.084
0.121
0.133
0.199
0.002
0.008
0.042
-0.399
-0.304
0.026
0.405
0.373
0.177
-0.091
-0.114
-0.155
-0.066
0.194
0.092
-0.035
-0.022
-0.065
0.266
0.015
-0.019
0.101
0.091
-0.051
-0.082
0.001
0.078
-0.051
0.074
0.033
-0.037
0.007
-0.023
-0.005
-0.086
0.041
0.049
-0.012
0.121
-0.058
0.096
0.117
-0.139
-0.019
0.176
0.052
0.035
0.046
0.105
-0.029
-0.032
0.126
0.029
0.008
-0.017
0.012
-0.107
0.024
0.002
-0.276
-0.190
0.341
0.676
0.258
-0.041
-0.279
-0.340
0.000
0.106
0.200
0.288
0.153
-0.142
-0.162
-0.266
-0.193
-0.188
0.312
0.365
0.121
-0.230
-0.249
0.088
0.037
-0.006
0.165
0.064
-0.165
0.134
0.178
0.099
0.114
0.010
0.038
0.151
-0.001
-0.124
-0.310
0.066
0.164
0.160
-0.030
0.009
-0.046
0.139
-0.038
-0.039
0.010
0.164
-0.002
0.011
0.086
0.164
0.017
-0.335
-0.418
-0.016
0.529
0.208
0.085
-0.119
-0.029
-0.358
-0.096
0.242
0.250
0.066
0.051
0.105
-0.018
-0.114
0.087
0.106
-0.068
-0.104
0.146
0.041
-0.036
0.002
-0.026
-0.132
-0.056
0.009
-0.258
-0.161
0.229
0.524
0.397
-0.065
-0.063
-0.355
-0.112
-0.187
0.233
0.410
0.156
0.016
-0.084
0.089
-0.097
-0.246
-0.122
0.113
0.099
-0.075
-0.027
-0.032
-0.072
0.006
0.156
0.121
0.009
0.063
0.142
0.004
-0.010
0.032
0.143
0.089
-0.150
0.089
0.050
-0.050
0.030
0.059
-0.022
-0.010
-0.004
0.096
-0.045
0.050
0.111
-0.015
0.126
-0.039
-0.207
0.081
0.037
0.260
0.072
-0.264
-0.387
0.201
0.716
0.038
-0.312
-0.085
-0.037
0.122
0.154
0.007
0.044
0.112
-0.052
-0.199
-0.289
-0.304
-0.344
0.345
0.954
0.505
-0.036
-0.390
-0.465
-0.358
-0.139
0.188
0.313
0.403
0.333
0.026
-0.278
-0.087
0.128
0.018
-0.072
0.001
-0.016
0.066
-0.142
0.122
0.055
0.023
-0.060
0.006
0.002
-0.042
0.025
0.160
0.053
-0.060
0.048
-0.029
-0.020
-0.088
-0.045
0.123
0.016
0.078
-0.049
0.016
0.066
0.059
0.039
-0.071
-0.042
-0.054
0.057
0.138
0.140
0.007
0.034
-0.017
-0.051
-0.036
-0.030
0.117
0.113
0.124
0.071
-0.082
-0.024
-0.015
0.080
-0.140
-0.045
0.281
0.226
0.131
0.030
-0.255
-0.121
-0.101
-0.037
0.219
0.765
0.065
-0.642
-0.073
0.190
0.103
-0.029
0.139
0.024
0.099
-0.193
0.016
0.291
-0.037
-0.023
0.080
0.023
-0.132
-0.065
-0.014
0.053
-0.098
0.063
0.049
0.054
0.028
0.098
0.067
0.034
-0.060
-0.117
0.109
-0.105
0.058
0.240
0.113
-0.013
-0.000
0.036
-0.047
0.036
0.069
0.108
-0.060
-0.138
-0.032
0.149
0.273
0.121
-0.117
-0.366
-0.174
-0.103
0.206
0.504
0.193
0.009
-0.197
-0.160
-0.131
0.099
0.113
0.002
0.108
0.100
0.032
-0.095
-0.054
0.108
0.058
0.010
0.027
-0.020
-0.075
-0.093
-0.329
-0.036
0.060
-0.022
-0.097
0.357
0.578
0.315
-0.238
-0.383
-0.121
-0.040
0.157
0.109
0.125
0.090
0.192
0.185
0.360
-0.438
-0.730
-0.263
0.426
0.674
0.139
-0.048
-0.128
-0.106
-0.087
0.017
-0.015
0.169
0.136
0.103
0.092
0.027
0.085
-0.079
0.015
-0.036
-0.092
-0.099
0.060
0.049
0.069
0.016
-0.104
-0.014
0.138
0.126
0.045
-0.074
-0.099
-0.016
0.012
0.154
0.023
0.011
0.067
-0.048
-0.019
0.063
0.057
0.099
-0.009
-0.049
0.043
-0.093
0.103
0.160
-0.106
-0.086
0.285
0.197
-0.035
-0.003
-0.124
-0.137
-0.112
0.243
0.156
0.085
-0.311
-0.467
0.251
0.535
0.319
-0.139
-0.151
-0.114
-0.018
0.050
-0.177
0.042
0.060
0.091
0.139
0.079
-0.012
-0.006
-0.174
0.096
0.125
-0.022
-0.031
0.073
0.069
0.055
-0.111
-0.227
-0.198
-0.038
0.063
0.557
0.322
0.228
-0.089
-0.202
-0.209
-0.377
-0.311
0.186
0.539
0.316
-0.017
-0.107
-0.052
-0.078
0.046
0.100
0.023
0.021
-0.039
0.086
0.000
0.049
0.071
0.100
0.093
-0.001
-0.229
-0.107
0.104
0.006
0.028
0.082
-0.055
0.087
0.077
-0.019
0.092
0.136
-0.166
-0.166
0.028
0.142
-0.238
-0.212
0.047
0.563
0.422
-0.080
-0.145
-0.197
-0.208
0.054
-0.051
0.064
0.336
0.286
0.039
0.130
-0.104
-0.078
-0.306
-0.075
0.212
0.140
0.170
0.000
-0.074
-0.098
-0.192
-0.005
0.133
0.234
0.244
0.105
-0.189
-0.097
-0.133
0.023
-0.008
0.029
0.048
0.033
0.032
0.012
-0.045
0.061
-0.047
-0.100
0.119
-0.031
0.064
0.025
0.104
-0.033
0.009
-0.051
0.179
-0.153
-0.038
0.067
-0.063
-0.038
0.042
-0.364
-0.217
-0.033
0.125
0.774
0.085
-0.494
-0.525
0.055
0.424
0.058
-0.011
0.010
0.094
-0.026
0.041
0.185
0.038
-0.072
0.074
0.015
0.117
0.072
-0.094
-0.039
-0.075
-0.453
-0.182
0.213
0.532
0.258
-0.005
-0.037
-0.240
-0.092
-0.234
-0.225
-0.015
-0.052
0.244
0.438
0.199
-0.113
-0.107
-0.133
-0.080
-0.092
-0.199
0.100
0.081
0.092
0.050
0.081
0.064
0.163
-0.049
-0.096
0.056
0.115
-0.210
-0.209
0.217
0.226
-0.028
0.092
0.104
0.053
-0.023
0.121
0.148
0.182
0.031
0.091
0.096
-0.213
0.125
0.096
0.148
0.046
0.034
0.161
-0.018
-0.019
-0.070
-0.011
0.018
0.002
0.215
0.004
-0.025
0.034
0.235
0.174
0.141
-0.102
-0.045
0.085
0.201
-0.079
-0.015
0.077
-0.344
-0.595
0.310
1.086
0.469
-0.142
-0.375
-0.347
-0.184
0.189
0.188
0.234
0.070
-0.063
-0.201
0.197
0.123
0.251
-0.133
-0.067
-0.108
-0.066
0.015
-0.059
0.035
0.140
0.085
-0.017
-0.156
0.076
0.225
0.292
0.050
0.010
0.021
-0.214
-0.015
0.400
0.013
-0.123
0.045
0.136
0.040
-0.032
0.046
0.022
0.066
-0.026
0.010
-0.098
0.053
0.142
-0.153
-0.101
0.092
0.138
0.014
0.051
-0.148
0.088
0.080
0.007
0.037
-0.017
0.077
0.060
0.054
-0.122
-0.388
-0.270
0.018
0.430
0.272
0.108
-0.135
0.171
-0.058
-0.064
-0.074
0.066
0.035
0.153
-0.101
-0.024
-0.050
0.127
-0.033
0.026
-0.042
0.022
-0.266
-0.363
-0.052
0.414
0.235
0.053
0.193
0.000
-0.148
-0.119
0.314
-0.014
-0.188
-0.054
0.469
0.365
-0.125
-0.083
0.035
-0.109
-0.060
-0.033
-0.159
0.003
0.112
0.002
-0.088
0.028
0.056
0.077
-0.099
0.055
0.049
-0.085
0.041
-0.040
-0.033
-0.077
-0.039
0.086
0.134
0.062
-0.013
-0.074
0.115
0.074
-0.088
-0.025
0.097
0.079
0.079
0.006
0.016
0.030
-0.104
0.009
0.087
-0.063
0.107
0.012
0.071
0.145
-0.026
-0.032
-0.021
-0.011
-0.007
0.132
-0.022
-0.044
0.019
0.295
0.119
-0.099
0.037
-0.066
0.161
0.057
0.030
-0.262
-0.278
0.049
0.581
0.553
-0.018
-0.124
-0.332
-0.127
-0.077
-0.021
0.122
0.109
-0.072
0.043
0.382
0.282
-0.088
-0.232
-0.306
-0.480
-0.369
0.380
0.902
0.049
-0.222
0.054
0.036
-0.050
-0.051
0.051
0.045
0.081
0.020
0.163
-0.003
-0.196
-0.015
0.254
0.194
0.038
-0.046
-0.204
-0.122
-0.178
0.207
0.242
0.036
0.049
-0.035
-0.172
0.192
0.202
-0.061
-0.044
0.126
-0.030
-0.172
-0.116
0.001
0.007
0.041
-0.008
0.068
0.032
0.088
-0.046
0.002
0.043
0.074
-0.216
-0.379
0.005
0.620
0.586
0.241
-0.256
-0.322
-0.169
-0.058
0.043
0.038
0.175
0.154
0.173
0.006
-0.089
-0.033
0.132
-0.118
-0.176
-0.196
0.066
0.112
0.235
0.102
0.030
-0.493
-0.405
0.248
0.594
0.206
0.121
0.054
-0.228
-0.186
0.180
0.071
-0.006
0.049
0.019
0.085
0.021
0.072
0.149
-0.118
-0.161
0.127
0.078
0.034
-0.014
-0.119
0.062
0.133
0.032
0.115
0.065
0.094
-0.028
0.002
0.072
0.145
0.040
-0.000
-0.052
-0.097
-0.050
0.106
0.227
0.061
-0.267
-0.389
-0.144
-0.016
0.150
-0.014
-0.178
0.209
0.489
0.462
-0.002
-0.310
-0.206
-0.198
-0.035
0.064
0.152
0.332
0.396
0.004
-0.035
-0.188
-0.164
-0.049
-0.205
-0.153
-0.083
0.247
0.035
0.058
-0.055
0.066
0.117
0.089
0.037
0.008
0.087
0.241
0.078
-0.048
0.056
-0.227
-0.313
0.122
0.413
-0.005
0.107
0.049
-0.034
-0.148
-0.092
0.070
-0.013
-0.089
0.010
0.018
0.046
-0.013
0.083
-0.152
-0.039
0.014
-0.041
0.131
0.027
-0.292
-0.135
0.111
0.170
0.115
0.052
0.096
-0.132
0.005
-0.012
0.179
0.092
-0.020
-0.180
-0.027
0.143
-0.011
-0.050
0.173
0.153
-0.339
-0.373
-0.056
0.748
0.377
-0.166
-0.225
-0.078
-0.045
0.009
0.110
-0.071
0.127
0.126
0.231
-0.036
-0.145
-0.066
-0.039
-0.017
0.013
0.000
-0.003
-0.006
-0.080
-0.102
-0.000
0.093
0.044
-0.110
-0.023
0.107
0.097
-0.056
-0.046
0.024
0.073
-0.039
-0.039
0.038
0.152
0.103
-0.100
0.002
0.038
0.184
0.293
0.134
-0.224
-0.789
-0.525
0.053
0.556
0.630
0.335
-0.238
-0.395
-0.080
0.080
0.039
-0.090
-0.067
0.043
0.077
0.200
0.447
0.296
-0.389
-0.275
-0.006
-0.036
0.054
0.075
-0.053
-0.076
-0.408
-0.346
0.377
0.620
0.370
-0.052
-0.267
-0.287
0.019
-0.028
0.248
0.006
-0.150
0.090
0.205
0.083
0.010
0.000
-0.138
-0.154
0.046
-0.020
-0.055
0.075
-0.002
0.121
0.071
0.142
0.043
0.001
0.159
-0.110
0.025
0.001
-0.014
0.030
0.084
0.067
-0.060
-0.047
0.139
-0.003
0.093
-0.040
-0.012
-0.015
-0.051
0.235
0.098
-0.030
0.010
0.031
-0.048
-0.067
0.067
0.008
0.045
0.084
0.087
0.248
-0.120
-0.454
-0.241
0.189
0.315
-0.040
-0.136
0.111
0.332
0.100
-0.033
-0.074
-0.119
0.026
0.039
0.152
0.170
0.255
0.107
-0.075
-0.489
-0.189
0.065
0.089
0.221
0.260
0.005
-0.518
-0.547
0.274
0.627
0.361
-0.103
-0.211
-0.239
-0.003
0.150
0.040
0.194
0.157
0.044
0.156
-0.201
-0.233
0.012
0.095
0.090
-0.078
-0.105
-0.146
0.068
0.054
-0.007
0.017
0.255
0.108
-0.200
-0.047
0.032
0.207
-0.019
-0.007
0.074
-0.013
0.066
-0.105
-0.047
0.015
0.098
-0.062
0.228
0.132
0.039
-0.117
-0.058
-0.161
0.033
0.104
0.175
0.122
-0.067
0.025
-0.046
-0.199
-0.027
0.252
0.304
0.118
-0.127
-0.092
-0.032
0.010
0.156
0.102
-0.351
-0.467
0.085
0.490
0.342
0.115
-0.107
-0.077
-0.307
-0.239
0.037
0.555
0.555
-0.032
-0.100
-0.127
-0.106
-0.052
-0.034
0.095
0.208
0.145
0.148
-0.089
-0.185
-0.032
0.155
0.108
-0.133
-0.225
0.021
0.215
0.092
-0.071
-0.031
0.015
0.164
0.088
-0.048
-0.050
-0.050
0.040
0.047
0.037
0.083
0.076
0.006
-0.040
0.103
0.060
-0.052
-0.106
0.068
0.074
0.168
-0.215
-0.269
0.269
0.228
-0.081
-0.185
-0.039
0.409
0.412
0.069
-0.426
-0.344
-0.123
0.049
0.180
0.407
0.258
-0.003
-0.045
-0.148
-0.104
-0.105
-0.104
0.168
-0.133
-0.072
0.228
0.163
0.046
0.154
0.259
-0.105
-0.127
-0.161
-0.053
0.065
0.256
0.191
0.171
-0.071
-0.108
0.040
-0.061
0.020
0.044
-0.004
0.018
-0.102
-0.052
-0.065
0.049
0.002
0.018
-0.032
0.174
0.144
-0.029
-0.077
-0.068
0.051
0.217
0.151
0.130
-0.098
-0.287
0.134
0.121
0.038
0.001
0.041
0.047
0.013
0.058
-0.050
0.115
-0.082
0.116
-0.138
-0.169
0.046
0.331
0.061
-0.003
-0.046
-0.053
0.046
0.014
-0.054
0.035
0.276
0.027
-0.181
-0.201
0.010
0.165
0.076
-0.007
0.055
-0.275
-0.268
0.033
0.739
0.386
0.093
-0.250
-0.302
-0.074
-0.149
0.047
0.221
0.168
0.114
0.208
-0.185
-0.561
-0.392
0.307
0.655
0.176
-0.084
-0.328
-0.491
-0.106
-0.012
0.197
0.508
0.267
-0.032
-0.395
0.079
0.216
0.321
-0.065
-0.263
-0.342
0.021
0.456
0.186
-0.036
0.030
-0.010
-0.028
-0.259
-0.140
0.151
0.013
-0.113
0.083
0.130
0.124
0.039
0.047
-0.166
0.060
0.175
0.080
0.046
-0.021
0.080
0.028
-0.056
0.186
0.084
-0.057
-0.063
0.022
0.010
0.080
-0.131
0.093
-0.159
0.052
0.073
0.066
0.063
0.066
-0.085
0.007
-0.013
0.048
-0.094
-0.287
-0.070
0.611
0.539
0.168
0.032
-0.340
-0.420
-0.137
0.044
0.418
0.325
0.155
-0.072
-0.211
-0.002
0.127
-0.136
-0.086
0.043
-0.036
-0.066
0.106
-0.071
0.022
0.257
0.204
0.083
0.140
-0.330
-0.579
0.066
0.559
0.332
-0.034
-0.004
-0.178
-0.093
0.013
0.276
-0.016
0.057
0.259
-0.044
0.129
0.093
-0.026
-0.085
-0.003
-0.013
-0.010
-0.046
0.067
-0.048
-0.007
-0.083
-0.111
0.009
0.067
0.029
0.023
0.062
0.009
0.093
0.031
-0.008
-0.003
0.119
-0.078
-0.155
-0.053
0.291
0.267
0.173
-0.438
-0.507
0.309
0.374
0.021
-0.058
0.244
0.245
-0.000
-0.141
-0.068
0.161
0.055
0.074
0.061
0.004
-0.002
0.021
-0.004
-0.062
-0.169
-0.039
0.090
0.123
-0.022
-0.038
-0.029
0.050
0.272
0.033
0.182
-0.045
-0.419
-0.304
0.176
0.600
0.141
0.096
0.128
0.026
-0.176
-0.088
0.027
-0.018
0.061
-0.104
0.121
-0.093
-0.019
0.141
0.058
0.001
0.141
0.092
-0.086
-0.026
-0.017
0.154
-0.030
0.055
0.038
0.236
0.065
0.086
0.003
-0.081
0.044
0.064
-0.004
-0.033
-0.010
0.048
-0.186
0.018
0.150
0.098
-0.030
-0.094
-0.025
-0.186
-0.160
0.084
0.617
0.358
0.113
0.122
-0.203
-0.355
-0.091
0.055
0.156
0.133
0.146
0.029
0.083
0.035
0.015
-0.333
-0.182
0.021
0.186
0.059
0.031
0.025
-0.008
0.180
-0.106
-0.387
-0.168
0.501
0.349
-0.054
-0.188
-0.026
0.264
-0.042
-0.132
0.178
0.099
0.119
0.107
-0.052
-0.275
-0.156
-0.042
0.081
0.347
0.352
0.031
-0.085
-0.320
-0.150
0.060
0.098
-0.021
0.012
0.053
0.153
0.202
0.172
0.086
0.023
-0.018
-0.067
0.008
-0.028
0.086
-0.120
-0.104
-0.215
0.550
0.546
0.060
-0.224
-0.254
-0.182
-0.171
0.079
0.249
0.069
0.068
0.114
0.119
0.049
-0.036
-0.076
-0.203
0.062
0.091
-0.114
0.033
0.039
0.049
0.091
0.078
0.014
0.159
-0.402
-0.363
0.069
0.522
0.171
-0.044
0.018
-0.044
0.042
0.102
-0.041
0.002
0.137
-0.005
-0.111
0.263
0.019
-0.249
-0.093
0.315
0.095
0.140
-0.192
-0.335
0.028
0.248
0.260
0.026
-0.157
0.055
0.258
0.235
0.014
-0.383
-0.197
-0.086
0.090
0.412
0.318
-0.064
-0.215
-0.158
-0.364
-0.345
0.457
0.626
0.234
-0.003
-0.225
-0.251
-0.065
-0.048
0.066
0.187
0.097
0.151
0.053
0.006
-0.050
-0.120
-0.074
-0.019
0.092
0.206
0.022
-0.481
-0.330
0.317
0.470
0.205
0.053
-0.018
0.013
0.020
0.012
0.223
0.043
-0.249
-0.006
0.278
0.253
0.035
0.016
-0.158
-0.011
0.026
0.039
-0.287
-0.015
0.222
0.203
-0.215
-0.044
0.260
0.146
0.042
-0.155
0.022
0.043
0.087
0.054
0.080
-0.009
-0.100
0.018
0.131
0.006
0.012
0.002
0.042
0.069
0.037
-0.259
-0.039
0.141
-0.053
-0.197
0.016
0.533
0.397
0.038
-0.149
-0.429
-0.106
0.039
-0.057
0.003
0.115
0.316
0.108
0.112
-0.006
-0.086
-0.061
-0.045
-0.122
-0.025
-0.097
0.124
0.069
0.120
0.039
0.124
0.154
0.049
-0.256
-0.539
-0.029
0.663
0.633
0.229
-0.366
-0.781
-0.195
0.033
0.199
0.247
0.487
0.205
0.021
-0.130
-0.236
-0.034
-0.017
0.047
0.112
0.018
0.065
0.060
0.067
0.138
0.029
-0.074
-0.124
-0.034
-0.046
-0.029
0.051
0.079
0.069
-0.028
0.065
0.015
0.061
0.044
0.070
-0.265
-0.323
0.321
0.737
0.338
-0.066
-0.221
-0.371
-0.187
0.009
0.250
0.164
-0.094
-0.006
-0.083
0.214
0.140
-0.025
-0.115
-0.083
-0.097
-0.061
0.078
0.008
0.093
0.029
-0.013
0.071
0.060
-0.079
0.129
-0.045
0.019
0.070
0.127
0.035
-0.114
0.068
0.100
-0.116
-0.209
0.187
0.211
-0.051
-0.000
0.019
-0.061
0.235
0.187
-0.467
-0.404
0.134
0.588
0.068
-0.180
0.162
0.029
-0.202
-0.198
0.268
0.209
0.132
0.096
0.013
-0.088
-0.035
-0.022
0.156
-0.025
0.029
-0.020
-0.033
0.058
-0.100
-0.155
-0.059
0.049
0.033
-0.322
-0.166
0.194
0.508
-0.022
-0.149
0.020
-0.158
-0.129
0.203
0.238
0.323
-0.031
-0.009
-0.035
-0.175
-0.045
0.182
0.240
-0.112
0.077
0.115
0.013
-0.059
0.104
-0.100
0.105
0.081
-0.049
-0.309
0.021
0.174
0.173
-0.047
-0.175
0.217
0.117
0.013
0.000
0.124
0.004
-0.025
0.102
-0.067
0.000
0.152
0.230
0.148
-0.394
-0.578
-0.048
0.496
0.364
-0.099
-0.004
0.019
-0.033
0.012
0.014
0.119
0.001
-0.082
0.050
0.182
0.115
0.084
0.028
-0.019
-0.186
-0.082
0.054
-0.017
0.071
-0.032
-0.332
-0.436
0.236
0.644
0.597
0.005
-0.390
-0.236
0.080
-0.000
0.009
0.047
0.220
0.194
-0.054
0.090
0.244
-0.134
-0.275
-0.139
0.132
-0.057
0.098
0.142
0.040
-0.034
-0.010
0.072
0.121
0.202
-0.004
-0.072
0.070
0.218
0.164
-0.059
-0.218
-0.255
-0.146
0.002
0.176
0.218
0.137
0.057
-0.199
-0.384
-0.056
0.186
0.197
0.118
0.187
0.276
-0.337
-0.405
-0.163
0.398
0.313
0.120
-0.014
0.001
-0.002
-0.106
-0.018
-0.030
-0.104
-0.003
0.038
0.106
-0.009
0.153
0.082
0.058
-0.067
0.002
0.014
0.112
-0.093
-0.061
0.091
0.114
0.065
0.013
-0.311
-0.289
0.279
0.797
0.350
0.098
-0.228
-0.359
-0.165
0.118
0.168
0.258
0.177
0.045
-0.006
-0.008
0.015
-0.037
-0.073
-0.135
-0.278
0.083
0.126
-0.063
-0.130
-0.032
0.101
0.091
0.055
-0.060
-0.008
0.016
0.065
0.034
0.006
0.156
0.213
0.150
-0.022
-0.070
-0.077
0.222
0.077
0.196
0.059
0.135
-0.138
-0.276
-0.091
0.162
0.376
0.172
-0.268
-0.139
-0.042
0.188
0.149
0.025
-0.351
-0.454
0.049
0.470
0.243
0.008
-0.023
0.021
-0.060
-0.111
-0.034
0.071
0.027
0.039
0.211
0.189
-0.128
-0.507
-0.417
-0.070
0.594
0.657
0.250
-0.149
-0.219
-0.225
-0.167
-0.057
0.215
0.055
0.028
0.147
0.058
-0.157
0.148
0.250
-0.109
-0.175
-0.122
0.117
-0.112
-0.166
-0.107
0.195
0.200
0.101
-0.031
-0.211
-0.026
0.102
0.058
0.211
-0.033
-0.034
-0.010
-0.013
0.005
0.111
0.023
0.006
-0.132
-0.019
0.109
0.142
0.012
0.003
0.005
-0.154
0.006
0.086
0.178
0.068
0.216
0.153
-0.414
-0.421
0.067
0.418
-0.019
-0.203
0.024
-0.075
-0.129
0.464
0.411
0.013
-0.166
-0.284
-0.191
0.107
0.173
0.051
0.244
0.076
0.002
0.014
-0.075
-0.107
-0.064
0.031
-0.071
-0.188
-0.170
0.094
-0.060
0.220
0.350
0.071
-0.290
-0.324
0.013
0.220
0.021
0.092
-0.068
-0.065
-0.022
-0.051
-0.035
-0.074
0.048
-0.001
0.097
0.010
0.032
0.085
0.008
0.092
0.107
0.133
0.107
-0.048
-0.105
-0.085
0.036
0.124
0.373
0.296
-0.095
-0.277
-0.034
0.076
0.056
-0.054
0.141
0.185
-0.153
-0.286
-0.118
0.451
0.216
0.035
-0.236
-0.099
-0.024
-0.398
-0.201
0.262
0.557
0.355
0.034
-0.193
-0.229
-0.101
0.019
0.179
0.280
-0.097
-0.141
0.042
0.158
-0.060
0.062
0.316
0.170
-0.252
-0.194
0.205
0.177
-0.058
0.025
0.324
0.161
-0.163
-0.032
0.082
0.141
0.224
0.114
0.013
-0.125
0.057
0.094
0.099
0.040
0.021
0.107
0.075
0.129
0.076
-0.173
0.078
-0.059
-0.213
0.100
-0.003
0.054
0.213
0.054
-0.138
-0.019
-0.007
-0.022
0.033
-0.035
0.061
0.069
0.069
0.004
-0.008
-0.023
0.040
-0.036
0.025
-0.184
0.249
0.361
0.073
0.137
-0.444
-0.717
-0.321
0.421
0.617
0.479
0.171
-0.039
-0.148
-0.348
-0.153
-0.019
0.086
0.181
0.121
0.193
0.113
-0.064
-0.055
-0.234
0.078
-0.069
-0.222
-0.049
-0.004
-0.178
-0.106
0.236
0.201
0.157
-0.105
0.022
0.101
0.058
0.003
-0.296
-0.150
-0.149
0.163
0.334
0.310
0.163
0.016
-0.335
-0.044
-0.050
0.073
-0.030
0.041
-0.024
0.140
0.211
-0.032
-0.020
0.000
0.020
0.035
-0.098
-0.002
-0.025
-0.017
-0.003
0.027
0.022
0.076
-0.204
-0.231
-0.086
0.189
0.433
0.175
-0.022
-0.147
-0.142
-0.028
-0.100
-0.087
0.161
0.666
-0.042
-0.457
0.028
0.297
-0.002
-0.049
-0.002
0.056
0.055
0.080
0.061
0.057
-0.107
-0.102
0.160
-0.014
-0.117
0.021
0.242
0.120
-0.159
-0.001
-0.096
-0.082
0.046
0.078
-0.025
-0.024
0.077
0.130
0.023
-0.265
-0.115
0.103
0.256
0.070
0.058
-0.091
-0.022
0.064
0.086
0.037
-0.003
-0.191
0.107
0.104
0.010
0.001
0.057
0.167
-0.023
-0.005
-0.113
-0.038
-0.042
0.005
0.004
0.053
0.067
0.004
-0.079
0.096
-0.012
0.023
-0.257
-0.198
0.320
0.462
0.606
0.188
-0.475
-0.656
-0.198
0.101
0.323
-0.202
-0.089
0.274
0.325
0.005
0.005
-0.165
-0.135
-0.164
0.005
0.059
-0.041
0.187
-0.069
0.118
0.215
0.213
0.062
0.034
-0.307
-0.303
-0.001
0.172
0.272
0.117
0.033
-0.120
-0.042
0.005
-0.036
-0.047
-0.101
0.060
0.265
0.088
0.102
-0.230
-0.085
-0.073
0.147
-0.098
0.245
0.046
0.120
0.027
-0.108
0.024
0.071
0.042
-0.022
0.128
-0.207
-0.110
0.103
0.122
0.074
-0.003
0.052
0.016
-0.069
-0.006
0.001
-0.061
0.100
0.035
0.027
0.047
0.035
0.081
0.038
-0.200
-0.539
-0.062
0.742
0.593
0.005
-0.238
-0.254
-0.157
-0.067
0.125
0.099
0.260
0.076
0.043
-0.103
-0.037
0.113
0.008
0.070
0.032
0.022
0.014
-0.133
-0.489
-0.176
0.283
0.577
0.158
-0.114
-0.179
0.006
0.084
0.141
0.090
-0.109
0.093
0.019
0.190
0.174
0.203
-0.052
-0.346
-0.195
-0.077
0.070
0.297
0.419
-0.021
-0.223
-0.123
-0.041
-0.093
0.037
0.047
0.105
0.045
0.116
0.051
0.046
0.010
-0.007
0.077
0.008
0.135
0.089
-0.402
-0.308
0.062
0.377
0.198
-0.095
-0.063
-0.096
-0.389
-0.216
0.450
0.711
0.219
-0.132
-0.180
-0.212
-0.097
0.106
0.018
0.000
-0.005
-0.010
0.029
0.085
0.094
0.116
0.015
-0.265
-0.017
-0.123
0.019
0.077
0.148
0.194
0.161
-0.071
-0.554
-0.248
0.451
0.443
0.041
-0.121
-0.127
0.053
-0.096
-0.054
0.106
0.111
0.056
-0.043
0.071
0.022
0.099
-0.003
0.044
-0.078
-0.013
-0.083
0.004
-0.092
-0.006
0.013
-0.077
-0.082
-0.159
0.101
0.121
0.132
-0.120
-0.050
0.039
0.094
0.062
0.124
0.093
-0.076
-0.103
0.003
0.020
0.109
0.138
-0.113
0.251
0.089
-0.097
-0.091
0.009
-0.051
0.179
0.131
-0.291
-0.220
0.230
0.509
0.084
-0.044
-0.150
0.079
0.193
0.042
-0.449
-0.254
0.221
0.104
0.238
0.356
0.118
-0.120
-0.360
-0.062
-0.087
-0.210
0.048
0.129
0.119
0.214
0.198
-0.021
-0.138
-0.071
0.095
0.181
0.134
-0.346
-0.589
-0.059
0.597
0.296
0.022
0.027
-0.147
0.094
-0.030
0.103
0.108
0.039
0.069
0.081
0.319
-0.037
-0.280
0.020
-0.082
0.100
0.154
0.010
-0.020
-0.105
-0.014
-0.032
-0.058
-0.004
-0.027
0.082
0.071
0.092
0.096
-0.055
-0.033
0.007
-0.043
-0.450
-0.229
0.209
0.658
0.440
-0.016
-0.186
-0.399
-0.145
0.122
0.258
0.175
0.187
-0.051
-0.067
0.020
-0.048
-0.021
0.031
-0.117
0.016
0.021
0.027
-0.071
-0.026
0.144
0.057
0.052
0.089
-0.061
-0.020
0.005
0.057
-0.065
-0.005
0.140
0.065
0.039
-0.092
0.037
-0.136
-0.006
0.171
0.073
-0.048
-0.016
0.009
0.225
0.220
-0.110
-0.304
0.127
0.068
0.132
0.132
-0.046
-0.413
-0.368
0.119
0.578
0.234
-0.330
-0.222
0.021
0.170
0.200
0.201
0.223
-0.191
-0.595
-0.352
0.438
0.618
0.309
0.274
0.019
-0.210
-0.196
-0.097
-0.187
0.094
0.086
0.084
0.063
0.130
-0.026
0.018
0.029
-0.002
0.082
-0.062
0.095
-0.165
-0.240
0.073
0.221
0.002
0.058
0.043
0.021
-0.095
-0.024
0.003
0.064
0.110
0.022
-0.007
0.052
0.101
-0.031
-0.015
-0.071
-0.018
0.058
0.054
0.040
0.225
-0.054
-0.154
-0.009
-0.216
0.249
0.350
0.066
-0.069
-0.131
0.012
0.082
0.001
-0.032
0.056
-0.005
0.181
0.020
-0.071
0.175
0.029
-0.070
-0.151
-0.004
0.258
0.208
0.044
-0.229
-0.272
0.072
0.155
0.071
0.223
-0.002
-0.086
-0.551
-0.057
0.247
0.517
0.347
-0.094
-0.334
-0.345
-0.124
0.154
0.137
0.210
0.079
-0.072
0.008
0.047
0.058
0.057
-0.097
-0.128
-0.020
0.073
0.071
0.056
0.073
-0.017
-0.008
0.075
0.095
0.006
0.024
0.165
0.001
0.224
-0.248
-0.228
-0.080
0.166
0.308
-0.221
-0.034
0.033
0.092
0.202
0.253
-0.156
-0.267
-0.252
-0.077
0.152
0.129
0.269
0.241
0.063
-0.220
-0.120
-0.035
0.035
0.051
-0.165
0.051
0.125
0.173
0.072
0.111
-0.061
-0.165
-0.253
0.073
0.239
0.071
-0.020
0.077
-0.163
-0.150
0.154
0.161
0.022
-0.020
0.083
0.050
0.077
0.079
0.122
-0.101
-0.077
-0.169
-0.074
-0.168
-0.174
0.484
0.484
0.237
0.016
-0.091
-0.013
-0.410
-0.461
0.195
0.556
0.361
0.044
-0.033
-0.087
-0.148
-0.040
-0.016
-0.007
-0.007
-0.019
0.046
0.108
0.059
0.074
-0.024
-0.200
-0.125
0.352
0.124
-0.014
-0.054
0.008
0.107
0.069
0.021
0.040
0.004
0.043
0.282
0.016
-0.237
0.094
0.124
0.090
-0.001
0.019
0.034
0.001
0.025
0.044
-0.064
-0.144
0.084
0.203
0.043
-0.085
0.043
-0.027
0.011
0.089
0.021
-0.070
0.118
0.128
-0.027
-0.058
0.018
-0.163
-0.095
0.339
0.182
-0.086
-0.114
-0.050
-0.032
-0.272
-0.135
0.241
0.582
0.349
0.056
-0.168
-0.357
-0.236
-0.152
0.281
0.257
0.198
0.011
-0.018
-0.022
-0.131
0.009
-0.058
-0.043
-0.012
0.020
0.014
0.103
-0.015
0.046
0.122
0.072
-0.201
-0.064
0.193
0.035
-0.040
0.050
-0.038
-0.033
0.112
0.160
0.250
-0.356
-0.470
-0.039
0.370
0.225
0.154
-0.011
-0.125
0.097
-0.017
0.254
0.150
0.027
-0.295
-0.490
0.052
0.340
0.217
0.353
0.178
-0.234
-0.071
-0.193
0.044
0.061
-0.126
0.091
0.073
0.031
-0.127
0.084
0.117
0.065
0.097
-0.006
-0.038
-0.029
-0.460
-0.185
0.359
0.621
0.429
-0.043
-0.216
-0.078
-0.122
-0.001
0.082
0.154
0.308
-0.038
-0.083
0.082
0.070
-0.136
-0.217
0.143
0.176
0.075
0.082
-0.021
-0.296
-0.012
0.097
0.116
0.151
-0.016
0.081
-0.053
0.104
0.085
0.064
-0.062
0.054
0.160
-0.044
-0.431
-0.357
0.197
0.471
0.101
-0.067
-0.043
0.060
0.105
0.028
0.031
-0.134
-0.157
0.075
0.280
0.197
0.101
-0.035
-0.070
-0.080
0.065
-0.016
-0.013
-0.008
-0.042
-0.012
-0.010
0.003
0.013
0.098
-0.002
-0.010
-0.177
0.042
0.014
-0.041
-0.214
0.184
0.269
-0.014
-0.241
-0.388
-0.102
0.443
0.579
0.215
-0.070
-0.234
-0.285
-0.163
0.048
0.069
0.312
0.148
0.128
-0.117
-0.204
-0.030
-0.034
0.005
0.083
-0.054
-0.065
-0.099
0.055
0.059
0.020
-0.041
0.031
0.013
0.125
0.154
0.180
-0.279
-0.232
0.084
0.147
0.143
0.042
-0.013
0.007
-0.011
0.073
0.011
0.033
0.118
-0.083
-0.210
-0.269
-0.199
0.092
0.335
0.525
0.022
-0.538
-0.426
0.122
0.426
0.135
0.108
-0.057
-0.057
0.031
-0.044
0.059
0.086
0.087
0.065
0.020
-0.074
0.014
-0.241
-0.214
0.089
0.496
0.212
0.105
-0.208
-0.290
-0.217
0.107
0.157
0.140
-0.044
-0.200
0.165
0.200
0.068
0.069
-0.062
-0.244
-0.183
0.041
0.029
0.187
0.019
0.039
0.017
-0.156
0.080
0.093
0.143
-0.110
0.033
-0.045
-0.017
0.072
0.067
-0.012
-0.002
0.008
0.087
-0.102
0.116
0.054
-0.150
0.080
-0.006
0.162
0.161
-0.058
0.106
-0.179
-0.220
-0.060
0.141
0.204
0.007
-0.150
0.021
0.022
0.071
0.060
0.035
0.085
-0.005
0.069
0.108
0.109
-0.117
-0.282
-0.148
0.259
0.362
0.010
-0.503
-0.403
0.507
0.762
0.285
-0.049
-0.426
-0.518
-0.051
0.272
0.285
0.129
0.135
0.119
-0.061
-0.091
-0.043
0.009
-0.088
-0.071
-0.096
-0.140
0.008
0.072
0.035
0.007
0.205
-0.025
0.104
0.045
0.026
-0.025
0.059
-0.012
0.140
0.118
-0.020
-0.017
-0.010
-0.090
0.287
0.127
-0.111
-0.266
-0.137
-0.017
0.164
0.332
0.183
-0.063
-0.114
-0.151
0.003
0.053
0.011
0.120
-0.008
0.079
0.052
0.006
0.092
0.048
0.075
-0.045
0.021
-0.015
-0.015
0.146
0.088
-0.253
-0.836
-0.712
0.711
1.083
0.557
-0.101
-0.489
-0.310
-0.031
0.041
0.037
0.018
0.273
0.150
0.151
0.089
-0.037
0.050
-0.183
-0.033
-0.219
-0.034
-0.022
0.035
-0.005
0.034
0.084
0.071
0.027
0.070
-0.126
-0.103
0.208
0.163
0.151
0.179
-0.005
-0.062
-0.042
-0.114
-0.159
0.155
0.110
0.164
0.013
-0.010
-0.040
0.142
0.143
-0.093
-0.243
0.156
0.090
-0.239
-0.207
0.173
0.148
0.180
0.111
0.017
-0.188
-0.072
-0.147
-0.026
0.239
0.148
0.087
0.037
0.016
-0.110
-0.236
0.267
0.029
-0.160
-0.290
-0.002
0.536
0.531
0.056
-0.157
-0.470
-0.376
0.314
0.289
0.151
-0.004
-0.380
-0.157
0.230
0.435
0.103
0.086
-0.287
-0.319
-0.047
0.154
0.126
0.072
-0.014
0.052
0.068
0.069
-0.080
-0.032
-0.210
-0.072
-0.062
0.027
0.206
0.325
0.150
-0.245
-0.022
-0.055
0.050
-0.087
-0.017
0.034
0.081
0.071
0.115
0.176
-0.068
-0.032
-0.068
0.057
-0.020
-0.036
0.033
0.038
-0.091
0.003
0.053
-0.011
0.158
0.070
-0.069
0.105
0.104
-0.080
-0.023
0.079
0.165
0.078
-0.046
-0.170
-0.208
-0.215
-0.095
0.362
0.711
0.349
-0.216
-0.320
-0.453
-0.224
-0.021
0.393
0.336
0.180
0.064
-0.115
-0.033
-0.035
0.012
0.004
0.144
-0.020
-0.052
0.213
-0.024
-0.497
-0.172
0.411
0.412
0.044
-0.017
-0.014
-0.059
0.047
-0.001
-0.256
-0.060
0.007
0.262
0.216
0.169
0.022
-0.124
0.008
-0.095
0.188
0.103
-0.025
0.000
0.029
-0.028
-0.011
-0.024
-0.102
0.065
-0.013
0.059
0.017
-0.066
0.075
-0.021
-0.561
-0.051
0.833
0.636
-0.004
-0.136
-0.026
-0.103
-0.116
-0.208
-0.107
0.085
0.004
0.155
0.336
0.279
-0.231
-0.202
-0.062
0.126
0.029
-0.195
-0.309
-0.414
0.132
0.570
0.269
0.124
-0.032
-0.096
0.042
-0.140
-0.005
-0.013
0.028
0.034
0.001
0.066
0.005
0.081
0.078
0.024
0.036
-0.018
-0.193
-0.063
-0.071
0.117
0.217
0.098
0.136
-0.136
-0.077
-0.009
-0.001
0.072
0.111
0.093
0.050
0.117
-0.020
0.020
0.188
-0.275
-0.313
0.055
0.137
0.174
0.127
0.015
-0.078
-0.044
0.011
0.080
0.009
0.088
0.064
-0.108
0.150
0.118
-0.199
-0.421
0.047
0.502
0.407
-0.011
-0.245
-0.120
-0.198
0.040
0.217
0.071
0.361
0.116
-0.508
-0.513
0.162
0.536
0.083
0.014
-0.141
-0.022
-0.115
-0.069
0.014
0.038
0.129
-0.061
-0.016
0.049
0.160
0.178
0.114
0.043
-0.105
-0.107
-0.086
0.100
0.144
-0.003
-0.054
-0.095
0.099
0.027
-0.003
-0.159
-0.014
0.320
-0.005
-0.231
0.265
0.241
0.035
-0.381
-0.252
-0.046
0.003
0.139
0.246
0.395
0.062
-0.049
-0.128
-0.100
-0.074
-0.048
-0.061
-0.135
0.153
0.097
-0.258
-0.063
0.167
0.293
-0.013
0.054
0.037
-0.108
0.056
-0.145
-0.094
0.045
0.222
0.066
0.063
0.142
0.164
0.110
0.120
-0.038
-0.480
-0.453
-0.043
0.413
0.241
0.076
0.066
-0.006
-0.023
-0.009
0.053
0.092
0.025
-0.047
0.021
0.144
0.075
0.103
-0.044
0.030
-0.171
-0.021
-0.027
0.089
0.120
-0.007
-0.118
-0.044
0.193
0.144
-0.032
0.016
-0.033
0.118
0.068
-0.073
-0.028
0.261
0.151
-0.163
-0.106
0.093
-0.056
0.085
-0.075
0.035
0.059
0.017
0.015
-0.128
0.082
0.151
0.122
-0.218
0.115
0.181
0.140
-0.071
-0.114
-0.022
-0.155
-0.219
0.023
0.476
0.537
0.073
-0.176
-0.328
-0.305
-0.059
0.044
0.202
0.253
0.187
0.128
-0.202
-0.188
0.051
0.027
0.079
-0.016
-0.086
-0.177
0.153
0.277
0.130
-0.357
-0.333
0.052
0.565
0.283
-0.053
0.112
-0.184
-0.290
-0.117
-0.102
0.006
0.243
0.332
0.214
-0.037
-0.131
-0.111
-0.101
-0.119
-0.005
0.240
0.223
0.154
0.018
-0.144
-0.096
0.110
0.001
-0.160
-0.004
0.201
0.009
0.030
0.094
-0.005
0.026
-0.021
0.097
-0.000
0.002
0.071
0.014
-0.312
-0.289
0.132
0.643
0.519
-0.077
-0.271
-0.226
-0.297
-0.065
0.081
0.236
0.225
0.032
0.148
-0.035
-0.088
-0.103
-0.073
-0.075
0.093
0.070
0.030
-0.077
0.020
0.072
0.181
0.103
0.123
-0.294
-0.475
-0.238
0.328
0.629
0.339
-0.159
-0.258
-0.124
-0.003
0.124
0.122
0.102
-0.025
-0.054
-0.110
0.185
0.119
0.033
-0.135
0.052
0.138
0.007
-0.135
-0.082
0.055
0.129
-0.237
0.059
-0.132
0.010
0.162
0.068
0.062
0.041
-0.009
0.044
-0.089
0.042
0.054
0.017
0.030
-0.110
-0.019
0.114
0.148
0.070
0.003
-0.050
-0.346
-0.287
0.131
0.588
0.425
-0.179
-0.200
-0.027
0.014
0.025
-0.012
0.107
0.140
0.076
-0.045
-0.296
0.020
0.137
0.133
0.095
-0.032
-0.037
-0.005
0.229
-0.007
-0.281
-0.282
0.045
-0.020
0.057
0.310
0.368
0.180
-0.060
-0.154
-0.288
0.103
0.286
0.235
-0.327
-0.455
0.179
0.533
0.335
0.024
-0.140
0.081
-0.183
-0.307
-0.042
0.116
0.210
0.130
0.013
-0.124
0.026
0.113
-0.049
0.017
-0.033
0.008
0.034
-0.079
0.017
0.028
0.106
-0.041
0.002
-0.078
-0.038
0.036
0.033
-0.007
-0.063
0.122
0.144
-0.294
-0.212
0.239
0.570
0.395
-0.094
-0.134
-0.220
0.085
0.004
0.003
0.080
0.214
0.067
-0.062
-0.031
0.070
-0.098
-0.054
-0.070
-0.059
-0.074
0.028
0.027
0.017
-0.104
0.006
0.196
0.104
-0.015
0.089
0.105
0.003
-0.033
-0.015
-0.025
-1.730
-3.655
-4.128
1.956
4.017
4.528
2.573
-2.404
-3.941
-4.317
-3.721
0.214
3.502
4.440
4.595
4.515
4.317
4.131
3.931
3.441
1.709
-0.328
-1.748
-2.919
-3.453
-3.549
-3.047
-2.447
-1.816
-0.975
-0.260
0.042
0.507
0.676
0.771
0.891
1.048
1.356
1.142
0.761
0.326
0.331
0.293
0.386
0.517
0.234
0.371
0.922
1.037
0.749
0.499
0.242
0.019
0.145
0.432
0.356
0.206
0.251
0.399
0.562
0.440
0.362
0.325
0.165
0.450
0.333
0.323
0.178
0.339
0.551
0.393
0.053
-0.057
-0.017
0.063
0.072
0.390
0.446
0.225
0.030
-0.184
-0.244
-0.162
-0.134
-0.065
-0.076
-0.021
-0.189
-0.117
-0.159
-0.160
-0.291
-0.250
-0.340
-0.186
-0.160
-0.140
-0.295
-0.549
-0.746
-0.296
0.211
0.130
-0.126
-0.247
-0.224
-0.229
-0.199
-0.072
-0.226
-0.386
0.016
0.007
0.053
-0.031
-0.098
-0.153
0.018
-0.112
-0.081
0.024
-0.107
-0.003
0.129
-0.215
-0.513
-0.288
0.180
0.841
0.542
0.090
-0.294
-0.342
-0.007
-0.036
0.129
0.191
0.194
0.209
0.095
0.019
0.002
0.014
-0.073
0.020
-0.042
0.006
0.106
-0.036
-0.157
0.012
0.157
0.264
0.148
0.155
0.016
-0.246
-0.156
0.187
0.225
0.197
0.018
0.031
0.031
0.013
-0.085
0.024
0.089
-0.002
-0.080
0.232
0.234
-0.049
-0.074
-0.008
0.101
0.093
0.078
0.020
0.012
0.114
-0.057
0.131
0.206
-0.096
-0.042
0.137
0.263
0.112
-0.337
-0.530
-0.034
0.470
0.247
0.066
-0.033
-0.314
-0.277
0.164
0.578
0.227
-0.092
-0.192
-0.096
-0.137
-0.093
0.207
0.024
-0.020
0.093
0.160
0.007
-0.056
-0.315
-0.353
-0.444
-0.389
0.103
0.552
0.257
-0.047
-0.172
0.005
-0.150
-0.047
-0.062
0.067
0.023
-0.058
0.165
-0.004
-0.034
-0.027
-0.116
-0.214
-0.111
-0.004
0.054
-0.045
0.027
-0.045
-0.080
0.009
0.168
0.120
-0.090
0.075
0.084
0.123
0.085
-0.045
0.041
-0.017
0.236
0.126
0.132
0.122
0.081
-0.280
-0.294
0.384
0.429
0.110
0.071
-0.132
-0.065
0.022
-0.148
-0.247
0.060
0.650
0.596
0.134
0.139
-0.341
-0.649
-0.217
0.309
0.259
0.404
0.157
-0.020
-0.040
-0.007
-0.222
0.023
-0.124
-0.015
0.017
0.072
-0.053
0.130
-0.012
0.046
-0.063
-0.016
0.016
-0.015
0.013
-0.140
-0.236
0.049
0.162
0.077
0.033
-0.151
-0.163
0.231
0.195
-0.112
-0.212
-0.309
0.061
0.391
0.141
-0.003
-0.146
-0.086
0.030
0.072
0.021
-0.011
0.006
-0.057
0.138
0.213
0.110
0.029
-0.206
-0.597
-0.435
0.064
0.874
0.552
0.056
-0.250
-0.172
-0.176
0.026
-0.023
-0.013
0.129
0.111
0.254
0.309
0.072
-0.225
-0.239
0.108
0.541
0.459
-0.057
-0.203
-0.228
-0.158
0.022
0.135
0.128
0.233
0.061
-0.032
0.076
-0.026
-0.129
0.118
-0.038
-0.014
-0.116
0.016
0.235
0.065
-0.044
-0.019
0.053
0.055
-0.009
0.097
0.039
-0.035
0.152
0.005
-0.061
0.089
-0.100
-0.015
0.005
-0.091
-0.011
0.039
0.012
-0.037
-0.018
0.071
0.087
0.015
-0.033
0.033
0.057
0.008
-0.236
0.097
-0.138
-0.043
0.159
0.176
0.062
0.079
-0.092
0.033
-0.018
-0.164
-0.002
0.049
-0.239
-0.201
0.626
0.818
0.411
-0.302
-1.072
-0.842
0.170
0.777
0.404
0.189
-0.043
-0.028
-0.189
-0.147
-0.068
0.227
0.041
-0.144
-0.063
0.146
0.170
0.102
0.057
-0.099
-0.054
-0.003
0.050
-0.056
0.040
0.079
0.027
-0.103
-0.044
0.017
0.292
0.175
-0.062
-0.104
-0.068
-0.084
0.053
0.119
0.173
-0.019
0.026
-0.005
0.111
-0.017
-0.073
0.150
0.287
0.027
-0.290
-0.396
-0.081
0.060
0.164
0.406
0.283
-0.056
-0.222
-0.141
-0.117
0.142
0.089
0.092
0.047
-0.189
0.119
0.157
0.129
0.045
-0.064
0.062
-0.074
-0.034
-0.071
0.099
-0.207
-0.266
0.257
0.744
0.351
-0.098
0.107
-0.352
-0.730
-0.483
0.572
0.850
0.018
-0.030
0.070
-0.061
-0.158
-0.117
-0.161
0.211
0.045
0.112
0.132
0.065
-0.104
0.005
0.052
-0.058
0.155
-0.067
-0.096
0.055
0.164
0.000
-0.010
0.050
0.021
0.013
0.273
0.092
0.080
0.033
0.029
-0.206
-0.213
0.150
0.339
0.250
0.076
-0.036
-0.227
-0.070
0.075
0.100
0.021
0.086
-0.065
0.044
0.255
0.233
-0.003
-0.057
-0.114
-0.126
-0.323
-0.150
0.500
0.537
0.302
0.015
-0.373
-0.386
-0.042
0.136
-0.167
-0.087
0.317
0.297
-0.035
-0.044
0.024
-0.142
-0.063
0.013
-0.097
0.108
0.033
-0.054
0.055
0.261
0.203
-0.128
-0.459
-0.292
0.282
0.055
0.005
0.386
0.200
-0.066
-0.050
-0.108
-0.057
-0.058
-0.027
-0.049
0.154
0.172
0.045
0.022
0.057
0.165
-0.006
-0.044
-0.127
-0.032
0.007
-0.160
-0.041
-0.067
-0.067
0.136
0.292
0.178
-0.140
0.051
0.027
-0.261
-0.040
0.241
0.016
0.116
-0.102
0.064
-0.025
-0.019
0.014
-0.036
-0.010
-0.079
0.047
-0.022
0.061
0.106
0.005
-0.041
-0.025
-0.089
-0.129
-0.214
0.454
0.612
0.232
-0.070
-0.296
-0.243
-0.011
0.067
0.201
0.073
0.000
-0.017
-0.007
0.102
0.013
0.034
-0.099
-0.203
0.127
0.089
-0.196
-0.444
0.190
0.444
0.027
0.009
-0.063
0.004
-0.098
0.201
0.180
-0.034
-0.115
-0.058
0.032
0.071
0.105
0.029
0.211
-0.122
-0.087
-0.065
0.002
0.205
0.148
-0.343
-0.337
0.009
0.349
0.134
0.166
0.059
-0.043
0.006
-0.127
-0.144
0.062
0.071
0.080
0.165
0.074
-0.382
0.038
0.234
0.279
-0.014
-0.191
-0.330
-0.127
0.397
0.674
0.115
0.055
-0.273
-0.216
0.123
0.111
-0.021
-0.028
0.025
0.048
0.149
-0.031
-0.008
-0.026
-0.155
-0.053
0.016
0.025
-0.072
-0.123
0.149
0.182
0.416
0.114
0.083
-0.229
-0.374
-0.135
0.034
0.123
0.407
0.376
0.129
-0.165
-0.073
-0.090
-0.091
-0.013
0.156
0.105
0.226
0.305
-0.263
-0.476
-0.097
0.394
0.413
0.053
-0.052
-0.025
-0.129
-0.006
-0.012
-0.055
-0.238
0.118
0.190
0.130
-0.007
0.100
-0.038
0.105
-0.091
-0.065
-0.039
-0.197
-0.144
-0.327
0.096
0.562
0.607
0.119
0.037
-0.415
-0.467
-0.261
0.317
0.362
0.301
0.099
0.072
0.025
-0.000
-0.105
-0.210
-0.187
0.018
0.081
0.027
-0.043
-0.088
0.048
0.044
0.050
-0.040
0.017
0.113
0.029
0.100
-0.040
-0.081
-0.039
-0.001
0.232
0.058
0.004
0.091
0.009
-0.127
-0.033
-0.053
0.022
0.043
0.194
0.125
0.100
0.078
-0.166
-0.114
0.055
-0.073
0.226
0.267
-0.279
-0.427
0.079
0.459
0.073
0.011
-0.034
-0.008
-0.023
0.005
0.055
-0.087
-0.011
0.182
0.095
0.189
0.026
0.149
-0.025
-0.127
-0.272
-0.036
-0.283
-0.370
0.159
0.757
0.494
0.036
-0.231
-0.330
-0.224
-0.003
0.150
0.318
0.143
-0.213
-0.060
0.217
0.254
0.109
0.006
-0.392
-0.148
0.046
0.244
0.045
0.001
-0.106
0.027
0.011
0.079
0.021
0.028
0.063
0.055
0.072
-0.040
-0.075
-0.005
0.074
0.083
0.015
-0.168
0.087
0.071
0.124
-0.107
-0.072
0.163
0.030
-0.082
0.067
-0.025
0.164
0.123
0.114
-0.180
-0.494
-0.033
0.404
0.128
-0.105
0.128
0.146
0.067
-0.139
-0.046
-0.319
-0.420
0.134
0.691
0.409
0.274
0.029
-0.322
-0.232
0.054
0.085
-0.068
0.052
0.138
0.065
0.014
-0.034
-0.140
0.093
-0.217
-0.086
0.137
-0.014
-0.125
-0.052
0.181
0.013
0.235
0.029
-0.088
0.009
0.001
-0.137
0.245
0.274
-1.248
-2.928
-0.798
1.165
1.175
0.839
0.247
-0.641
-0.780
-0.461
-0.266
0.127
0.252
0.309
0.305
0.588
0.546
0.066
-0.345
-0.127
0.119
0.010
-1.115
-3.481
-4.173
-4.229
-1.084
3.191
4.397
4.652
1.891
-2.596
-4.022
-4.312
-1.524
2.469
4.065
4.389
4.356
4.184
4.004
3.732
2.402
0.744
-0.772
-2.204
-2.900
-3.191
-3.170
-2.875
-2.319
-1.776
-1.203
-0.643
-0.239
0.038
0.380
0.401
0.463
0.398
0.395
0.226
0.224
0.224
0.245
0.194
0.249
0.285
0.300
0.315
0.411
0.394
0.453
0.532
0.473
0.474
0.567
0.573
0.579
0.466
0.415
0.560
0.504
0.363
0.278
0.111
0.573
0.438
0.194
0.216
0.336
0.383
0.255
-0.188
-0.381
-0.139
0.109
0.495
0.232
-0.109
-0.249
-0.284
-0.222
-0.143
-0.069
-0.186
-0.185
-0.163
-0.075
-0.161
-0.159
-0.202
-0.610
-0.553
0.059
0.269
0.124
-0.286
-0.548
-0.417
-0.204
0.038
-0.247
-0.479
-0.316
0.301
0.409
-0.333
-0.279
-0.103
-0.053
-0.413
0.023
0.214
-0.072
-0.060
-0.038
0.037
-0.003
0.162
0.042
0.151
0.143
0.155
-0.057
-0.039
0.040
0.118
0.119
0.257
0.358
0.058
-0.296
-0.599
0.050
0.207
0.337
0.439
0.267
-0.046
-0.141
-0.021
-0.052
0.026
0.026
0.130
0.137
0.022
0.064
0.056
0.148
0.033
-0.007
0.006
-0.058
-0.119
0.061
-0.094
0.112
-0.262
-0.311
-0.104
0.519
0.608
0.154
-0.083
-0.288
-0.193
0.026
0.092
0.109
0.060
-0.017
-0.098
0.207
0.178
0.208
0.057
0.111
-0.138
-0.545
-0.188
0.177
0.415
0.262
0.138
-0.004
-0.061
0.003
0.055
0.049
0.063
-0.032
-0.024
0.095
0.182
0.166
0.197
0.031
-0.099
-0.166
-0.045
-0.065
-0.165
0.105
0.078
0.126
0.165
-0.075
-0.074
-0.144
-0.060
0.007
-0.033
-0.087
0.096
0.004
-0.010
-0.062
-0.075
-0.164
-0.025
-0.120
-0.040
-0.008
-0.085
-0.049
-0.129
0.006
-0.041
-0.166
0.004
-0.042
0.066
-0.025
-0.068
0.001
-0.102
-0.237
-0.218
0.267
0.493
0.201
-0.037
-0.141
-0.025
-0.039
0.266
0.020
0.009
0.105
0.171
-0.101
0.053
0.078
-0.084
-0.068
0.151
0.316
0.129
0.099
-0.275
-0.028
0.078
0.257
0.145
-0.043
0.228
0.179
0.091
0.096
0.023
-0.020
-0.045
0.043
0.034
-0.063
0.079
0.080
-0.133
-0.213
0.026
0.322
0.016
-0.172
-0.019
0.005
0.035
0.055
0.059
-0.105
0.071
0.033
-0.003
-0.000
0.018
0.044
-0.107
-0.083
-0.008
0.081
0.141
0.025
0.082
-0.049
-0.052
-0.038
-0.067
-0.060
0.004
-0.011
0.070
-0.037
-0.153
-0.101
-0.075
0.046
-0.280
-0.248
0.087
0.486
0.324
-0.059
-0.139
-0.122
-0.015
-0.007
-0.301
-0.156
0.341
0.585
0.174
0.093
-0.214
-0.029
-0.074
0.000
-0.109
-0.065
0.070
0.115
0.098
0.244
0.090
0.062
0.076
-0.089
0.166
-0.088
0.021
-0.063
0.112
0.097
0.122
0.036
-0.303
-0.138
0.024
0.245
0.073
-0.041
-0.091
0.089
0.109
0.116
0.067
-0.003
-0.012
0.010
0.249
0.197
-0.059
-0.201
-0.198
-0.061
-0.067
0.196
0.221
0.022
-0.063
-0.284
-0.008
0.197
0.076
-0.139
-0.088
0.107
0.065
0.146
0.103
0.100
0.118
0.025
-0.298
-0.312
-0.266
0.497
0.535
0.192
-0.204
-0.379
-0.234
0.038
0.240
0.334
0.236
-0.353
-0.627
0.154
0.485
0.261
-0.064
-0.146
-0.066
-0.191
-0.052
0.116
-0.051
-0.129
0.047
0.273
0.144
0.168
-0.005
-0.100
0.004
0.070
-0.005
0.007
-0.026
0.020
0.000
0.057
0.055
-0.073
-0.044
0.049
0.113
0.115
0.064
-0.031
-0.085
-0.003
0.073
-0.181
-0.161
0.125
0.285
0.093
0.014
0.010
-0.058
0.198
-0.069
-0.251
0.002
0.101
0.116
0.025
0.030
0.002
-0.092
0.002
0.081
0.027
-0.080
-0.055
0.040
0.038
0.065
0.048
0.060
0.078
0.025
-0.303
-0.447
-0.096
0.593
0.555
0.309
-0.143
-0.425
-0.250
-0.073
0.108
0.088
0.076
0.246
0.023
0.007
-0.011
-0.125
-0.022
0.022
-0.042
-0.006
-0.016
-0.018
-0.042
-0.042
0.113
0.206
0.189
-0.100
-0.122
0.170
0.351
-0.201
-0.311
-0.124
0.044
0.312
0.364
0.089
-0.069
-0.183
-0.256
-0.099
0.230
0.278
0.163
0.010
0.030
-0.056
0.081
-0.001
0.017
-0.071
0.009
-0.008
0.008
-0.033
0.036
0.000
0.002
0.009
0.074
-0.045
0.090
0.059
-0.101
0.044
0.251
0.091
0.021
0.167
0.056
-0.112
-0.150
0.099
0.119
0.067
0.057
0.052
-0.053
0.020
0.040
-0.171
-0.117
-0.041
-0.153
0.111
0.612
0.451
0.057
-0.167
-0.243
-0.156
-0.034
0.065
0.251
0.101
-0.055
0.136
-0.015
0.068
-0.039
-0.114
0.043
-0.057
-0.100
-0.080
0.034
0.047
0.004
0.013
0.037
-0.058
0.038
0.144
0.177
-0.062
0.032
-0.095
-0.298
-0.316
0.186
0.492
0.174
-0.162
-0.081
-0.044
-0.055
0.039
0.090
0.091
0.044
-0.135
0.053
0.238
0.031
-0.152
-0.028
0.123
0.153
0.069
0.067
-0.174
-0.059
0.152
0.179
-0.149
-0.164
0.017
-0.123
-0.047
0.187
0.372
0.114
-0.417
-0.421
0.125
0.324
0.390
0.140
-0.292
-0.293
0.015
0.197
0.033
0.053
-0.024
0.016
0.265
0.131
-0.085
-0.194
-0.218
0.065
-0.042
-0.019
0.061
0.101
-0.002
-0.030
0.002
0.080
0.023
0.083
0.003
0.023
0.057
-0.081
-0.009
-0.010
0.030
0.026
0.117
0.116
0.226
-0.070
-0.425
-0.492
0.209
0.608
0.200
0.105
-0.095
-0.149
-0.141
-0.023
0.120
0.126
0.008
0.003
0.091
-0.001
0.009
0.154
0.073
0.083
-0.051
-0.005
-0.230
0.007
0.169
0.109
-0.016
0.006
-0.011
-0.249
-0.363
0.050
0.665
0.280
-0.117
-0.118
-0.086
-0.105
-0.004
0.192
0.038
0.009
0.053
0.003
0.046
0.103
0.034
-0.037
-0.032
-0.076
0.070
-0.004
0.080
0.146
-0.192
-0.258
-0.023
0.116
0.156
0.195
0.209
0.064
-0.126
-0.010
-0.182
-0.025
0.139
0.291
0.086
-0.005
-0.014
0.109
0.037
-0.146
-0.023
-0.112
-0.131
0.112
0.139
0.268
0.251
-0.026
-0.058
0.163
-0.183
-0.299
-0.205
-0.065
0.221
0.341
0.117
-0.089
-0.039
0.068
-0.107
0.006
-0.077
-0.011
0.164
0.096
0.128
0.259
0.097
-0.391
-0.523
-0.115
0.578
0.294
0.005
-0.175
-0.146
-0.329
-0.293
0.136
0.505
0.351
-0.150
-0.084
0.113
-0.008
-0.043
0.056
0.133
0.002
0.013
0.169
-0.091
0.029
-0.006
-0.063
-0.013
-0.116
-0.027
0.057
0.091
-0.012
-0.017
0.111
0.108
0.098
-0.084
0.006
-0.041
0.083
0.036
-0.095
0.011
0.030
0.091
0.012
0.002
-0.091
0.035
-0.029
0.142
0.089
-0.107
-0.152
0.164
-0.017
-0.177
0.057
0.079
0.174
0.093
0.117
-0.010
0.038
-0.181
-0.054
0.015
0.033
0.025
0.009
0.159
-0.037
0.046
-0.136
0.053
0.014
0.036
-0.058
-0.218
0.061
0.165
0.127
0.013
-0.098
-0.029
-0.181
-0.180
0.039
0.532
0.390
0.059
-0.085
-0.185
-0.192
-0.049
0.071
0.056
0.053
0.134
0.081
-0.094
-0.066
0.004
-0.071
-0.158
0.043
0.065
0.122
0.116
0.219
-0.225
-0.283
-0.236
-0.070
0.229
0.515
0.234
0.113
-0.348
-0.682
-0.361
0.470
0.658
0.120
-0.211
-0.128
0.045
0.056
-0.208
-0.341
-0.176
0.202
0.182
0.310
0.080
-0.052
-0.114
-0.103
-0.200
-0.080
0.279
0.238
0.175
0.070
0.039
-0.041
0.061
0.116
-0.119
0.031
-0.022
-0.017
-0.135
-0.004
-0.158
-0.518
-0.939
-0.899
0.256
0.789
0.623
0.333
0.092
-0.040
-0.205
-0.165
0.090
0.215
0.138
0.055
0.165
0.875
0.775
0.280
-0.104
-0.376
-0.232
-0.144
-0.243
-0.056
0.017
-0.158
-0.021
-0.034
-0.041
-0.210
-0.010
-0.077
0.063
0.024
-0.120
-0.008
0.193
0.197
-0.036
-0.233
0.166
0.203
0.091
0.056
0.140
0.001
-0.031
-0.139
0.049
0.332
0.204
0.000
0.013
-0.098
0.017
0.105
0.083
0.029
0.133
0.140
0.125
-0.227
-0.433
0.058
0.478
0.215
-0.099
0.128
0.014
-0.038
-0.069
0.035
-0.004
0.161
0.026
0.160
0.222
0.105
0.025
-0.176
-0.318
-0.147
-0.109
0.023
0.317
0.215
0.141
-0.126
-0.094
-0.150
0.037
-0.123
0.052
0.063
0.139
0.191
-0.008
0.033
-0.133
-0.152
0.009
-0.337
-0.224
0.274
0.577
0.409
0.052
-0.732
-0.619
0.182
0.386
0.191
0.135
0.062
-0.065
0.131
-0.032
-0.159
0.019
0.122
-0.065
0.156
-0.091
-0.231
0.070
-0.015
0.182
-0.029
0.025
0.099
0.055
-0.010
0.011
-0.032
-0.099
-0.105
0.125
0.112
0.100
-0.025
-0.173
-0.163
0.231
0.252
-0.084
-0.083
0.034
0.082
0.051
0.088
-0.017
0.006
0.097
0.008
0.124
-0.029
0.051
0.042
0.077
0.099
-0.060
-0.543
-0.221
0.311
0.524
0.066
0.018
0.041
-0.212
-0.181
0.095
0.155
0.212
-0.079
0.012
-0.033
-0.150
-0.168
-0.186
-0.026
0.774
0.623
0.081
-0.184
-0.361
-0.390
-0.108
0.188
0.284
0.176
-0.046
0.007
0.192
0.084
-0.096
-0.054
-0.158
0.003
0.072
-0.044
-0.126
0.020
0.106
0.015
0.040
0.032
0.120
0.117
-0.152
-0.143
0.056
0.260
0.067
0.075
-0.103
0.014
-0.036
-0.120
0.110
0.057
0.016
0.189
0.155
0.113
-0.173
-0.422
-0.122
-0.071
0.154
0.385
0.183
-0.034
-0.034
-0.219
-0.177
-0.010
0.196
0.101
0.172
0.076
-0.037
0.122
0.048
0.028
0.152
0.038
-0.338
-0.458
-0.395
0.133
0.329
0.533
0.449
0.123
-0.349
-0.507
-0.167
0.139
0.090
-0.035
0.263
0.297
-0.111
-0.189
0.070
0.192
0.112
-0.016
-0.034
-0.352
0.075
0.330
0.106
0.003
-0.056
0.054
0.089
-0.014
0.020
0.058
0.025
0.024
-0.006
-0.160
-0.028
0.106
0.115
0.054
0.069
-0.054
0.038
-0.038
-0.112
0.205
0.090
-0.159
-0.075
0.152
0.217
0.110
0.072
-0.004
-0.213
-0.075
-0.007
0.152
-0.184
-0.194
0.054
0.226
0.180
-0.006
0.007
0.017
0.020
-0.058
-0.038
0.055
0.276
0.170
-0.392
-0.595
-0.209
0.543
0.683
0.530
-0.043
-0.268
-0.407
-0.197
-0.171
-0.006
0.316
0.257
0.222
0.133
0.029
0.020
-0.065
-0.105
-0.156
-0.035
-0.034
0.100
0.166
0.171
0.119
0.122
-0.217
-0.271
-0.216
-0.103
0.028
0.383
0.287
-0.031
0.001
-0.106
0.059
-0.038
-0.103
0.051
-0.083
0.110
0.170
0.075
0.118
0.074
0.116
0.002
-0.078
-0.018
-0.047
-0.012
0.073
0.021
-0.059
-0.017
-0.050
0.067
0.163
0.172
-0.147
0.047
0.004
-0.006
0.024
0.032
0.074
-0.036
0.006
0.042
0.028
-0.324
-0.081
0.275
0.415
0.542
0.290
-0.497
-1.111
-0.367
0.540
0.545
0.426
0.171
0.105
-0.183
-0.213
-0.084
0.001
0.015
0.064
-0.081
0.021
0.165
0.146
0.043
-0.117
-0.145
0.022
0.143
-0.043
0.165
-0.007
-0.202
-0.061
0.194
0.191
-0.048
-0.032
-0.045
0.096
-0.053
0.143
0.011
0.057
0.008
0.105
0.006
-0.119
-0.083
-0.029
0.043
0.195
-0.039
0.108
-0.026
-0.182
0.013
0.068
-0.025
-0.054
0.041
0.213
0.033
0.046
0.042
0.001
-0.024
0.072
-0.003
0.019
-0.090
0.045
0.122
0.015
-0.282
-0.219
0.498
0.619
0.267
-0.170
-0.571
-0.203
-0.036
0.044
0.197
0.017
0.018
0.256
0.256
0.058
0.138
-0.372
-0.687
-0.297
0.383
0.592
0.030
0.008
0.018
-0.011
-0.115
-0.087
0.064
0.073
0.071
-0.034
0.307
0.041
-0.283
-0.119
0.233
0.216
0.086
0.011
-0.062
-0.005
-0.049
-0.055
0.062
-0.080
0.061
0.008
0.033
0.083
0.087
-0.075
0.096
0.048
0.058
-0.067
0.019
-0.074
0.001
0.047
0.019
-0.022
0.068
-0.009
0.038
0.075
0.123
-0.100
-0.305
0.004
0.380
0.409
0.183
-0.175
-0.279
-0.142
-0.083
0.131
0.331
0.116
0.083
-0.011
-0.010
-0.127
-0.024
-0.127
0.045
-0.048
-0.109
0.103
0.019
-0.099
0.019
0.177
0.175
-0.023
-0.030
0.037
0.000
-0.137
0.333
0.187
-0.166
-0.015
0.008
-0.014
0.008
0.081
0.051
0.213
0.187
-0.423
-0.501
0.048
0.603
0.151
0.045
-0.111
-0.165
-0.165
0.165
0.087
0.175
0.158
0.115
0.131
-0.052
-0.402
-0.239
-0.062
0.099
0.470
0.135
-0.093
0.042
-0.034
-0.049
-0.059
0.170
0.031
-0.232
-0.069
0.245
0.252
0.233
0.103
0.016
-0.149
-0.173
0.034
0.197
0.095
-0.009
-0.085
-0.326
-0.328
0.088
0.758
0.356
-0.023
-0.176
-0.310
-0.199
