-0.121
-0.179
-0.064
0.017
0.194
0.147
0.187
0.300
0.128
0.121
-0.026
0.029
-0.030
-0.161
-0.018
-0.052
0.014
0.069
-0.031
0.059
-0.010
-0.024
0.026
-0.056
0.056
0.006
0.045
0.106
-0.026
0.020
0.048
0.054
0.041
-0.003
0.032
-0.126
0.014
-0.022
0.044
0.097
0.079
-0.015
0.124
0.070
-0.010
0.047
-0.053
0.020
0.039
0.071
-0.013
-0.007
-0.050
0.057
-0.035
0.129
0.159
-0.030
0.016
-0.052
0.140
0.042
-0.035
0.020
0.144
0.050
0.060
0.087
0.074
-0.130
0.000
0.059
0.089
0.005
0.034
-0.053
0.127
-0.076
0.052
0.002
-0.044
0.096
0.001
-0.103
-0.051
0.089
0.203
0.216
0.241
0.084
-0.094
0.041
0.098
0.059
0.036
0.021
0.076
0.148
0.150
0.018
0.000
-0.119
-0.076
-0.046
-0.124
-0.096
-0.059
0.059
-0.012
0.065
-0.038
-0.013
-0.013
0.036
-0.046
0.098
0.127
0.147
0.035
-0.043
-0.072
-0.067
0.093
0.047
-0.015
0.138
0.191
0.083
0.018
0.076
0.090
-0.006
0.102
-0.070
0.055
0.156
-0.117
-3.140
-0.746
2.321
2.790
1.627
0.132
-0.735
-1.134
-0.956
-0.514
0.061
0.426
0.706
1.016
1.109
0.746
0.732
0.471
0.283
-0.032
-0.198
-0.288
-0.357
-0.557
-0.325
-0.376
-0.162
-0.164
-0.171
-0.035
0.015
0.134
0.325
0.445
0.203
0.145
0.159
0.183
0.079
0.235
0.158
0.150
0.192
0.167
0.131
0.164
0.028
0.217
0.202
-0.069
0.063
0.159
0.074
0.182
0.219
0.093
0.066
0.215
0.131
0.193
0.222
0.167
0.098
0.160
0.134
-0.033
0.169
0.117
0.231
0.155
0.056
0.088
0.060
-0.061
0.085
-0.067
0.013
0.085
0.057
0.041
0.104
-0.056
-0.003
-0.036
-0.008
-0.066
0.042
-0.070
-0.101
0.019
-0.009
-0.025
-0.010
-0.127
-0.068
-0.036
-0.095
0.078
-0.151
-0.031
0.041
0.035
-0.157
-0.085
-0.078
-0.087
0.052
0.052
-0.044
-0.017
-0.102
-0.117
0.067
-0.043
-0.018
-0.070
0.017
0.168
-0.029
0.051
-0.003
-0.024
0.039
0.099
-0.019
0.061
0.073
-0.011
0.098
-0.061
-0.019
-0.261
0.078
0.081
-0.211
-1.342
-1.538
-0.115
-0.301
-0.626
-0.075
0.327
0.491
-0.190
-0.558
-0.726
-0.378
0.258
0.261
0.499
0.160
-0.330
0.275
0.976
0.859
0.910
0.538
0.179
-0.051
-0.066
-0.002
0.189
0.243
0.643
0.694
0.359
0.206
0.018
-0.134
-0.294
-2.056
-1.043
0.151
0.441
0.178
-0.160
-0.443
-0.494
-0.283
-0.102
-0.174
-0.014
0.019
0.223
0.219
0.335
0.447
0.383
0.423
0.104
0.169
0.063
0.046
-0.011
-0.089
-0.090
-0.038
-0.025
0.146
0.158
0.183
0.076
0.247
0.291
0.277
0.073
0.103
0.216
0.257
0.285
0.256
0.222
0.127
0.167
0.226
0.214
0.114
-0.032
0.169
0.123
0.172
0.069
-0.018
-0.059
0.081
0.063
0.019
0.131
-0.029
-0.063
-0.018
-0.003
-0.103
-0.006
-0.158
0.091
0.002
-0.087
-0.129
-2.482
-3.139
0.584
2.564
2.234
0.824
-0.142
-0.836
-0.784
-0.702
-1.755
-0.388
1.451
1.717
1.379
0.880
0.276
-0.051
-0.230
-0.384
-0.331
-0.060
0.044
-0.558
-0.375
-0.046
0.172
0.103
0.059
-0.133
-0.036
-0.054
-0.162
-0.054
-0.061
0.015
0.014
0.129
0.113
0.079
-0.285
-0.165
-0.209
-0.117
0.095
-0.001
-0.075
0.158
0.146
-0.015
0.059
0.042
0.066
0.227
0.260
0.078
0.296
0.191
0.190
0.196
0.146
0.113
0.133
0.219
0.154
-0.134
-0.057
-0.401
-0.609
-0.204
0.591
0.667
0.424
0.263
-0.047
-0.081
-0.144
-0.085
0.070
0.029
0.209
0.310
0.117
0.263
0.077
0.016
-0.124
-0.172
-0.148
-0.179
-0.237
-0.183
-0.043
-0.018
-0.209
-0.022
-0.080
-0.022
-0.176
-0.383
0.041
0.295
0.329
0.134
-0.091
-0.151
0.027
0.206
0.263
-2.706
0.265
2.126
1.910
1.000
0.103
-0.271
-0.655
-0.455
-0.103
0.071
0.398
0.633
0.622
0.598
0.596
0.279
-0.146
0.078
-0.077
-0.142
-2.510
-2.297
0.503
1.546
1.254
0.772
-0.550
-1.312
-0.839
-0.227
0.381
0.835
0.906
0.273
-0.366
0.400
0.701
0.753
0.499
0.103
-0.080
-0.108
-0.142
-0.264
-0.193
-0.171
-0.080
0.016
0.050
0.183
0.477
0.269
-0.001
0.106
0.236
-0.456
-0.432
0.127
0.516
0.694
0.331
0.180
-0.037
-0.195
0.113
-1.124
-0.180
0.721
0.880
0.462
0.072
0.132
0.048
-0.056
0.062
0.134
0.162
0.239
0.053
0.124
0.006
0.046
-0.117
0.120
0.104
0.046
0.009
-0.043
0.039
-0.054
-0.064
-0.014
-0.232
0.014
-0.033
0.094
-0.221
-0.172
-0.111
-0.189
-0.070
-0.045
-0.038
0.026
0.076
-0.051
-0.214
-0.077
-0.082
0.144
-0.117
-0.275
0.077
0.215
0.256
0.284
0.026
-0.025
-0.019
-0.104
0.046
-0.045
0.052
0.108
-0.123
-0.572
0.491
0.567
0.269
0.121
-0.257
-0.209
-0.234
-0.448
0.096
0.397
0.522
0.272
0.037
-0.406
-0.365
-0.212
0.012
-0.000
0.260
0.135
-0.203
-0.153
0.012
0.011
-0.001
0.276
0.164
0.156
0.124
0.083
-0.002
0.117
0.112
0.201
0.318
-2.419
-1.486
0.753
1.674
1.202
0.185
-0.451
-0.602
-0.516
-0.247
0.027
0.368
0.481
0.609
0.527
0.386
0.350
0.178
0.116
0.021
-0.036
0.010
-0.064
-0.055
-0.079
-0.036
-0.149
-0.081
-0.109
0.040
0.015
0.138
0.086
-0.068
0.017
-0.081
0.065
0.028
0.065
-0.071
-0.008
0.047
-0.024
-0.029
-0.039
-0.010
0.051
-0.053
0.029
0.182
-0.016
0.059
-0.086
0.029
-0.100
0.068
0.064
-0.044
0.023
0.008
0.001
0.048
-0.103
-0.002
0.176
0.053
-0.021
-0.115
0.062
0.010
0.093
0.046
0.084
-0.012
0.071
0.038
0.057
0.062
-0.036
-0.026
-0.073
0.143
0.086
0.130
0.074
-0.128
-0.039
0.088
0.048
-0.008
0.012
0.024
-0.066
0.048
-0.236
-0.058
0.005
0.023
0.215
0.213
0.161
-0.127
-0.087
-0.207
-0.043
-0.035
0.124
0.062
0.122
0.104
0.003
0.003
-0.012
-0.025
-0.010
-0.003
-0.042
-0.006
-0.107
0.072
-0.027
0.053
-0.001
0.034
-0.321
0.089
0.163
0.328
0.154
0.042
-0.022
-0.037
-0.216
0.013
0.169
0.080
0.034
0.079
0.093
0.021
0.033
0.011
0.035
0.052
-0.016
-0.008
-0.146
-0.045
0.092
0.134
0.006
0.028
0.037
-0.025
0.023
0.042
0.168
-0.118
-0.010
0.032
0.079
0.021
-0.029
0.000
0.048
-0.027
-0.071
0.043
0.083
-0.016
0.013
-0.036
0.021
-0.024
-0.010
-0.032
-0.008
0.034
0.081
-0.191
0.073
-0.037
-0.558
-0.197
0.256
0.579
0.390
0.147
-0.160
-0.069
-0.060
0.019
-0.048
-0.102
0.197
0.479
0.496
0.146
0.040
-0.043
-0.038
-0.160
-0.646
-1.342
-0.478
0.758
0.915
0.656
0.134
-0.194
-0.323
-0.387
-0.245
0.051
0.409
0.351
0.289
0.295
0.312
0.197
0.124
0.126
-0.253
-0.101
-0.060
0.002
0.090
-0.073
-0.002
0.026
-0.129
-0.018
-0.025
0.106
0.075
0.065
-0.012
0.055
0.062
0.158
0.028
-0.006
-0.034
-0.016
0.119
0.087
-0.043
-0.071
0.024
0.078
0.020
-0.017
-0.005
0.231
0.015
0.012
0.134
-0.048
-0.145
-2.667
-2.637
1.703
3.240
1.983
0.357
-0.646
-0.838
-1.382
-1.200
-0.195
0.504
0.923
1.076
0.931
0.616
0.382
0.231
0.090
0.013
-0.151
-0.315
-0.075
-0.124
-0.120
0.012
-0.088
0.026
0.034
-0.046
-0.030
-0.045
-0.052
-0.021
0.080
-0.012
-0.060
-0.108
-0.090
-0.035
0.027
-0.035
-0.030
0.049
0.098
0.162
-0.007
0.057
0.053
0.074
0.058
0.083
0.194
0.073
-0.028
0.035
0.168
0.179
0.093
0.154
0.139
0.111
0.083
-0.067
0.157
0.127
0.176
-0.020
0.074
0.109
0.144
0.068
0.070
0.143
-0.019
0.114
0.044
-0.022
0.062
0.044
0.006
0.058
0.050
0.083
-0.046
0.110
-0.063
0.044
0.047
-0.040
-0.110
0.026
0.056
-0.053
-0.114
0.103
0.020
-0.144
0.059
-0.047
0.022
-0.042
0.045
-0.057
0.003
-0.004
0.124
-0.004
0.031
-0.047
-0.018
-0.002
-0.010
-0.077
-0.085
0.122
0.021
0.040
0.055
-0.027
-0.030
0.024
0.032
0.073
0.107
-0.108
-0.012
0.123
0.076
0.042
-0.062
0.057
0.149
0.064
0.048
0.022
-0.058
0.140
0.071
-0.018
0.048
0.058
-0.075
0.068
0.068
0.025
0.152
0.099
0.079
-0.026
-0.076
-0.036
0.184
-0.084
0.071
0.050
0.038
0.020
-0.015
-0.052
0.062
0.021
0.010
0.028
0.051
-0.037
0.120
-0.028
-0.009
0.096
0.032
-0.024
-0.102
0.031
0.079
0.132
0.068
-0.010
0.083
-0.087
0.093
-0.016
0.120
-0.138
0.094
0.017
0.154
-0.010
0.071
-0.028
0.032
0.117
0.120
-0.075
0.073
0.026
-0.030
-0.044
0.164
0.139
0.035
-0.036
0.125
0.042
0.182
0.018
0.143
-0.306
-1.262
-0.084
0.485
0.677
0.546
0.271
-0.060
-0.232
-0.245
0.044
0.125
0.093
0.160
0.331
0.227
0.245
0.091
0.087
-0.080
0.067
-0.041
-0.125
-0.117
-0.213
-0.086
-0.066
0.031
-0.056
-0.066
0.060
0.008
0.050
0.055
0.078
0.090
0.046
-0.002
-0.031
0.054
-2.538
-2.508
0.919
2.140
1.874
1.177
0.190
-0.631
-0.704
-0.382
0.013
0.361
0.806
0.987
0.970
0.855
0.689
0.531
0.158
0.069
-0.155
-0.464
-0.263
-0.372
-0.245
-0.370
-0.201
-0.212
-0.090
-0.126
0.005
-0.022
0.044
-0.080
0.188
0.046
-0.056
0.095
0.064
-0.024
-0.046
-0.001
0.083
0.158
0.150
0.090
0.037
0.079
0.131
0.044
0.015
0.199
0.107
0.035
0.127
0.153
0.141
-0.050
0.096
0.160
0.118
0.114
0.041
-0.009
0.133
0.246
0.124
0.023
0.004
0.082
0.022
0.034
0.025
0.004
-0.030
-0.011
0.114
0.005
-0.116
-0.104
-0.114
-0.013
0.114
-0.013
-0.081
0.026
-0.083
-0.109
-0.004
-0.036
-0.051
0.069
-0.154
-1.630
-3.643
-0.978
3.017
4.097
3.211
0.390
-2.199
-2.161
-1.003
-0.037
0.537
1.274
1.462
1.845
1.917
1.691
1.228
0.804
0.406
0.019
-0.387
-0.475
-0.811
-0.718
-0.698
-0.838
-0.660
-0.400
-0.359
-1.591
-1.986
-0.647
0.398
0.898
0.674
0.505
0.144
0.009
-0.170
0.083
0.206
0.500
0.583
0.848
0.840
1.015
0.863
0.636
0.446
0.564
0.353
0.309
0.234
0.053
0.107
0.134
0.011
0.025
0.024
0.066
0.038
0.063
0.152
0.051
0.088
-0.016
0.064
-0.002
-0.055
-0.067
-0.124
0.009
-0.033
0.014
-0.162
0.064
-0.136
-0.100
-0.096
0.003
-0.044
0.047
0.164
0.123
0.042
0.028
-0.123
-0.075
0.019
0.070
0.104
-0.101
-0.124
-0.081
0.051
0.017
-0.020
-0.197
-0.335
-0.966
-0.620
0.413
0.478
0.361
0.110
-0.004
-0.196
-0.136
0.011
0.135
0.134
0.283
0.304
0.229
0.174
0.140
0.094
0.000
0.002
-0.097
0.036
-0.066
-0.079
-0.028
-0.065
0.114
-0.042
0.051
0.102
0.003
0.001
0.081
-0.050
0.054
0.054
0.029
0.051
-0.025
-0.064
0.045
-0.079
-0.053
0.015
0.087
0.152
0.138
-0.006
0.066
0.116
-0.019
0.100
0.043
-0.010
0.114
-0.057
-0.016
0.048
0.031
0.011
-0.227
-0.055
0.110
-0.147
-0.098
-0.161
-0.274
-0.178
-0.199
-0.145
-0.120
0.075
0.204
0.094
0.139
0.068
0.161
0.106
0.197
0.023
0.151
0.079
0.183
0.082
0.123
0.204
0.155
0.062
-0.042
-0.003
-0.002
-0.028
0.015
0.103
-0.108
0.138
-0.058
0.088
-0.147
0.044
0.022
-0.158
0.047
-0.028
-0.089
-0.048
-0.026
-0.052
0.008
-0.179
-0.041
0.348
0.296
0.134
0.047
0.105
-0.001
-0.059
0.055
0.110
-1.567
-0.676
0.889
0.960
0.550
0.149
-0.142
-0.089
-0.352
-0.062
0.006
0.102
0.173
0.229
0.356
0.245
0.241
0.152
0.076
-0.032
-1.905
-3.312
0.443
3.109
2.538
1.064
-0.306
-1.439
-0.753
-0.131
0.236
0.558
0.716
0.717
-0.270
-1.379
-0.367
1.093
1.528
1.196
0.405
-0.144
-0.701
-0.689
-0.515
-0.042
0.115
0.350
0.435
0.473
0.595
0.413
0.260
0.014
-0.012
-0.160
-0.201
-0.314
-0.141
-0.185
-0.209
-0.171
-0.212
-0.006
-1.840
-1.113
1.090
1.463
0.702
0.104
-0.784
-1.022
-1.898
-0.307
0.738
1.502
0.419
0.141
0.248
0.302
0.084
0.351
0.402
0.201
0.474
-0.077
0.423
-0.457
-0.031
0.474
0.530
0.478
-0.151
-0.441
-0.350
-0.243
-0.189
-0.189
-0.170
0.029
0.198
0.448
0.241
0.089
0.155
0.046
-0.140
-0.253
-0.083
-0.008
0.067
0.029
0.061
0.027
-0.188
-0.183
0.090
0.098
-0.019
-0.034
0.003
0.014
0.165
0.196
0.157
0.202
0.163
0.229
0.017
0.037
0.076
0.077
-0.006
-0.047
-0.060
0.067
0.071
0.010
0.006
0.106
0.142
0.053
0.027
0.151
0.055
0.077
0.127
0.118
0.066
-0.032
0.122
0.077
-0.028
-3.040
-0.159
3.106
3.136
1.633
0.069
-1.023
-1.222
-0.901
-0.310
0.196
0.623
0.844
0.927
0.940
0.725
0.198
-0.363
-0.355
0.101
0.171
-0.071
-0.441
-0.578
-0.374
-2.016
-3.115
-0.043
1.685
1.596
0.929
0.146
-0.171
-0.111
-0.141
0.012
0.218
0.437
0.251
0.112
0.316
0.814
1.036
0.944
0.084
-0.556
-0.430
-0.148
-0.012
-0.098
-0.077
-0.008
0.031
-0.024
0.088
0.161
0.217
0.184
0.207
0.206
0.178
0.130
0.165
-0.003
-0.014
0.091
0.093
0.035
0.049
-0.077
0.015
0.042
-0.034
0.076
-0.010
0.005
-0.111
0.075
0.047
0.045
0.005
-0.010
-0.053
0.029
0.082
0.056
0.367
0.277
0.167
0.058
-0.154
-1.034
-0.443
0.212
0.391
0.298
0.434
0.317
0.122
-0.103
-0.105
-0.087
0.033
0.075
0.167
0.195
0.272
0.280
0.197
0.056
-0.006
-0.087
-0.051
-0.150
-0.012
-0.190
-0.065
-0.036
0.033
-0.048
-0.054
-0.023
-0.006
0.133
-0.764
-1.664
-1.830
-0.098
0.935
1.157
0.633
0.109
-0.251
-0.376
-0.077
-0.068
0.056
0.471
0.648
0.716
0.640
0.705
0.459
0.212
0.126
0.077
-0.068
-0.236
-0.207
-0.234
-0.282
-0.337
-0.110
-0.196
-0.155
-0.097
0.012
-0.066
-0.018
-0.148
-0.197
-0.031
-0.059
0.038
-0.045
0.028
-0.049
-0.053
0.220
0.207
0.128
0.066
0.068
0.005
-0.027
0.152
0.119
0.201
0.232
0.198
-0.077
0.051
0.071
-0.037
0.069
0.085
0.061
-0.025
0.024
0.090
0.063
0.155
-0.122
-0.318
-0.030
-0.060
0.092
0.480
0.322
0.076
-0.005
-0.159
-0.385
-0.300
0.009
0.276
0.456
0.479
0.295
0.056
0.061
-0.054
0.169
0.179
0.164
0.149
0.086
0.142
0.025
0.076
-0.119
-0.034
0.011
0.064
-0.074
-0.091
-0.163
-0.090
-0.087
-0.027
-0.035
-0.057
0.003
-0.076
-0.053
-0.116
-0.178
-0.064
-0.035
-0.133
0.160
0.217
0.188
0.076
0.083
-0.070
-0.093
0.049
0.018
0.136
-0.091
0.146
0.162
0.050
0.074
0.076
-0.125
-0.098
-0.115
0.029
-0.102
0.068
0.027
0.011
-0.072
0.068
0.168
0.008
0.015
-0.007
0.149
0.130
0.087
0.112
-0.082
0.040
0.020
0.088
0.035
0.092
0.025
0.022
0.116
0.023
0.048
0.015
-0.091
-0.076
0.014
0.108
-0.022
-0.022
0.167
0.127
-0.079
-0.003
-0.005
0.057
0.019
0.097
-0.011
0.025
0.027
-0.006
-0.009
-0.010
-0.105
0.106
0.126
-0.086
-0.037
-0.016
-0.003
0.110
0.070
0.003
-0.061
0.021
0.085
0.081
-0.020
0.125
-0.039
-0.017
-0.046
0.007
0.002
0.032
-0.036
0.103
0.001
-0.035
0.112
0.086
0.003
0.006
-0.138
0.051
0.096
0.062
0.004
0.039
-0.043
0.150
0.180
-0.055
-0.055
-0.082
-0.062
0.015
-0.130
0.020
-0.070
-0.008
0.041
0.022
-0.034
0.003
-0.049
0.013
-0.117
-0.072
0.065
0.122
0.104
0.062
0.100
0.035
0.228
-0.014
0.012
-0.029
0.143
0.082
0.005
0.048
0.013
-0.066
-0.052
0.090
-0.060
-0.047
0.034
0.029
-0.042
0.155
-0.086
-0.080
0.032
-0.066
-0.001
0.048
0.048
0.049
0.010
0.062
0.034
0.049
0.030
0.029
-0.044
0.024
-0.033
0.108
0.066
0.087
0.112
-0.027
-0.051
-0.128
0.038
0.030
0.156
0.208
0.089
0.061
-0.047
-0.178
-0.247
-0.045
-0.027
0.312
0.235
0.196
0.010
0.042
-0.053
-0.081
-0.040
0.027
-0.037
0.059
0.210
0.224
0.059
0.101
-0.041
0.012
-0.061
-0.102
-0.016
-0.039
0.091
0.008
0.108
0.007
-0.096
-0.026
0.065
-0.103
-0.034
-0.118
-0.143
-0.143
-0.106
-1.566
-2.342
2.541
2.198
-1.847
-0.414
0.413
1.077
0.523
-0.248
-0.124
0.464
0.871
1.531
1.860
0.582
2.531
3.127
2.787
1.778
0.805
-0.728
-1.579
-0.812
-0.453
-0.849
-1.081
-1.295
-1.784
-1.175
-0.325
0.258
0.330
0.292
0.223
0.176
0.218
0.296
0.358
0.522
0.448
0.448
0.517
0.478
0.348
0.510
0.454
0.678
0.590
-0.984
0.278
1.053
1.135
0.778
0.505
0.343
0.131
-1.027
-0.735
0.462
1.161
1.146
0.675
0.606
0.376
0.004
-0.004
-0.026
-0.083
-0.230
0.379
0.103
-0.739
0.028
0.673
0.539
0.334
-0.106
-0.357
-0.494
-0.487
-0.404
-0.174
-0.065
0.258
0.123
-0.020
-0.038
0.075
0.015
-0.039
-0.157
-0.154
-0.219
-0.205
-0.174
-0.363
-0.132
-0.137
-0.171
-0.236
-0.164
-0.099
-0.178
-0.030
-0.047
-0.005
-0.100
0.011
-0.003
-0.042
0.078
0.123
-0.103
-0.225
0.134
0.013
0.116
0.054
-0.138
0.036
0.250
0.154
0.187
0.032
0.074
-0.039
0.022
0.017
0.032
0.076
0.276
0.167
-0.012
0.023
0.061
0.024
0.069
0.149
0.283
0.368
0.218
-0.095
-0.046
0.205
0.121
-0.094
-0.026
0.264
0.302
0.144
-0.031
-0.080
-0.095
-0.141
0.019
0.079
0.061
-0.054
-0.082
0.060
-0.073
-0.042
0.021
0.028
0.015
0.022
0.058
0.035
0.092
-0.149
-0.094
0.015
-0.053
0.166
0.161
0.006
0.129
0.155
0.175
0.029
0.120
0.195
0.076
0.092
0.107
0.114
0.117
0.156
0.118
-0.209
0.018
0.079
0.075
0.069
-0.109
0.016
-0.091
0.009
-0.037
-0.142
0.071
-0.070
-0.230
-0.242
0.056
-0.056
-0.067
0.011
-0.136
-0.081
0.065
0.001
-0.134
-0.043
0.094
-0.108
-0.037
0.063
-0.022
0.116
0.048
-0.046
0.048
0.012
-0.009
-0.022
0.050
-0.065
-0.081
0.060
0.120
-0.191
0.008
0.021
-0.001
0.109
-0.026
0.041
0.028
0.090
0.007
0.019
0.112
0.061
-0.005
0.082
0.031
0.101
0.002
0.025
0.076
0.092
0.118
0.086
0.016
-0.065
0.113
0.118
0.070
0.070
0.056
0.129
0.128
0.018
0.043
0.183
0.018
-0.052
0.054
0.045
0.119
0.028
-0.057
0.114
0.067
-0.016
0.052
0.185
-0.032
0.129
0.056
-0.055
0.105
0.009
0.086
0.070
-0.116
0.100
-0.034
-0.064
0.005
-0.057
-0.019
0.078
-0.087
-0.005
0.057
0.019
-0.037
0.061
-0.079
0.021
0.035
-0.014
0.018
0.016
0.051
-0.173
0.077
-0.031
-0.039
0.141
-0.004
0.084
-0.065
0.076
0.073
0.049
-0.042
-0.039
-0.017
0.013
0.029
0.112
0.092
0.047
-0.015
0.290
0.015
0.069
-0.161
-0.428
-0.625
-0.193
-0.380
0.111
0.513
0.541
0.282
0.106
0.179
-0.098
-0.059
0.127
0.327
0.448
0.497
0.399
0.288
0.253
0.301
0.150
-0.054
-0.316
-0.240
0.059
-0.056
-0.251
-0.144
-0.446
-1.942
-0.614
0.412
0.993
0.644
0.044
-0.132
-0.253
-0.345
-0.233
0.324
0.450
0.473
0.001
-0.453
-0.088
-0.043
0.455
0.861
0.525
-0.048
-0.516
-1.006
-0.012
0.538
0.501
0.393
0.023
0.172
0.151
0.190
0.101
-0.258
-0.174
0.157
0.301
-0.358
-1.517
-0.425
0.287
0.448
0.065
-0.047
-0.253
-0.208
-0.173
-0.025
0.116
0.162
0.382
0.285
0.353
0.335
0.258
0.372
0.316
0.195
-0.064
-0.042
-1.025
-0.740
0.395
0.218
0.253
-0.156
-0.076
-0.163
0.024
-0.103
-0.087
0.135
0.184
0.278
0.042
0.138
0.087
-0.005
-0.232
-0.454
0.037
0.789
-0.220
-0.183
-0.043
0.225
0.214
0.262
-0.058
-0.131
-0.239
0.175
0.324
0.093
0.023
0.257
-0.317
-0.527
-0.076
0.162
0.314
0.146
-0.177
-0.354
-0.258
0.009
-0.038
0.183
0.012
0.213
0.191
0.274
0.285
0.240
0.139
0.149
0.079
0.164
0.128
-0.012
-0.081
-0.191
-0.038
-0.039
-0.047
0.004
-0.062
-0.107
0.061
-0.074
0.019
0.077
0.003
0.052
0.053
-0.068
0.214
0.226
0.130
0.014
0.029
0.024
0.067
0.148
-0.014
0.112
0.009
0.228
0.055
-0.041
-0.204
0.075
-0.275
-0.021
0.052
-0.071
-0.033
-0.088
0.011
-0.009
-0.035
-0.077
0.015
0.073
0.046
-1.100
-1.626
-0.056
0.434
0.607
0.466
0.350
0.154
-0.047
-0.217
-0.314
-0.123
0.189
0.582
0.558
0.508
0.467
0.273
0.283
0.229
0.037
-0.145
-0.035
-0.180
-0.080
-0.003
-0.069
-0.097
-0.170
-0.102
-0.105
-0.099
-0.114
-0.017
-0.062
-0.163
-0.049
0.001
-0.094
-0.112
-0.026
0.038
-0.123
-0.160
-0.031
0.100
-0.050
-0.110
-0.040
0.047
-0.075
0.113
0.104
0.074
0.013
-0.061
0.053
0.111
0.086
0.062
0.140
0.253
0.136
0.010
0.037
0.055
0.063
0.135
0.184
0.173
0.128
0.119
-0.048
0.169
0.080
0.108
0.012
0.110
-0.036
-0.237
-0.379
-0.084
0.159
0.322
0.240
-0.037
-0.152
0.057
-0.049
-0.123
-0.016
0.025
0.198
0.048
0.079
0.203
0.043
0.141
-0.002
0.016
0.057
0.014
0.061
-0.127
0.017
-0.101
0.107
-0.145
-0.065
-0.031
-0.024
0.009
-0.055
-0.046
0.016
0.010
-0.089
0.043
-0.024
0.096
0.152
-0.088
-0.072
0.072
0.037
-0.014
-0.022
-0.078
0.123
0.070
-0.027
-0.072
0.113
0.078
-0.013
-0.077
0.054
0.206
0.110
-0.111
0.062
0.037
0.109
0.118
0.050
0.013
-0.018
-0.051
0.042
-0.038
0.080
-0.015
-0.024
0.029
-0.060
-0.105
0.106
0.055
-0.046
-0.083
-0.108
-0.044
0.041
0.067
-0.001
0.086
0.054
0.072
0.139
-0.008
-0.005
0.023
-0.182
0.156
-0.053
0.038
0.128
-0.033
0.074
0.091
0.044
-0.045
0.097
-0.038
0.015
-0.060
0.056
0.084
-0.004
0.036
0.007
0.009
0.004
-0.067
0.072
0.003
0.089
-0.031
0.146
0.011
-0.066
0.035
0.001
0.057
0.043
-0.060
0.111
-0.005
0.037
0.037
0.154
-0.004
0.006
-0.007
0.035
0.003
-0.121
0.070
0.057
0.050
0.090
0.022
0.021
-0.035
0.061
0.017
0.080
0.063
0.082
-0.126
-0.042
0.071
0.055
-0.047
-0.037
0.047
-0.014
0.044
0.029
0.018
0.037
-0.101
0.037
-0.013
-0.058
0.157
-0.056
-0.048
0.055
-0.056
0.161
-0.017
-0.033
-0.090
0.007
0.042
0.111
0.032
-0.010
0.028
-0.013
0.054
-0.132
-0.009
0.145
0.090
0.121
0.035
0.049
-0.042
0.037
0.057
0.082
-0.011
0.027
0.064
0.009
-0.103
0.032
0.042
0.066
0.024
-0.042
0.081
0.101
0.137
-0.017
-0.071
-0.069
0.045
-0.046
0.057
0.179
0.133
-0.127
-0.037
0.067
-0.086
-0.061
0.022
0.068
0.126
0.003
0.091
0.013
-0.057
-0.009
0.002
0.063
0.158
-0.031
-0.056
0.080
0.013
0.030
0.015
0.151
0.008
-0.018
-0.103
-0.244
-0.038
0.037
0.040
0.088
0.039
-0.046
-0.097
0.017
-0.045
0.075
0.090
-0.077
0.170
0.101
0.091
-0.057
0.096
-0.052
0.005
0.101
-0.039
0.114
0.089
-0.078
-0.023
0.016
0.034
0.083
-0.017
0.030
0.006
0.084
0.049
-0.001
0.105
0.089
0.073
0.027
-0.009
-0.119
-0.141
0.048
0.136
-0.037
-0.020
0.043
-0.042
-0.056
-0.001
-0.124
0.121
0.258
0.129
0.214
0.204
-0.058
-1.134
-0.222
0.242
0.525
0.390
0.150
-0.122
-0.088
-0.150
-0.086
0.001
0.023
0.198
0.064
0.043
0.044
0.133
0.145
0.116
0.023
0.058
-0.013
0.059
-0.166
0.006
0.055
-0.033
0.079
-0.118
0.041
0.047
-0.028
0.009
0.037
0.058
0.015
-0.024
0.055
-0.007
0.055
0.010
0.037
-0.011
0.051
-0.044
0.007
0.069
0.026
0.159
0.117
0.032
-0.167
0.005
0.206
0.281
0.367
0.024
-0.113
-0.007
0.111
0.048
0.141
-1.125
-0.444
0.507
0.409
-0.096
0.004
0.206
-0.056
-0.032
-0.466
-0.251
-0.309
0.135
0.347
0.415
0.280
0.336
0.231
-0.159
-0.348
-0.189
0.184
0.217
0.127
0.071
-0.028
-0.041
-0.045
-0.044
0.057
0.073
0.020
-0.020
-0.052
0.055
0.067
0.057
0.211
0.003
-0.092
0.088
0.012
-0.088
0.001
-0.161
0.001
-0.004
0.100
-0.025
0.036
-0.078
-0.044
0.017
-0.013
0.020
-0.064
0.112
0.127
0.275
-0.025
-0.350
-0.208
0.024
0.156
0.136
0.165
0.086
0.310
0.155
-0.021
-0.264
-0.455
-0.251
0.057
0.350
0.371
0.235
0.079
-0.152
-0.165
-0.051
-0.106
0.095
-0.022
0.166
0.122
0.106
-0.005
0.115
-0.027
-0.007
0.090
0.112
0.025
-0.053
-0.026
0.022
0.013
0.027
-0.075
0.092
-0.069
0.099
0.047
0.098
0.108
0.110
-0.101
0.057
-0.109
-0.043
-0.010
0.148
0.060
0.047
-0.024
0.045
0.047
0.074
0.016
-0.046
0.048
-0.055
0.149
0.166
0.092
-0.057
0.083
0.014
-0.026
0.031
-0.045
0.054
0.012
0.087
0.062
-0.114
0.097
0.032
-0.066
0.066
0.161
0.205
0.033
-0.011
-0.004
-0.115
0.280
0.088
0.094
0.157
0.063
-0.025
-0.096
-0.021
0.051
-0.068
-0.094
0.012
-0.010
0.090
-0.088
-0.129
0.049
0.164
-0.061
-0.044
0.079
0.092
0.072
0.028
0.016
0.080
0.062
0.079
-0.027
0.033
0.054
-0.109
0.145
-0.031
0.043
0.100
0.054
-0.038
0.024
0.003
-0.164
0.033
0.006
0.049
0.128
0.087
-0.024
-0.053
0.035
0.068
-0.103
0.054
0.042
-0.001
0.019
-0.009
0.034
0.050
0.084
-0.137
-0.038
0.072
0.027
-0.082
-1.380
-3.024
-1.642
0.706
1.749
1.492
0.455
-0.193
-0.548
-0.591
-0.245
0.183
0.405
0.712
1.017
1.198
0.835
0.533
0.299
0.182
0.070
-0.148
-0.178
-0.214
-0.282
-0.335
-0.309
-0.221
-0.057
-0.305
-0.262
-0.221
-0.061
-0.116
-0.127
0.102
0.069
-0.072
-0.094
0.051
-0.122
-0.037
-0.007
-0.035
0.008
0.089
0.110
-0.009
-0.010
0.124
0.134
0.067
0.190
0.225
0.198
0.069
0.115
0.222
0.082
0.116
0.125
0.157
0.163
0.223
0.049
0.158
0.133
0.057
0.072
0.107
0.076
0.182
0.126
-0.016
0.146
-0.067
0.048
0.059
0.142
0.036
-0.156
-0.018
0.126
0.154
0.058
-0.042
0.079
-0.136
-0.083
-0.037
0.083
0.031
-0.076
-0.158
0.026
-0.106
-0.066
-0.027
0.083
-0.016
-0.138
-0.022
-0.157
0.052
0.055
-0.064
0.048
-0.041
0.006
0.068
-0.030
0.042
-0.085
0.024
0.109
-0.012
0.010
-0.004
0.008
0.068
-0.052
0.062
0.128
-0.044
-0.090
0.045
0.051
0.015
-0.038
0.097
-0.007
0.153
-0.072
0.087
-0.039
0.009
-0.070
0.052
0.073
0.071
-0.161
-0.084
0.034
0.002
-0.050
0.052
-0.003
-0.051
-0.034
0.090
0.043
0.030
-0.000
0.106
0.018
-0.054
0.115
-0.454
-3.172
0.068
3.149
3.049
1.332
-0.093
-0.770
-2.556
-2.016
0.323
1.711
1.610
0.434
0.028
0.266
0.458
0.491
0.421
0.341
-0.164
-0.349
-0.291
-0.232
-0.006
0.050
0.202
0.264
0.183
0.139
-0.799
-1.151
0.052
0.606
0.508
0.367
0.128
0.001
-0.189
-0.076
-0.035
-0.069
0.207
0.178
0.119
0.165
0.289
0.224
0.301
0.272
0.185
0.157
0.087
0.054
0.159
0.075
0.124
0.169
0.094
0.119
0.234
0.046
0.205
-0.135
-0.086
-0.045
0.186
0.247
0.119
-0.233
0.023
0.370
-0.335
0.061
0.319
-0.300
-0.401
0.232
0.313
0.359
-0.066
-0.146
0.067
0.077
-0.100
-0.509
0.051
0.327
0.281
0.099
-0.003
-0.194
-0.102
-0.223
-0.136
-0.001
-0.153
-1.467
-1.544
0.068
0.857
0.699
0.257
0.040
-0.361
-0.361
-0.179
0.052
0.174
0.358
0.244
0.352
0.424
0.407
0.296
0.127
0.053
0.089
0.025
0.011
-0.002
-0.064
-0.119
-0.098
-0.002
0.004
-0.003
0.043
-0.054
-0.027
0.057
-0.034
0.012
-0.006
0.048
-0.004
-0.058
0.059
-0.058
0.015
0.015
0.060
0.087
-0.007
-0.028
0.141
0.304
0.267
0.124
-0.026
0.121
0.053
-0.157
0.073
0.220
0.135
0.222
0.015
-0.038
-0.105
-0.113
0.079
0.022
0.004
-0.647
-0.506
0.354
0.441
0.339
0.145
0.031
-0.142
-0.090
0.008
0.062
-0.028
-0.968
-0.264
0.674
0.928
0.618
0.205
-0.085
-0.132
-0.070
0.004
0.026
0.175
0.161
0.264
0.288
0.209
0.092
-0.081
0.023
0.073
-0.155
-0.194
-0.106
-0.057
-0.173
0.101
-0.141
0.052
-0.072
-0.068
-0.052
0.001
0.043
0.049
0.019
-0.067
-0.019
0.027
0.083
-0.043
-0.144
-0.149
0.110
0.059
0.076
-0.154
-0.119
0.143
-0.068
0.101
-0.052
0.019
0.076
-0.045
-0.061
-0.120
0.051
0.052
0.047
0.081
0.098
-0.051
-0.086
0.076
0.120
-0.029
0.052
0.017
-0.038
0.116
0.081
0.013
-0.047
0.089
0.041
0.023
0.109
0.003
0.001
0.040
0.064
0.048
0.039
0.039
0.020
-0.058
0.193
0.091
-0.123
-0.011
0.036
-0.000
0.066
-0.073
0.047
0.060
0.058
0.069
0.036
0.022
-0.052
0.122
-0.075
0.069
0.000
0.092
0.131
0.026
-0.026
-0.054
-0.045
-0.002
-0.030
0.130
-0.030
0.091
-0.012
0.036
0.014
0.070
0.093
-0.002
0.046
-0.019
-0.022
0.049
-0.067
0.068
0.092
-0.119
0.103
-0.058
-0.253
-1.783
-3.518
-2.056
0.011
1.301
1.035
0.490
-0.152
-0.381
-0.603
-0.292
0.048
0.635
1.093
1.217
1.210
1.232
1.156
0.852
0.900
0.632
0.394
0.397
0.171
-0.242
-0.296
-0.428
-0.532
-0.442
-0.383
-0.265
-0.307
-0.313
-0.197
-0.152
-0.235
-0.284
-0.123
-0.291
-0.172
-0.158
-0.210
-0.303
-0.172
0.116
-0.069
-0.097
-0.007
0.180
0.208
0.156
0.206
0.217
0.201
0.197
0.273
0.131
0.255
0.299
0.210
0.272
0.159
0.369
0.273
0.086
0.194
0.299
0.339
0.264
0.234
0.216
0.248
0.178
0.130
0.216
0.038
0.165
0.116
0.184
0.006
0.147
0.037
0.091
-0.056
-0.101
-0.001
0.036
-0.077
-0.001
0.004
-0.141
0.034
-0.014
-0.044
-0.176
-0.087
-0.090
-0.148
-0.027
-0.062
-0.018
-0.240
-0.001
-0.113
0.047
-0.094
-0.128
-0.114
-0.111
-0.135
-0.046
0.012
-0.116
-0.031
0.088
-0.005
-0.078
0.073
-0.025
0.083
-0.048
-0.012
0.067
-0.038
-0.078
-0.021
0.120
0.061
0.059
0.023
0.007
-0.104
0.195
0.046
0.057
0.033
0.121
0.152
0.039
0.001
0.061
-0.040
0.055
0.142
0.083
0.010
0.020
-0.010
0.026
0.016
0.084
0.076
-0.042
0.009
0.136
-0.161
-0.092
0.163
-0.011
0.128
0.035
-0.007
-0.117
0.063
0.077
-0.029
-0.033
0.018
0.047
0.045
-0.026
-0.055
0.126
0.014
0.011
0.005
0.052
0.029
-0.056
0.146
0.071
0.117
0.116
-0.027
0.069
0.012
0.093
0.049
-0.020
-0.054
-0.004
0.016
-0.008
-0.112
0.015
0.233
0.206
-0.027
0.111
-0.033
-0.042
0.089
-0.004
0.014
-2.371
-3.814
0.946
3.623
4.234
2.243
-0.342
-2.111
-2.408
-1.766
-0.462
0.635
1.649
2.279
2.363
2.404
2.039
1.425
0.943
0.266
-0.153
-0.669
-0.848
-0.928
-0.908
-1.056
-0.765
-0.524
-0.206
-0.179
-0.113
-0.030
0.111
0.184
0.167
0.109
0.123
0.393
0.315
0.121
0.279
0.263
0.293
0.272
0.263
0.248
0.410
0.324
0.374
0.307
0.290
0.485
0.323
0.292
0.364
0.366
0.373
0.358
0.403
0.305
0.606
0.603
0.343
0.297
0.287
0.320
0.250
0.257
0.304
0.212
0.106
0.173
0.162
0.009
-0.071
-0.167
-0.105
-0.038
-0.067
-0.235
-0.199
-0.073
-0.100
-0.068
-0.206
-0.120
-0.010
-0.036
-0.189
-0.037
-0.190
-0.036
-0.100
-0.069
-0.107
-0.061
-0.035
-0.148
-0.047
-0.045
-0.030
-0.063
-0.133
-0.093
-0.001
-0.063
-0.013
-0.031
-0.023
-0.101
-0.056
-0.057
0.077
0.079
0.051
-0.006
0.055
-0.103
0.042
-0.009
-0.022
0.031
0.127
0.073
-0.078
-0.029
-0.058
0.109
0.142
0.006
0.064
0.060
0.034
0.037
0.125
-0.069
-0.011
0.071
0.078
-0.003
-1.252
-1.440
-3.503
0.016
3.444
3.662
1.501
-0.257
-1.187
-1.377
-2.049
0.003
-0.827
-0.756
1.031
2.426
2.262
1.461
0.616
-0.071
-0.545
-0.518
-0.685
-0.274
-0.071
-0.031
0.209
0.128
0.197
0.294
0.084
-0.047
0.095
-0.041
-0.038
-0.208
-0.183
-0.044
-0.243
0.090
-0.095
-0.106
-0.022
0.038
0.155
0.083
0.132
0.134
0.458
0.392
-0.395
0.136
-0.225
-0.081
0.190
0.346
0.275
0.197
0.279
0.190
0.203
0.237
-0.195
-0.615
0.036
0.328
0.444
0.326
0.109
0.038
-0.029
0.278
0.329
0.302
0.125
0.030
-0.064
0.138
0.120
0.115
0.132
0.181
0.036
-0.016
-0.347
-0.653
-0.396
-0.402
-0.062
-0.072
-0.167
0.047
-0.178
-0.216
-0.005
0.189
0.229
0.153
0.102
0.163
0.165
0.250
0.235
0.260
0.091
0.059
0.104
0.089
-0.082
-0.136
-0.094
-0.047
-0.108
0.037
-0.148
-0.125
-0.012
0.001
0.023
-0.114
0.119
0.079
0.042
0.025
0.106
0.146
0.017
0.106
-1.294
-3.481
-1.245
1.829
2.330
1.440
0.388
-0.252
-0.766
-0.500
0.048
0.338
0.560
0.930
0.898
1.091
0.880
0.805
0.500
-0.526
-2.350
-0.605
0.597
0.481
-0.078
-0.470
-0.765
-0.737
-0.602
-0.220
-0.019
0.263
0.156
-0.395
-0.093
0.563
0.558
0.473
0.291
0.170
0.102
-0.095
-0.142
-0.171
-0.367
-0.093
0.007
0.088
-0.033
0.243
0.206
0.136
0.027
0.008
0.061
0.055
0.038
0.032
0.083
-0.074
0.205
0.022
0.079
0.236
0.160
0.187
0.097
0.045
0.059
0.187
-0.006
0.108
0.166
0.078
0.053
-0.014
0.028
0.047
0.019
0.149
0.080
0.013
0.039
-0.092
0.068
0.080
-0.095
0.033
-0.013
-0.007
-0.021
0.126
0.009
-0.041
-0.140
0.056
0.009
0.071
-0.221
-0.114
-0.002
0.108
-0.141
-0.022
-0.041
0.133
-0.077
-0.118
0.038
0.097
-0.044
0.014
-0.034
-0.022
-0.034
0.023
0.025
0.006
0.178
-0.036
0.069
-0.131
0.009
0.120
0.017
-0.057
0.050
-0.035
0.070
0.107
-0.045
0.073
0.021
0.057
0.060
-0.011
-0.025
0.102
0.265
0.328
0.299
0.141
0.048
-0.002
-1.060
-0.947
-0.087
0.594
0.594
0.396
0.040
-0.165
-0.293
-0.205
-0.200
-0.003
0.157
0.154
0.149
0.314
0.091
0.234
0.162
0.173
-0.035
0.142
-0.003
-0.118
-0.168
-0.055
0.012
-0.066
0.026
0.087
-0.089
0.012
-0.005
0.078
0.131
0.004
-0.066
-0.055
0.133
-0.071
-0.123
0.034
0.171
0.219
0.269
0.141
0.138
-0.048
0.081
-0.013
0.186
-0.015
-1.595
-0.475
0.410
0.634
0.448
0.040
-0.041
0.071
-0.098
-0.250
0.001
0.120
0.203
0.255
0.482
0.394
0.433
0.218
0.045
-0.001
0.111
-0.090
-0.029
0.014
-0.124
-0.147
-0.241
-0.240
-0.299
-0.268
0.065
-1.195
-0.722
0.520
0.973
0.624
0.131
-0.131
-0.208
-0.144
-0.057
0.111
0.310
0.396
0.421
0.260
0.309
0.226
0.076
0.014
-0.042
-0.055
-0.282
-0.769
-3.193
-0.315
-0.932
0.600
1.407
1.240
0.533
-0.143
-0.503
-0.325
-0.164
0.429
0.607
0.780
-0.972
-0.574
1.158
1.826
1.190
0.392
-0.295
-0.685
-0.741
-0.589
-0.755
-0.504
-0.062
0.029
-0.040
0.134
0.310
0.065
-0.082
-0.070
-0.168
-0.242
-0.198
0.244
0.257
0.252
-0.008
0.101
0.029
0.201
0.311
0.282
0.243
0.298
0.127
-0.413
-2.211
-1.787
0.488
1.407
1.201
0.563
-0.035
-0.449
-0.422
-0.275
0.101
0.236
0.695
0.757
-0.191
0.578
0.734
0.631
0.139
0.104
-1.317
-2.523
0.053
1.079
1.209
0.579
0.023
-0.339
-0.543
-1.627
-1.298
0.123
0.912
0.956
0.828
0.445
0.047
0.048
-0.198
-0.151
0.026
-0.019
0.040
0.042
0.162
0.134
0.100
0.151
0.020
0.137
-0.068
-0.081
-0.045
-0.224
-0.117
0.033
-0.067
-0.018
0.050
-0.083
-0.149
0.013
0.109
-0.067
0.008
0.135
0.033
-0.033
-0.063
0.038
0.009
0.067
0.026
-0.131
0.039
0.158
0.021
0.066
0.162
0.196
0.176
0.262
0.277
0.141
-0.051
-0.041
0.193
0.085
-1.001
-0.468
0.631
0.947
0.414
0.184
-0.133
-0.334
-0.225
-0.034
-0.004
0.199
0.192
0.144
0.311
0.300
-0.334
-0.286
0.152
0.327
0.139
0.102
-0.075
-0.170
-0.221
-0.073
-0.102
0.091
0.169
0.112
0.203
0.123
0.032
0.068
-0.240
-0.489
-0.312
-2.947
-1.765
1.016
1.755
1.214
0.309
-0.260
-0.602
-0.469
-0.193
0.188
0.374
0.687
0.928
0.771
0.746
0.617
0.432
0.168
-0.029
0.001
-0.324
-0.256
-0.284
-0.425
-0.318
-0.234
-0.184
-0.263
-0.117
-0.013
-0.007
-0.096
0.056
-0.059
-0.025
-0.153
-0.119
-0.021
0.038
0.037
0.003
-0.022
0.002
-0.080
0.304
0.292
0.122
0.146
0.119
-0.210
-0.141
0.292
0.361
0.329
0.141
0.079
0.058
0.102
-0.009
-0.011
-0.008
-2.178
-1.486
0.527
1.221
0.953
0.379
-0.140
-0.269
-0.154
-0.015
0.269
0.359
0.480
0.418
0.583
0.578
0.657
0.339
0.358
0.145
0.116
-0.014
-0.104
-0.191
-0.300
-0.249
-0.099
-0.137
-0.186
0.027
-0.083
0.017
0.016
0.018
0.104
0.046
-0.121
-0.106
0.000
0.021
-0.006
-0.092
0.113
0.068
0.030
-0.058
0.053
0.041
-0.088
0.019
-0.009
0.072
-0.016
0.000
0.105
0.069
0.036
0.239
0.108
-0.050
-0.036
-0.033
0.137
0.113
0.069
0.047
0.012
0.041
0.077
0.003
0.016
-0.090
0.074
0.023
0.007
0.039
-0.020
0.003
0.078
-0.139
-0.097
-0.131
0.081
0.079
0.045
-0.007
0.064
-0.017
-0.100
-0.023
-0.038
0.140
-0.058
0.016
-0.099
0.082
-0.025
0.027
-0.035
-0.020
-0.091
-0.007
-0.034
-0.009
0.116
0.034
-0.071
-0.031
-0.051
0.158
0.116
-0.030
0.072
0.023
-0.093
0.105
-0.007
0.052
0.089
0.025
-0.013
-0.104
-0.030
0.003
0.076
0.119
-0.034
-0.081
0.045
0.124
0.006
-0.006
0.029
0.040
0.059
-0.016
0.063
0.042
0.074
-0.001
-0.006
-0.009
0.097
-0.008
-0.030
-0.018
0.028
0.101
0.043
0.068
-0.075
0.151
-0.000
-0.041
0.007
-0.021
0.068
-0.177
-0.045
-0.063
0.237
0.016
0.052
0.080
-0.050
0.058
-0.062
0.032
-0.094
-0.028
-0.297
-1.319
-3.527
-2.523
2.383
4.062
4.006
1.820
-0.774
-2.060
-2.190
-1.416
-0.002
1.508
2.365
2.631
2.785
2.307
2.088
1.510
0.898
0.164
-0.220
-0.678
-0.791
-1.171
-1.169
-1.051
-0.956
-0.687
-0.586
-0.409
-0.165
-0.052
0.107
0.281
0.420
0.236
0.153
0.311
0.326
0.379
0.283
0.293
0.378
0.443
0.414
0.297
0.402
0.470
0.363
0.458
0.515
0.456
0.449
0.463
0.469
0.362
0.186
0.235
0.154
0.233
0.440
0.280
0.096
0.201
0.368
0.297
0.209
0.027
0.203
0.102
0.080
0.216
0.122
0.162
0.165
0.095
-0.105
0.047
0.032
0.030
-0.079
-0.243
-0.110
-0.258
-0.137
-0.311
-0.121
-0.243
-0.201
-0.112
-0.219
-0.361
-0.374
-0.669
-0.677
-0.489
-0.405
-0.389
-0.335
-0.412
-0.293
-0.275
-0.197
-0.220
-0.057
0.087
0.059
0.155
0.344
0.331
0.259
0.366
0.352
0.303
0.314
0.198
0.191
0.164
0.188
0.137
0.051
0.068
0.143
-0.074
-0.093
-0.040
0.020
-0.020
-0.005
-0.022
0.108
0.032
0.036
-0.066
-0.024
-0.059
-0.018
-0.002
0.007
0.010
-0.057
-0.054
-0.004
-0.056
0.011
-0.009
-0.017
-0.003
0.077
0.057
0.016
-0.006
0.098
0.014
0.069
0.038
-0.034
0.134
0.038
0.139
0.101
0.068
0.038
0.135
0.077
0.117
0.120
0.065
0.161
0.018
-0.326
-0.522
0.177
0.492
0.548
0.481
0.228
0.044
0.117
-0.047
0.069
0.142
0.242
0.489
0.314
0.236
0.152
0.078
-0.043
0.041
-0.057
-0.094
-0.205
-0.061
-0.110
-0.203
-0.092
-0.020
-0.040
-0.072
-0.093
-0.115
-0.103
0.090
0.108
-0.065
-0.054
0.021
-0.104
0.010
-0.051
0.008
-0.054
0.019
0.030
0.054
0.067
0.048
0.024
0.042
0.136
-0.026
-0.028
-0.004
0.137
-1.757
0.367
1.035
0.880
0.116
0.084
-1.773
-3.595
-0.029
2.798
2.734
1.477
0.138
-0.640
-0.752
-0.555
-0.260
0.243
0.594
0.926
1.050
0.936
0.815
0.537
0.278
0.323
0.028
-0.344
-0.235
-0.419
-0.243
-0.334
-0.335
-0.219
-0.208
0.005
-0.039
-0.051
0.070
0.216
-0.022
0.023
0.020
0.197
0.086
0.222
0.156
0.256
0.097
-0.027
0.140
0.216
0.249
0.407
0.469
0.487
0.262
0.201
0.002
0.246
0.244
0.256
0.292
0.208
0.008
0.149
0.080
0.135
0.070
-0.024
0.041
-0.120
-0.005
0.119
-0.132
-0.036
0.044
-0.089
0.116
0.178
0.036
0.012
0.037
0.073
0.052
-0.007
-0.025
0.024
0.017
0.060
-0.103
-0.034
0.085
-0.117
-0.172
0.019
-0.112
0.099
-0.090
0.008
-0.007
-0.016
0.004
0.022
-0.052
-0.017
0.080
-0.034
-0.055
-0.202
-0.051
0.047
0.046
0.051
-0.046
-0.133
-0.017
-0.161
0.104
-0.036
-0.039
0.016
0.032
0.065
0.018
0.173
0.166
-0.664
-0.004
0.366
-0.542
-0.882
-2.004
0.771
0.448
-1.891
-0.415
0.698
0.864
0.465
0.145
-0.050
-0.096
0.061
0.168
0.690
0.732
0.979
0.941
0.820
0.506
0.253
0.115
0.060
-0.190
-0.248
-0.255
-0.309
-0.365
-0.164
-0.251
-0.328
-0.256
-0.173
-0.295
-0.255
-0.094
-0.188
-0.102
-0.037
0.011
0.012
0.162
-0.014
0.040
-0.096
0.052
0.152
0.183
0.170
0.135
0.043
0.193
0.294
0.063
0.020
0.125
0.195
0.220
0.269
0.167
-0.059
0.035
0.237
0.227
0.076
0.163
0.080
-0.129
-0.178
-0.450
-0.269
0.190
-0.178
-0.219
-0.269
-0.056
0.016
0.098
-0.002
-0.233
-0.052
-0.009
0.173
0.296
0.252
0.014
0.127
0.199
0.234
0.060
0.175
0.101
0.032
0.010
-0.067
-0.086
-0.080
-0.002
-0.328
-0.128
-0.167
-0.089
-0.327
-0.003
-0.141
0.049
-0.046
-0.091
-0.109
-0.001
0.183
0.248
0.043
0.011
0.055
-0.004
-0.161
0.047
0.011
0.014
-2.600
-1.519
1.059
2.190
1.400
0.409
-0.413
-0.590
-0.513
-0.293
0.096
0.409
0.483
0.729
0.831
0.667
0.474
0.271
0.099
0.128
-0.034
-0.015
-0.048
-0.181
-0.210
-0.011
0.009
-0.002
0.057
0.053
0.179
0.160
0.033
0.201
0.153
0.015
0.119
0.200
0.106
0.001
0.214
0.031
0.123
-0.026
0.122
-0.074
0.073
0.098
0.127
0.146
0.013
-0.024
0.039
0.100
0.164
0.112
0.096
-0.039
-0.016
0.021
0.010
-1.080
-0.815
0.403
0.088
0.174
-0.055
-0.230
-0.305
-0.347
-0.327
0.108
0.495
0.420
0.199
0.091
0.024
0.018
-0.040
0.169
0.164
0.150
0.175
0.307
0.058
-0.140
-0.149
-0.115
-0.173
-0.103
-0.256
-0.230
-0.106
-0.139
-0.106
-0.181
-0.098
-0.059
-0.054
-0.159
-0.272
-2.509
-0.588
2.000
2.147
1.054
-0.022
-0.334
-0.551
-0.274
-0.175
0.271
0.547
0.717
0.643
0.347
0.273
0.374
0.103
-0.603
-1.097
-0.269
-0.092
-2.072
-3.142
-0.103
1.868
2.155
1.383
0.304
-0.456
-0.606
-0.337
0.095
0.558
0.976
1.150
1.162
0.006
-1.725
0.748
1.774
1.303
0.464
-0.430
-0.789
-0.987
-0.806
-0.410
-0.160
0.329
0.396
0.510
0.588
0.600
0.502
0.419
0.229
0.071
0.064
-0.059
-0.108
0.147
0.271
0.099
0.001
0.133
0.001
-0.106
0.125
-0.522
-0.669
-0.288
0.327
0.843
0.814
0.154
-0.158
-0.145
-0.219
-0.074
-0.023
0.265
0.256
0.204
0.344
0.365
0.262
0.218
0.075
-0.055
0.038
-0.342
-1.383
0.009
0.462
0.507
-0.112
-0.228
-0.273
-0.295
0.027
0.077
0.079
-0.073
0.078
-0.068
0.080
0.159
0.081
0.196
0.025
0.053
0.070
-0.198
0.204
0.084
-0.145
0.057
-0.031
0.137
0.088
0.079
0.094
0.082
-0.013
0.032
0.059
-0.119
-0.056
-0.145
0.009
-0.029
-0.348
-0.505
-0.205
-0.015
0.293
0.501
0.257
0.028
-0.127
-0.107
-0.165
0.059
0.242
0.193
0.057
0.251
0.154
0.299
0.092
0.134
-0.064
-0.034
-0.058
-0.084
-0.047
-0.131
-0.099
0.010
0.154
0.004
0.075
-0.015
0.072
0.091
0.129
-0.013
0.065
0.042
0.135
0.148
0.069
-0.006
-0.034
0.210
0.044
0.191
0.194
-0.101
-0.019
-0.084
0.046
0.043
-0.031
-0.136
0.001
0.381
0.166
0.029
-0.048
0.009
0.102
0.061
-0.039
0.014
0.202
0.121
0.047
0.119
0.172
-0.088
0.011
0.035
-0.009
0.014
0.005
-0.176
0.017
0.024
-0.039
-0.001
-0.047
-0.099
-0.069
-0.008
0.044
-0.112
0.022
-0.011
0.004
0.040
-0.111
-0.031
-0.076
0.032
0.105
-0.023
-0.045
-0.003
0.027
-0.054
0.087
-0.038
-0.011
0.091
0.009
0.004
0.088
-0.009
0.003
-0.080
0.113
0.065
0.068
0.017
-0.048
0.002
-0.170
0.005
0.067
0.015
0.010
0.108
0.041
0.125
-0.040
-0.045
0.032
0.028
0.026
0.062
0.083
-0.037
-0.077
-0.376
-0.242
-0.349
-0.168
0.099
0.347
0.346
0.253
-0.053
-0.099
-0.003
0.071
0.011
0.150
0.128
0.246
0.146
0.191
0.049
-0.033
0.043
-0.164
-0.090
0.022
-0.037
-0.060
0.063
-0.082
-0.148
-0.020
0.044
-0.027
0.037
0.209
-0.079
-0.018
0.030
-0.101
-0.019
0.045
-0.014
-0.088
-0.085
0.079
0.037
-0.022
0.211
-0.040
0.051
-0.025
-0.001
0.137
0.118
-0.012
0.129
0.029
0.009
0.102
0.061
0.103
0.057
0.040
0.079
-0.007
0.011
0.073
-0.024
-0.003
0.108
-0.055
-0.116
0.128
-0.074
-0.033
-0.054
0.059
-0.014
-0.127
-0.175
-0.357
-0.465
-0.808
-0.993
-0.378
0.755
1.108
0.540
0.074
-0.264
-0.166
-0.229
-0.071
0.169
0.376
0.609
0.467
0.432
0.383
0.169
-0.021
-0.046
-0.136
-0.126
-0.163
-0.070
-0.227
-0.200
-0.206
-0.192
-0.052
-0.109
-0.077
-0.094
-0.000
0.109
0.140
0.017
0.055
0.060
0.117
-0.104
-0.054
0.082
0.058
0.020
0.009
0.056
0.065
0.020
0.149
-0.066
0.030
0.201
-0.088
-0.013
0.032
0.174
0.032
0.076
0.036
0.003
0.127
0.205
0.018
0.051
0.118
-0.011
-0.005
0.062
0.124
0.032
0.058
-0.077
-0.025
0.033
0.101
-0.151
-0.018
0.040
0.034
0.075
0.060
0.043
-0.044
-0.135
-0.019
0.142
0.051
-0.034
0.045
-0.081
-0.050
0.090
-0.010
0.045
-0.058
0.049
0.115
0.017
-0.029
0.066
-0.057
0.128
-0.023
0.045
0.032
0.055
0.011
-0.183
-0.005
-0.108
-0.038
0.216
0.075
0.023
0.015
0.008
-0.038
-0.191
0.027
-0.018
0.104
0.035
-0.036
0.057
0.057
0.054
-0.001
0.001
0.015
0.002
-0.072
0.020
-0.004
0.044
0.089
-0.017
-0.015
-0.077
0.045
0.078
-0.025
-0.011
0.241
0.140
-0.019
0.047
-0.047
-0.095
0.134
0.049
-0.083
0.121
-0.023
-0.097
0.057
-0.034
0.069
0.102
0.046
0.001
-0.037
-0.035
-0.076
0.045
0.028
0.023
0.066
-0.058
-0.057
0.057
0.010
0.024
0.049
0.036
0.034
-0.022
-0.003
0.153
0.163
-0.025
0.070
-0.016
0.099
0.015
0.081
0.081
0.031
0.003
-0.006
0.017
0.129
0.107
-0.002
0.012
0.037
0.038
0.074
-0.085
-0.055
-0.047
0.009
0.171
-0.097
-0.048
-0.065
-0.061
-0.041
0.070
0.014
0.091
-0.039
0.159
0.084
0.058
-0.010
-0.042
0.025
0.086
0.074
-0.069
0.058
-0.045
0.062
0.099
-0.073
0.038
-0.038
0.072
0.121
-0.096
-0.043
0.088
0.022
-0.136
0.017
0.041
0.023
0.031
0.045
-0.084
0.000
0.010
0.051
0.008
-0.014
0.053
-0.049
-0.061
-0.043
-0.012
0.025
-0.006
0.030
0.079
-0.154
-1.398
-1.681
0.764
1.462
0.815
0.287
-0.150
-0.240
-0.193
-0.125
0.152
0.315
0.308
0.344
0.290
0.385
0.216
0.079
0.079
-0.023
-0.103
-0.098
-0.157
-0.244
-0.220
-0.119
-0.135
0.021
0.018
-0.094
-0.061
-0.043
0.012
-0.080
-0.310
-0.037
0.070
0.006
-1.538
-0.147
0.227
-3.025
1.743
3.822
4.379
4.387
0.718
-3.093
-4.312
-3.920
-1.437
1.559
3.685
4.274
4.331
4.230
4.068
3.312
2.098
0.551
-0.755
-1.725
-2.349
-2.539
-2.376
-2.116
-1.744
-1.105
-0.758
-0.297
0.221
0.380
0.577
0.535
0.401
-2.102
-0.271
0.530
0.416
1.527
1.133
0.348
0.411
-0.114
-1.148
-2.961
-0.699
3.626
4.730
3.623
1.618
0.076
-0.505
-0.384
0.185
1.230
1.750
1.947
1.796
1.529
1.299
0.673
0.259
0.150
-0.506
0.006
-0.058
-0.388
-0.718
-0.854
-1.106
-0.855
-0.744
-0.435
-0.140
-0.094
0.035
0.106
0.220
0.133
-0.016
-0.096
-0.092
-0.187
-0.157
-0.183
-0.134
-0.233
-0.144
-0.107
-0.095
-0.053
0.027
0.022
0.137
0.116
-0.015
0.060
0.105
0.104
0.115
0.154
0.140
0.164
0.136
0.171
0.068
0.131
0.149
0.228
0.040
0.242
0.223
0.155
0.241
0.035
0.077
0.203
0.142
0.208
0.199
0.114
0.061
0.080
0.031
-0.062
-0.167
0.023
0.080
0.093
0.038
0.090
0.176
0.105
0.019
-0.072
-0.043
-0.105
-0.122
-0.097
0.262
0.267
0.199
0.079
-0.056
-0.069
-0.378
-1.214
-1.341
-0.170
0.355
0.459
0.254
-0.044
-0.136
-0.276
-0.233
-0.206
0.025
0.234
0.360
0.333
0.447
0.372
0.191
0.347
0.269
0.191
0.013
-0.024
0.105
-0.085
-0.064
0.121
0.020
-0.071
-0.087
0.039
0.141
0.015
0.001
-0.017
0.103
0.039
0.050
-0.040
-0.074
-0.021
0.016
-0.004
-0.069
0.016
0.011
-0.068
-0.114
-0.044
0.026
0.098
0.081
-0.073
0.108
0.186
0.214
-0.087
0.006
-0.039
-0.115
-0.349
-0.809
0.066
0.532
0.416
0.010
-0.075
-0.158
-0.136
-0.135
-0.070
-0.018
-0.079
-0.383
-0.891
-0.493
0.238
0.631
0.572
0.309
-0.037
-0.269
-0.320
-0.199
-0.007
0.134
0.173
0.317
0.426
0.474
0.316
0.235
0.150
0.246
0.020
0.028
-0.020
-0.043
-0.044
-0.052
0.011
0.045
0.012
-0.031
-0.055
0.076
0.082
0.014
0.079
-0.049
-0.039
0.114
0.070
0.089
-0.010
0.066
-0.107
-0.085
0.064
-0.041
-0.052
-0.082
0.021
0.085
0.067
-0.012
-0.036
0.113
0.036
-0.023
0.059
0.182
0.200
-0.018
0.053
-0.095
-0.056
0.016
0.118
0.101
0.050
-0.070
-0.033
0.007
-0.004
-0.013
-0.126
-0.077
0.058
0.075
0.021
0.007
-0.069
0.023
0.044
-0.061
-0.026
0.101
0.118
0.189
0.093
-0.010
0.068
0.136
0.000
-0.060
0.087
0.105
0.010
0.217
0.068
0.029
-0.050
0.051
0.031
-0.055
0.113
-0.036
0.063
-0.034
0.030
-0.059
0.017
0.093
-0.051
-0.035
-0.085
0.081
-1.226
-0.626
0.321
1.013
0.765
0.198
-0.042
-0.159
-0.042
0.018
0.108
0.279
0.172
0.083
0.115
0.128
0.287
0.220
0.168
-0.039
-0.222
-0.218
-0.095
-0.373
-0.170
0.044
-0.003
0.051
-2.421
-1.781
0.178
1.392
1.492
0.765
0.071
-0.418
-0.355
-0.266
0.053
0.341
-0.082
-0.353
0.251
0.587
0.697
0.569
0.392
0.102
-0.071
-0.316
-1.472
-1.442
-0.360
0.436
0.637
0.587
0.250
0.024
-0.045
-0.149
-0.109
0.058
0.148
0.206
0.195
0.298
0.317
0.346
0.121
-0.290
-0.100
0.200
0.273
0.159
-0.303
-0.006
0.025
-0.009
-0.155
-1.072
-1.242
0.078
1.143
0.836
0.308
0.047
-0.220
-0.287
-0.172
0.082
0.069
0.260
0.387
0.292
0.406
0.181
0.119
0.128
-0.023
0.041
-0.072
-0.456
-0.636
0.071
0.430
0.287
0.054
0.023
-0.036
-0.108
-0.041
-0.411
-0.867
-0.714
-0.373
-0.050
-0.082
0.158
0.233
0.163
0.109
0.085
-0.019
-0.052
0.139
0.307
0.405
0.487
0.603
0.562
0.401
0.495
0.290
0.119
0.032
-0.141
-0.112
-0.216
-0.276
-0.319
-0.144
-0.231
-0.266
-0.047
-0.096
-0.028
0.142
-0.062
-0.062
-0.146
-0.282
-0.155
-0.092
0.079
-0.049
-0.068
-0.023
0.030
0.067
0.128
0.019
0.137
0.185
0.092
0.138
0.069
0.101
0.082
0.270
0.168
0.093
0.162
0.203
0.018
-0.030
-0.026
0.071
0.015
-0.088
0.123
0.139
0.098
0.078
0.089
0.016
0.044
0.085
-0.856
-3.230
-0.570
2.103
2.245
1.649
0.556
-0.169
-0.730
-0.543
-0.273
0.220
0.606
0.836
1.038
1.039
0.827
0.644
0.357
0.138
-0.105
-0.285
-0.387
-0.390
-0.368
-0.575
-0.386
-0.179
-0.172
-0.235
-0.020
-0.026
0.034
0.048
-0.038
0.057
0.007
0.032
0.040
0.069
0.116
0.007
-0.007
0.036
0.022
0.195
0.125
0.049
0.115
0.018
0.134
0.254
0.177
0.101
0.141
0.194
0.085
0.004
0.073
0.189
0.147
0.018
0.099
0.180
0.105
0.031
0.074
0.042
0.044
0.091
-0.079
0.002
-0.669
-0.228
0.197
0.404
0.281
-0.372
-0.218
0.081
0.243
0.007
-0.042
0.029
0.170
-0.016
0.134
0.073
0.014
-0.114
0.056
0.194
-0.038
-0.115
-0.283
-0.120
-0.041
-0.147
-0.015
-0.028
-0.232
0.024
0.023
-0.025
-0.107
-0.065
0.017
-0.037
0.008
0.030
-0.045
0.011
-0.058
0.153
0.020
-0.097
-0.038
0.038
0.133
0.098
0.050
0.057
-0.069
0.003
0.122
0.248
0.038
-0.005
0.133
0.006
0.078
0.225
0.045
0.054
-0.011
-0.035
0.092
-0.216
-0.099
-0.013
-0.037
0.174
0.181
0.137
-0.005
0.058
0.026
-0.128
-0.051
0.147
0.018
0.034
0.181
0.121
0.060
-0.039
-0.068
-0.032
-0.049
-0.119
-0.097
-0.726
-2.372
-0.202
1.152
1.212
0.564
-0.114
-0.182
-0.351
-0.158
0.000
0.223
0.339
0.314
0.358
0.282
0.212
0.161
0.116
0.057
-0.100
-0.371
-0.232
-0.138
-0.148
-0.181
-0.148
-0.221
0.050
0.046
-0.027
0.131
-0.098
0.039
0.069
0.085
-0.044
-0.006
-0.009
0.001
-0.012
-0.001
0.010
0.052
0.046
0.128
0.110
0.041
0.104
-0.047
0.161
-0.050
0.218
0.138
0.073
0.017
0.066
0.248
0.020
-0.002
0.038
0.082
-0.006
0.004
0.078
0.038
0.016
0.043
-0.095
0.070
0.010
-0.015
-0.080
0.012
-0.028
-0.045
0.003
0.023
0.077
0.087
-0.027
-0.027
0.094
-0.066
0.026
0.112
0.118
-0.003
0.004
0.033
0.047
0.125
0.095
0.050
-0.017
-0.032
0.060
0.053
0.097
0.132
-0.008
0.130
0.066
-0.071
0.084
0.090
0.214
-0.003
0.063
0.042
0.021
-0.125
0.055
0.088
0.054
0.055
0.035
0.019
-0.117
0.128
0.097
-0.086
0.021
0.095
0.060
-0.004
-0.086
-0.055
-0.001
0.043
-0.009
0.047
-0.016
-0.068
-0.029
0.095
0.007
-0.038
-0.042
-0.023
0.046
0.014
0.027
0.020
-0.068
-0.019
0.014
-0.031
-0.012
0.072
-0.084
0.141
-0.067
0.089
0.088
-0.091
-0.107
0.105
-0.085
-0.012
0.158
0.002
0.025
0.064
0.069
-0.010
-0.043
0.057
-0.018
-0.033
0.077
0.116
0.070
0.031
0.021
0.016
-0.059
0.004
0.072
0.133
0.011
-0.012
0.047
-0.058
0.102
0.006
0.014
0.044
-0.050
0.050
-0.041
-0.083
0.077
0.048
0.040
0.012
-0.058
0.016
-0.051
0.004
0.130
0.015
-0.014
0.219
-0.092
-0.067
0.036
0.033
0.009
-0.006
-0.011
0.098
0.098
0.128
-0.023
-0.195
0.039
0.092
0.021
0.051
-0.012
0.078
-0.060
-0.007
0.099
-0.014
-0.040
-0.154
0.062
-0.105
-0.115
0.071
0.183
0.041
-0.030
-0.027
0.005
-0.046
-0.050
0.089
0.082
0.020
-0.001
0.165
0.090
0.072
0.031
0.154
-0.007
-0.064
0.108
0.027
0.069
-0.045
-0.211
0.016
0.038
0.011
0.041
-0.021
0.004
-0.158
-0.068
-0.048
-0.030
0.064
-0.049
-0.108
-0.055
0.009
-0.103
-2.500
-3.424
1.405
3.131
2.159
0.768
-0.401
-0.943
-2.097
-1.145
0.605
1.242
1.346
0.962
0.643
0.695
0.570
0.260
0.095
-0.016
0.030
-0.014
-0.092
-0.183
-0.166
-0.300
-0.152
-0.121
-0.143
-0.226
-0.112
-0.116
-0.153
-0.008
0.001
-0.115
0.007
-0.046
-0.038
0.049
0.008
0.063
0.004
0.009
-0.040
0.080
-1.634
-3.536
-2.616
2.675
4.270
3.087
0.323
-0.593
-2.449
-3.350
-2.218
0.003
2.249
3.690
4.368
4.490
4.184
3.303
2.017
1.013
0.190
-0.421
-0.853
-1.184
-1.310
-1.284
-1.298
-0.996
-0.855
-0.624
-0.494
-0.318
-0.175
-0.075
-0.003
0.092
0.100
0.251
0.111
0.104
0.239
0.222
0.109
0.352
0.186
0.316
0.396
0.406
0.390
0.380
0.565
0.391
0.483
0.477
0.463
0.258
0.536
0.595
0.340
0.355
0.558
0.426
0.430
0.325
0.311
0.381
0.219
0.204
0.303
0.207
0.081
0.071
0.203
0.017
0.070
0.082
-0.203
-0.317
-0.626
-1.019
-0.543
0.239
0.600
0.440
-0.157
-0.622
-0.571
-0.061
0.053
-0.045
-0.010
0.081
0.083
-0.265
-0.424
-0.191
0.102
0.007
-0.279
-0.308
-0.097
-0.308
-0.519
-0.472
-0.316
-0.220
0.056
-0.030
-0.126
-0.061
-0.071
0.029
0.088
-0.584
-1.455
0.035
0.921
0.972
0.455
-0.161
-0.234
-0.191
0.013
0.063
0.122
0.238
0.324
0.251
0.425
0.121
0.160
-0.014
-0.111
-0.058
-0.106
-0.158
-0.145
-0.089
-0.167
-0.027
0.010
0.051
-0.087
-0.066
0.046
0.044
0.094
0.154
0.176
0.159
0.179
0.115
0.111
0.040
0.119
0.043
0.021
0.083
0.112
0.013
0.013
0.060
-0.085
0.185
0.068
-0.139
-0.016
-0.107
0.093
-0.034
-0.211
-0.096
-0.053
-0.059
-0.036
0.041
0.085
0.067
-0.079
-0.024
-0.016
-0.001
-0.009
0.053
0.048
0.057
0.118
0.027
0.004
0.074
-0.104
0.043
-0.046
0.029
-0.045
0.011
-0.121
-0.284
-0.196
0.034
0.126
0.094
0.149
-0.001
0.003
-0.050
-0.052
-0.074
0.007
0.172
0.115
0.070
0.025
0.107
0.156
0.028
-0.081
-0.042
-0.082
0.042
-0.119
-0.044
0.004
-0.025
-0.029
0.036
0.123
0.115
0.243
0.161
0.136
0.000
0.028
0.111
0.197
0.113
0.128
0.125
0.063
-0.026
0.049
0.079
0.051
0.024
-0.041
-0.125
-0.020
-0.033
0.038
0.080
0.075
0.024
0.109
0.170
0.095
0.041
0.185
0.092
0.178
0.034
0.067
0.139
0.035
0.170
0.128
0.048
0.045
0.163
0.141
0.063
0.166
0.115
0.040
0.119
-0.005
0.078
0.043
0.161
0.068
0.141
0.054
0.112
-0.014
-0.139
0.028
0.010
0.107
-0.147
0.104
0.009
0.039
-0.113
0.020
-0.011
0.031
-0.129
-0.063
-0.127
0.075
-0.065
-0.050
-0.122
-0.047
-0.072
-0.109
-0.052
-0.077
-0.120
-0.078
-0.035
-0.049
-0.043
0.024
0.006
0.075
-0.078
0.009
-0.048
-0.046
0.012
-0.035
0.004
0.032
-0.010
-0.006
-0.001
0.001
-0.113
-0.080
-0.678
0.049
0.665
0.521
-0.267
-0.400
-0.555
-0.495
-2.103
-0.218
1.538
1.629
0.719
-0.007
-0.306
-0.373
-0.176
-1.270
-3.471
-3.167
2.333
4.098
4.349
2.192
-0.525
-1.947
-2.075
-1.119
-0.011
0.826
1.907
2.284
1.960
-2.117
-0.214
2.899
-0.869
-1.478
0.282
1.107
0.346
-0.804
-1.412
-1.373
-0.908
-0.303
0.247
0.774
1.072
1.383
1.059
0.946
0.414
-0.100
-0.335
-0.599
-0.147
-0.238
-2.952
-0.836
0.971
1.036
1.195
0.920
0.374
0.002
-0.032
0.318
0.601
0.679
0.830
-0.094
-0.507
0.568
1.697
1.187
0.458
-0.160
-0.317
-0.204
-0.029
-0.500
-1.298
-1.055
0.244
0.735
1.167
0.993
0.437
-0.062
-0.244
-0.211
-0.007
0.052
0.334
0.417
0.349
0.355
0.393
0.436
0.221
0.129
0.187
0.324
0.323
0.125
-0.079
-0.651
-1.092
-0.556
-0.148
0.124
0.174
0.124
-0.031
-0.158
-0.223
-0.285
-0.261
-0.249
-0.139
-0.042
0.143
0.211
-0.062
0.143
0.093
-0.018
-0.051
0.054
0.057
-0.090
0.002
-0.080
-0.065
-0.062
0.022
0.067
0.042
-0.034
-0.062
0.064
0.038
-0.026
0.051
0.035
0.060
-0.045
-0.070
-0.017
0.126
0.008
0.015
0.010
-0.046
0.137
0.141
0.074
-0.067
0.065
0.199
0.288
0.040
-0.221
-0.131
0.051
0.061
0.079
0.203
0.162
0.017
-0.108
0.083
-0.033
0.033
-0.141
0.179
-0.072
0.099
-0.010
-0.005
0.035
0.006
0.050
0.004
0.021
0.003
0.062
0.008
0.039
-0.052
0.034
0.058
0.011
0.127
0.010
0.047
0.100
0.055
-0.050
0.081
0.219
-0.077
0.126
0.059
0.034
-0.044
0.011
0.165
-0.032
0.152
-0.115
0.048
0.100
0.004
0.136
0.039
-0.058
0.002
0.002
0.004
0.092
0.039
0.006
-0.102
0.034
-0.051
0.059
-0.104
0.007
0.131
0.074
-0.016
-0.181
0.023
0.080
0.024
-0.028
-0.004
0.089
0.054
-0.052
-0.138
-0.069
0.015
-0.020
0.020
0.009
-0.100
-0.056
-0.009
0.133
0.024
-0.157
0.018
0.104
-0.021
0.052
-0.021
-0.013
-0.006
0.004
-0.106
-0.016
0.053
0.005
-0.042
0.055
0.042
0.031
0.036
-0.033
0.102
0.084
-0.090
0.039
0.087
0.045
0.079
0.089
0.094
0.105
0.028
0.002
0.076
0.075
-0.099
0.088
-0.014
-0.069
0.049
0.080
0.040
0.070
0.047
-0.012
0.013
-0.015
-0.025
0.111
-0.051
0.036
0.113
0.078
-0.008
0.061
0.041
-0.067
-0.102
0.036
-0.021
0.040
0.108
0.008
0.029
0.075
-0.039
-0.101
0.037
-0.010
-0.030
0.010
-0.005
0.092
0.180
-0.066
0.003
0.005
0.007
-0.104
-0.035
0.065
0.102
0.068
-0.020
-0.049
0.015
0.031
-0.034
0.072
0.026
-0.006
-0.013
-0.001
0.131
-0.087
0.086
0.005
0.015
0.103
0.070
-0.048
0.065
-0.107
0.097
0.046
0.050
-0.088
0.088
0.009
0.134
0.101
-0.033
0.157
-0.031
0.043
0.058
0.002
0.054
-0.033
0.045
-0.001
0.140
-0.030
0.091
0.028
0.129
0.044
0.048
0.005
0.126
0.009
-0.044
0.002
0.103
0.084
-0.058
0.126
0.018
-0.013
0.102
0.014
-0.062
-0.020
0.015
0.089
0.058
-0.067
0.133
-0.032
-0.001
0.056
0.122
-0.029
-0.053
0.037
0.027
0.019
-0.036
0.092
0.042
0.055
-0.022
-0.041
-0.115
0.093
0.249
-0.008
-0.019
0.097
0.007
0.021
-0.035
0.048
0.078
0.039
0.033
-0.039
-0.064
-0.000
0.072
0.018
-0.045
0.120
0.074
0.075
0.054
-0.113
0.021
0.083
0.016
0.031
0.074
-0.078
0.029
0.044
0.083
-0.125
-0.137
0.049
-0.010
0.092
-0.028
-0.027
0.099
0.047
0.027
0.005
-0.078
-0.076
-0.072
-0.003
-0.005
0.174
0.091
-0.156
-0.065
0.019
0.041
0.064
0.167
0.018
0.073
0.139
-0.226
-0.011
0.146
0.006
0.036
0.000
0.142
-0.004
-0.201
-0.126
0.125
0.126
-0.061
-0.087
0.064
-0.007
0.011
0.036
0.049
-0.014
0.081
0.020
0.043
0.031
-0.009
-0.030
0.029
0.001
0.023
-0.048
0.072
0.100
-0.058
0.112
0.016
-0.052
-0.040
-0.050
0.140
0.104
-0.024
-0.017
0.065
0.122
-0.033
0.007
0.017
0.142
-0.070
0.048
0.013
0.072
0.107
-0.038
0.117
0.203
0.199
0.194
0.102
0.078
-0.072
0.104
0.117
0.072
0.135
0.028
0.031
0.221
0.002
0.092
-0.018
-0.127
0.098
-0.115
-0.115
-0.018
0.112
-0.009
-0.029
0.058
0.041
0.061
0.016
-0.127
-0.021
0.038
0.052
0.101
0.046
0.020
0.021
0.115
-0.112
0.019
0.163
0.090
0.148
0.031
0.057
0.087
0.118
0.004
0.033
-0.019
0.094
0.132
0.003
0.047
0.168
-0.002
-0.036
0.064
-0.086
-0.247
0.078
-0.218
0.019
0.105
0.140
-0.033
-0.037
0.039
0.040
0.030
-0.024
-0.013
0.044
0.171
0.143
0.053
0.032
-0.007
-0.042
-0.003
-0.009
0.084
-0.034
0.020
-0.054
-0.032
-0.050
0.044
-0.080
-0.031
-0.360
-1.512
-3.101
-1.917
0.241
1.272
0.639
-0.360
-0.487
-0.100
-0.078
0.028
0.109
0.349
0.601
0.884
0.961
1.017
0.935
0.942
0.646
0.563
0.415
0.316
-0.232
-0.351
-0.382
-0.364
-0.340
-0.340
-0.407
-0.200
-0.323
-0.307
-0.202
-0.191
-0.198
-0.193
-0.173
-0.025
-0.108
-0.054
-0.068
0.078
0.015
-0.093
0.017
0.038
-0.004
-0.011
0.129
0.012
-0.022
0.049
0.167
0.179
0.097
0.076
0.230
0.011
0.313
0.325
0.140
0.106
0.097
0.196
0.125
0.222
0.178
0.241
0.272
0.134
0.200
0.051
0.075
0.233
0.335
0.319
0.240
0.168
-0.066
0.068
0.117
0.138
0.213
0.102
0.011
-0.043
-0.056
-0.029
-0.089
-0.136
-0.044
-0.227
-0.559
-0.520
-0.213
0.040
0.108
0.108
-0.054
-0.009
-0.136
-0.101
0.056
0.131
0.071
0.109
0.240
0.206
0.146
0.071
0.065
0.123
-0.044
0.074
0.027
0.011
-0.105
-0.178
-0.052
-0.094
0.032
-0.072
-0.086
-0.010
-0.027
0.091
-0.118
-0.003
0.019
-0.070
-0.003
-0.026
0.108
0.012
-0.072
-0.014
0.184
-0.028
0.050
-0.042
0.021
0.088
0.138
-0.102
-0.079
0.044
0.043
0.058
0.079
0.092
0.067
0.076
-0.108
0.024
0.082
-0.010
0.056
0.064
0.141
-0.058
0.081
0.060
0.008
-0.125
0.137
0.138
0.058
-0.016
0.045
0.034
0.007
0.015
0.005
0.081
0.078
0.201
0.039
-0.023
-0.065
0.074
0.027
0.124
-0.050
0.096
0.030
0.031
0.050
0.001
0.017
-0.006
-0.001
0.119
0.036
0.039
-0.037
0.050
0.028
-0.038
0.094
0.152
0.006
-0.012
-0.023
-0.086
0.076
0.033
-0.002
-0.049
0.114
0.061
0.045
-0.041
0.029
-0.024
0.012
0.059
0.034
-0.013
0.016
0.097
-0.031
-0.047
-0.062
-0.177
0.035
-0.051
0.024
-0.031
0.042
0.039
-0.060
0.100
0.005
0.093
-0.128
0.048
-0.015
0.017
0.078
0.058
0.028
0.025
0.011
-0.035
-0.013
0.035
0.101
-0.007
-0.016
0.006
0.023
-0.108
0.096
0.018
0.032
0.115
0.058
0.018
-0.016
0.052
0.082
0.096
0.122
-0.039
0.003
0.114
0.033
0.014
0.109
0.046
0.048
0.040
0.204
0.026
-0.036
0.109
-0.012
0.059
0.012
0.054
0.095
0.066
0.018
0.082
0.041
0.073
0.061
0.096
-0.025
-0.014
-0.081
-0.046
0.084
-0.007
0.049
0.048
0.025
0.007
-0.006
-0.024
0.024
0.027
0.019
0.080
0.140
0.008
0.009
-0.029
0.005
0.000
-0.072
0.119
0.134
0.050
-0.064
-0.049
0.052
0.028
-0.036
-0.021
0.103
0.053
0.065
-0.029
-0.055
0.062
0.158
0.077
0.095
-0.095
-0.129
-0.017
-0.003
0.125
0.071
-0.085
0.001
0.040
-0.059
0.012
0.113
0.065
-0.083
-0.042
0.013
-0.077
-0.008
0.078
0.043
0.127
-0.123
0.050
0.031
0.111
-0.035
0.012
0.038
0.133
-0.001
0.088
-0.041
0.081
0.072
0.115
-0.090
0.043
0.094
0.024
0.078
0.069
0.158
-0.037
0.001
0.029
0.118
0.206
0.187
0.181
0.052
0.005
0.121
0.080
0.002
0.140
0.164
0.045
0.013
0.073
0.052
-0.016
-0.053
-0.009
-0.090
-0.112
-0.076
-0.140
-0.486
-1.177
-0.270
0.168
-0.285
-0.085
0.125
-0.059
0.057
-0.314
-0.415
0.028
0.402
0.794
0.790
0.506
0.379
0.246
0.304
0.352
0.375
0.344
0.431
0.231
0.189
0.104
-0.118
-0.273
-0.215
-0.166
-0.220
-0.270
-0.196
-0.230
-0.150
-0.225
-0.077
-0.092
-0.004
0.029
-0.129
-0.031
-0.432
-0.056
-0.100
-0.149
-0.448
0.391
0.488
0.256
0.062
-0.970
-0.222
0.455
0.459
0.184
-0.424
-1.319
0.484
0.669
-1.730
-0.587
0.454
0.963
1.303
-0.833
-0.239
0.525
0.588
0.366
0.222
0.372
0.511
0.603
0.503
0.644
0.521
0.533
0.244
0.033
-0.138
-0.384
-3.123
-1.753
0.472
1.178
0.943
0.276
-0.481
-0.523
-0.540
-0.167
-0.014
0.275
0.400
0.547
0.610
0.587
0.316
0.349
0.017
-0.094
-0.098
-0.055
-0.342
-0.292
-0.248
-0.197
-0.088
0.012
-0.028
-0.050
0.274
0.104
0.096
0.062
0.128
0.149
0.093
0.079
0.081
0.262
-0.084
-0.369
-2.750
-2.044
1.047
2.188
2.072
1.182
-0.007
-0.465
-0.535
-0.406
0.045
0.519
0.934
1.013
1.042
0.945
0.636
0.451
0.177
-0.001
-0.286
-0.410
-0.419
-0.225
-0.448
-0.403
-0.335
-0.197
-0.049
-0.034
-0.220
-0.074
0.002
0.022
0.074
-2.813
-2.537
0.827
2.278
1.513
0.610
-0.241
-0.429
-0.341
-0.170
0.126
0.372
0.573
1.016
0.952
1.006
0.885
0.759
0.407
0.113
0.070
-0.124
-0.219
-0.308
-0.518
-0.216
-0.353
-0.094
0.022
-0.117
-0.028
0.088
0.065
0.120
0.110
0.019
0.235
0.049
0.117
-0.071
0.132
0.241
0.205
0.075
-0.065
-0.003
0.065
0.265
0.140
0.123
0.060
0.202
0.156
0.167
0.029
-0.033
0.089
0.081
0.141
0.130
0.115
-0.118
0.176
0.026
-0.006
0.012
0.123
0.078
0.053
-0.088
0.029
0.102
0.052
-0.154
0.072
-0.038
-0.053
0.030
0.095
-0.008
0.043
0.033
0.035
-0.035
-0.078
-0.100
0.029
-0.011
-0.074
0.027
0.002
-0.136
-0.044
0.006
-0.098
-0.073
-0.133
-0.055
-0.134
-0.688
-0.465
0.115
0.465
0.383
0.150
0.026
-0.156
-0.599
-3.309
-1.982
2.653
4.093
3.067
0.823
-0.633
-1.499
-1.114
-0.436
0.209
0.694
1.383
1.612
1.781
1.638
1.377
0.958
0.542
0.101
-0.460
-0.631
-0.670
-0.898
-0.897
-0.776
-0.610
-0.398
-0.243
-0.152
0.042
0.066
0.110
0.170
0.243
0.352
0.267
0.227
0.320
0.232
0.237
0.288
0.280
0.247
0.285
0.322
0.384
0.273
0.440
0.432
0.459
0.315
0.302
0.288
0.325
0.315
0.370
0.216
0.154
0.323
0.295
0.166
0.246
0.185
0.075
0.173
0.111
-0.415
-1.498
-2.363
-0.880
1.032
2.022
1.354
0.530
-0.440
-0.654
-0.598
-0.377
0.203
0.401
0.764
0.760
0.616
0.387
0.169
0.065
-0.298
-0.247
-0.445
-0.490
-0.597
-0.645
-0.561
-0.417
-0.379
-0.378
-0.197
-0.121
-0.234
-0.113
-0.181
-0.160
-0.066
0.030
-0.059
-0.106
-0.061
-0.058
0.031
-0.053
-0.078
0.030
0.025
0.086
0.124
0.065
-0.086
0.185
0.140
0.224
0.092
0.094
0.165
0.028
0.184
0.074
0.257
0.230
0.076
0.075
0.045
0.091
0.090
0.088
0.165
0.102
0.181
0.037
0.103
0.084
0.105
-0.104
-0.037
0.134
-0.000
0.135
-0.011
0.063
0.075
-0.068
0.004
0.052
0.088
-0.043
-0.015
-0.031
0.085
-0.142
0.106
-0.010
-0.192
-0.031
0.028
0.024
-0.001
0.019
-0.071
0.030
0.009
0.069
-0.043
-0.069
-0.117
0.052
0.099
0.073
0.087
0.032
0.044
-0.013
0.084
-0.002
0.120
-0.037
-0.051
-0.056
0.184
-0.008
0.156
0.109
0.019
0.009
-0.013
-0.009
0.038
0.076
0.140
-0.030
0.012
0.092
-0.002
0.039
-0.031
-0.219
-0.024
0.028
-0.063
-0.053
-0.052
-0.018
-0.063
0.009
0.008
-0.064
-0.068
-0.012
-0.173
0.005
-0.053
0.048
-0.076
0.116
0.096
0.063
-0.033
0.014
0.016
0.005
0.037
-0.063
0.026
-0.001
0.061
0.110
0.027
0.087
0.023
0.057
-0.098
0.092
0.088
0.053
0.075
0.136
0.131
0.017
-0.041
0.104
-0.035
0.087
0.094
0.042
0.061
0.102
0.019
0.043
0.138
0.117
-0.095
-0.028
0.026
0.025
0.136
0.161
0.056
-0.022
-0.043
0.053
0.016
0.050
0.022
-0.022
0.046
-0.058
0.014
0.001
0.017
-0.076
0.087
0.028
-0.075
-0.050
-0.010
-0.085
0.081
0.067
-0.057
-0.019
0.095
-0.098
-0.008
-0.030
0.001
0.012
0.031
0.021
0.041
-0.068
-0.071
0.067
0.027
0.172
-0.092
0.031
0.051
0.018
-0.001
-0.028
0.008
-0.034
0.035
0.003
0.076
0.049
-0.027
0.035
0.018
0.027
-0.016
0.159
0.019
0.030
0.097
0.162
0.009
-0.004
0.017
0.081
0.135
-0.070
0.159
-0.009
0.063
0.041
0.092
0.031
-0.048
0.033
0.113
0.083
-0.029
0.075
-0.089
0.013
0.111
0.120
0.208
0.189
0.057
-0.034
0.088
0.137
0.018
0.116
0.059
-1.434
0.133
-2.985
0.233
3.353
4.059
2.056
-0.396
-1.886
-1.882
-1.284
-0.428
-0.038
-2.643
0.628
3.138
3.317
2.339
0.993
0.119
-0.637
-0.973
-0.920
-0.686
-0.403
-0.053
0.120
0.270
0.309
0.342
0.297
0.194
0.101
-0.002
0.034
0.088
-0.050
-0.038
-0.204
-0.061
0.079
0.253
0.023
0.060
0.187
0.146
0.250
0.120
0.167
0.245
0.304
0.231
0.332
0.240
0.512
0.421
0.300
0.227
0.049
0.176
0.320
0.337
0.289
0.283
0.179
0.045
-0.063
0.233
0.337
0.247
-0.036
-0.004
-0.059
-0.100
0.015
0.038
-0.063
0.079
0.067
0.170
0.082
-0.034
-0.008
-0.074
-0.005
-0.010
-0.168
-0.043
0.015
0.018
-0.125
-0.149
-0.110
0.024
-0.147
0.021
0.082
-0.021
0.009
0.041
-0.153
-0.135
-0.322
-0.928
-0.325
-0.199
-1.252
-1.583
0.001
0.563
0.945
0.760
-0.289
-0.317
0.123
0.217
0.262
-0.041
0.304
0.542
0.613
0.899
0.230
0.489
0.706
0.374
0.002
-0.242
-0.400
-0.298
-0.206
-0.266
-0.248
-0.050
-0.040
-0.069
0.047
-0.066
-1.498
-2.334
-0.572
0.750
1.513
0.909
0.088
-0.399
-0.610
-0.355
-0.053
0.254
0.440
0.486
0.631
0.599
0.428
0.170
0.105
0.265
0.239
-0.069
-0.411
-0.483
-0.774
-0.726
-0.032
0.330
0.719
0.531
0.310
0.005
-0.003
0.080
0.128
0.294
0.309
0.344
0.380
0.383
0.286
0.163
0.043
0.068
0.010
-0.041
-0.100
-0.135
-0.191
-0.082
-0.007
-0.052
0.072
0.123
0.026
0.025
0.094
0.092
-0.020
-0.124
-0.106
0.052
0.120
0.018
-0.045
0.050
-0.006
0.065
0.005
-0.040
0.029
-0.139
-0.149
-0.036
0.120
0.100
-0.105
0.016
-0.143
0.143
0.090
-0.020
-0.015
-0.052
-0.116
-0.161
-0.200
0.001
-0.017
-0.271
-0.104
0.273
0.148
-0.127
-0.316
-0.101
-0.077
0.239
0.021
-0.202
-0.817
0.245
0.682
0.577
0.344
0.034
-0.263
-1.150
-0.618
0.444
0.881
0.762
0.341
0.083
-0.053
-0.153
-0.051
0.026
0.159
0.112
0.130
0.276
0.161
-0.002
-0.100
-0.038
-0.128
0.005
-0.133
-0.143
-0.160
-0.177
-0.037
-0.103
-0.059
-0.129
-0.087
-0.006
0.098
0.037
-0.094
-0.143
0.082
-0.167
-1.682
-1.448
0.126
0.760
0.949
0.629
0.166
-0.053
-0.124
0.077
0.467
0.627
0.528
0.582
0.493
0.530
0.231
0.050
0.451
0.421
0.206
0.076
-0.175
-0.486
-0.338
-0.216
-0.093
-0.144
-0.190
-0.115
-0.007
-0.140
0.064
-0.028
-0.047
-0.131
-0.048
-0.055
-0.078
-0.032
0.010
-0.013
-0.067
-0.108
-0.121
0.100
0.129
0.052
-0.021
0.121
0.122
-0.065
0.114
0.041
0.132
0.075
0.042
0.092
0.113
0.082
0.072
0.041
0.228
0.106
0.094
0.079
0.022
0.087
0.136
0.186
-0.013
0.053
0.148
0.087
-0.008
0.087
0.105
0.068
-0.216
-0.321
-0.271
-0.586
-3.070
-1.353
0.984
1.737
1.182
0.494
0.029
-0.356
-0.405
-0.288
-0.654
0.232
0.994
1.251
0.932
0.664
0.308
-0.593
-0.133
0.326
0.091
-0.150
-0.650
-0.403
-0.258
-0.231
-0.127
-0.171
-0.100
-0.166
-0.117
0.018
-0.083
-0.012
0.229
0.245
0.302
0.221
0.021
-0.101
-0.112
-0.013
0.001
0.132
0.147
0.200
0.160
0.117
0.059
0.189
0.018
-0.047
0.031
-0.106
-0.111
-0.074
-2.253
-1.419
1.547
2.160
1.282
0.203
-0.352
-0.582
-0.717
-1.741
0.536
1.399
1.142
0.851
0.555
0.267
0.136
-0.300
-0.704
-0.492
0.080
0.131
0.172
0.190
0.037
0.400
0.161
0.107
0.080
0.083
0.125
0.112
0.110
0.149
-0.336
-0.382
-0.128
0.479
0.633
0.450
-0.116
-0.434
-2.260
-1.705
0.000
0.764
0.804
0.316
0.045
-0.071
-0.114
-0.172
0.087
0.224
0.252
0.294
0.218
0.367
0.122
0.244
0.170
0.089
0.104
-0.138
-0.147
-0.091
-0.109
-0.038
0.082
-0.011
-0.028
0.003
0.116
-0.008
0.008
0.067
0.009
0.017
0.032
0.072
-0.020
0.025
0.055
-0.021
-0.067
0.017
0.107
0.019
-0.004
-0.069
-0.034
0.157
0.032
0.144
0.080
-0.120
0.132
-0.126
-0.263
0.048
0.352
0.365
0.345
0.167
-0.077
-0.072
0.073
0.035
0.070
0.090
-0.035
-0.626
0.104
0.439
-0.040
0.015
-0.081
-0.490
-0.108
-0.350
0.243
0.294
0.253
0.218
-0.085
-0.166
0.022
0.200
0.082
0.138
0.309
0.234
-0.082
-0.176
-0.041
0.073
0.023
-0.029
-0.045
-0.044
-0.115
-0.028
-0.049
0.103
0.039
0.210
0.211
0.282
0.099
0.018
-0.255
0.115
0.191
0.294
0.142
0.200
0.053
-0.126
-2.891
-0.756
1.647
0.661
-0.809
-0.067
0.223
0.426
-0.342
-0.523
-0.250
0.296
0.508
0.540
0.611
-0.087
-0.026
0.665
0.647
0.616
-0.128
-0.436
-0.256
-0.169
-0.170
-0.053
0.078
-0.160
-0.564
-0.479
0.057
0.432
0.314
0.009
0.050
-0.569
-0.336
-0.014
0.495
0.740
0.437
0.096
0.034
-0.076
-0.004
0.024
0.060
0.054
-0.008
0.244
0.191
0.115
0.248
0.124
0.007
0.089
-0.098
-0.181
-0.035
0.002
-0.992
-1.289
-0.394
-0.145
0.207
0.430
0.194
0.156
0.034
-0.004
-0.022
0.007
0.218
0.429
0.517
0.520
0.591
0.503
0.320
0.299
0.085
0.180
0.087
-0.065
-0.184
-0.228
-0.190
-0.213
-0.137
-0.168
-0.155
-0.170
-0.104
-0.145
-0.127
-0.169
-0.082
-0.103
-0.078
-0.127
0.032
-0.119
-0.024
-0.044
-0.159
-0.106
0.016
-0.049
0.002
0.056
-0.020
-0.112
0.023
0.018
0.010
0.045
0.039
0.118
0.089
0.066
0.128
0.066
0.045
0.129
0.139
0.019
0.126
-0.004
0.086
0.039
0.122
0.089
0.053
0.147
0.037
-0.008
0.200
0.121
0.079
0.032
0.077
-0.047
-0.019
0.123
0.072
0.095
0.158
-0.018
-0.044
0.082
-0.030
-0.027
-0.038
0.040
0.016
0.070
0.106
-0.115
0.033
-0.073
-0.069
0.040
0.092
0.045
-0.018
-0.035
0.031
0.034
0.076
0.008
-0.088
0.063
-0.028
0.088
0.108
-0.065
0.051
-0.041
0.137
-0.105
0.002
0.048
0.212
-0.019
0.090
0.029
-0.063
0.016
0.140
-0.004
-0.042
0.159
0.079
-0.030
0.140
0.051
0.083
0.114
0.030
0.142
0.077
0.202
0.048
0.191
0.080
0.037
-0.043
-0.082
0.207
0.016
0.042
0.065
0.081
-0.183
-0.127
0.119
0.068
-0.045
-0.053
-0.081
0.046
-0.070
-0.070
-0.038
-0.099
0.081
0.122
0.048
-0.009
0.024
0.024
0.165
0.078
-0.072
-0.021
0.144
0.064
0.061
0.116
0.006
0.036
-0.050
0.154
0.132
0.034
0.081
0.076
-0.030
0.043
-0.008
0.093
-0.010
0.107
0.148
-0.006
0.041
-0.099
0.007
-0.018
0.015
-0.023
-0.269
-0.303
-0.327
-0.246
-0.456
-1.205
-0.983
-0.343
0.268
0.400
0.148
0.088
-0.047
-0.139
-0.088
0.092
0.254
0.432
0.430
0.492
0.621
0.437
0.404
0.204
0.111
0.104
0.060
-0.162
-0.131
-0.240
-0.223
-0.196
-0.198
-0.307
-0.118
-0.089
-0.130
-0.175
-0.186
-0.085
-0.104
-0.045
-0.074
-0.054
-0.189
-0.043
-0.163
-0.051
0.091
0.026
-0.045
0.021
0.002
0.042
0.118
0.028
0.114
0.089
0.087
0.239
0.245
0.309
0.099
0.129
0.068
0.015
0.200
0.209
0.168
0.026
0.249
0.095
0.042
0.101
0.084
-0.030
0.085
-0.003
0.118
0.074
0.023
0.119
0.018
0.041
0.178
0.213
0.046
0.111
0.041
0.069
0.056
0.262
0.103
-0.021
0.079
0.053
-0.032
-0.101
-0.053
-0.083
-0.021
0.102
0.134
-0.015
0.086
0.312
0.095
0.073
-0.042
0.073
0.027
0.117
0.109
0.139
0.108
0.105
0.006
0.098
0.008
-0.159
-0.085
-0.110
-0.095
-0.179
-0.091
-0.024
-0.080
0.116
-0.117
0.019
-0.069
-0.197
0.041
0.198
0.040
0.033
0.004
0.011
0.202
-0.045
-0.057
0.013
0.162
0.015
0.050
-0.074
0.091
0.141
-0.026
0.019
0.128
0.114
-0.735
-0.703
0.501
0.535
0.458
0.069
-0.114
-2.985
-2.792
0.735
3.206
3.399
1.702
-0.241
-1.244
-1.484
-1.625
-0.961
0.564
1.360
1.722
1.408
1.144
0.627
0.195
-0.060
-0.236
-0.264
-0.311
-0.313
-0.300
-0.263
-0.213
-0.164
-0.149
-0.094
-0.087
-0.001
-0.028
0.055
0.030
-0.045
-0.019
0.070
-0.042
-0.002
-0.029
0.138
0.190
0.158
0.300
0.049
0.307
-0.039
0.026
0.221
0.367
0.336
0.191
0.064
0.214
0.198
0.137
0.134
0.108
0.236
0.286
0.187
0.014
0.142
0.024
0.053
0.240
0.110
-0.056
0.111
-0.029
-0.016
0.136
0.168
0.103
-0.024
-0.007
-0.082
0.039
0.095
-0.097
0.022
0.005
-0.116
0.053
-0.060
-0.079
-0.024
-0.012
0.018
-0.139
-0.080
-0.114
0.031
-0.130
-0.017
-0.063
-0.081
-0.099
-0.038
-0.001
-0.141
-0.176
0.056
0.078
0.011
0.009
-0.202
-0.034
0.053
0.166
-0.105
0.013
-0.014
0.183
0.020
0.097
0.026
0.104
-0.059
0.037
0.031
0.049
0.014
-0.048
-0.088
0.068
0.181
0.146
0.075
0.080
-0.068
-0.138
-0.022
0.099
0.163
0.110
0.088
0.049
0.027
0.018
0.008
0.124
0.187
0.187
0.278
0.187
-0.007
0.002
-0.066
0.147
0.067
0.084
0.203
-0.022
0.089
0.076
0.005
-0.115
-0.223
0.008
-0.170
0.042
-0.055
-0.023
-0.073
0.069
-0.082
-0.180
-0.386
-0.359
-0.419
-0.293
0.612
0.790
0.176
-0.796
-1.513
-0.489
0.391
0.628
0.089
0.370
0.292
0.201
0.194
0.144
0.210
0.224
0.318
0.274
0.375
0.242
0.295
0.227
0.093
0.018
-0.070
-0.027
-0.092
-0.173
-0.197
-0.182
-0.089
-0.185
-0.054
-0.081
-0.097
-0.186
-0.142
-0.069
-0.110
-0.135
-0.166
-0.025
0.035
-0.042
-0.069
-0.012
-0.182
-0.034
-0.048
-0.014
0.045
-0.053
0.082
-0.002
0.095
0.089
-0.058
0.062
0.064
0.028
0.075
0.008
-0.017
-0.011
0.181
0.143
0.111
0.121
0.028
0.116
-0.005
0.087
-0.053
0.114
0.184
0.097
0.127
0.123
0.141
0.007
-0.038
0.074
-0.003
0.128
-0.003
0.025
0.098
0.123
-0.103
0.110
0.013
-0.007
0.022
0.106
0.059
-0.016
-0.017
-0.007
-0.041
-0.024
0.052
0.070
0.110
-0.059
0.079
-0.053
0.103
0.015
-0.091
-0.034
0.084
-0.085
0.032
0.074
0.106
-0.080
0.023
-0.019
-0.013
-0.047
-0.090
0.040
-0.047
-0.024
0.122
-0.002
0.080
-0.071
-0.062
0.111
-0.088
0.246
0.054
-0.082
0.039
0.019
-0.118
0.086
0.005
0.044
0.076
-0.159
0.009
-0.031
0.045
0.058
0.046
0.018
0.101
-0.023
0.050
-0.024
-0.002
0.130
0.016
0.024
0.073
-0.001
0.005
0.016
-0.042
0.077
0.028
0.065
0.030
0.057
0.016
0.011
0.049
0.057
-0.003
0.081
-0.166
0.046
0.030
0.099
0.024
0.075
0.000
-0.052
0.048
0.166
0.003
-0.053
-0.007
0.042
0.100
0.077
-0.028
0.114
-0.118
-0.007
0.109
0.164
0.206
0.015
-0.223
-0.082
0.055
0.079
0.347
0.439
0.243
0.119
-0.052
-0.279
-0.267
-0.067
0.054
0.150
-0.059
0.065
0.044
0.270
0.131
-0.047
-0.246
-0.166
-0.116
-0.070
0.013
0.158
0.238
0.205
0.048
-0.006
0.067
-0.045
-0.356
-0.191
-0.113
0.321
0.041
0.150
-0.009
-0.143
0.013
-0.036
0.014
0.094
-0.066
0.080
0.052
-0.020
0.073
0.318
0.421
-0.191
-0.136
0.100
0.244
0.158
-0.159
-0.650
-0.017
0.483
0.431
0.267
-0.244
-0.698
-0.293
0.151
0.167
0.361
0.352
0.074
-0.272
-0.272
-0.220
0.043
0.195
0.240
0.132
-0.090
0.119
0.074
0.019
0.056
0.099
0.070
0.018
0.151
0.115
-0.050
0.047
0.204
0.038
0.058
0.028
0.106
0.158
-0.072
0.067
-0.108
0.099
-0.050
0.102
0.034
-0.021
-0.022
0.066
-0.028
0.028
0.029
-0.036
-0.004
0.067
0.085
0.029
-0.056
0.031
0.023
0.185
0.056
0.032
-0.027
0.061
0.116
0.046
0.021
0.045
-0.009
0.165
0.164
-0.022
-0.021
0.063
0.080
0.090
-0.094
-0.076
-0.048
0.187
0.037
0.048
-0.127
-0.041
0.046
-2.966
-3.366
0.224
3.066
2.380
0.994
-0.355
-0.915
-1.011
-0.761
-1.932
-1.453
0.807
2.543
2.007
1.147
0.909
0.239
-0.057
-0.299
-0.206
-0.173
0.055
0.231
0.218
0.202
-0.120
-0.381
-0.214
-0.231
-0.105
-0.180
-0.326
-0.205
-0.295
-0.340
-0.018
-0.091
-0.067
0.124
0.112
0.148
0.234
0.253
0.300
0.263
0.207
0.073
0.125
0.086
0.058
-0.106
-0.001
-0.105
-0.045
0.169
0.102
-0.125
-0.010
0.138
0.259
0.153
0.153
0.159
0.184
0.176
0.089
0.163
0.126
0.098
0.091
0.109
0.202
0.141
0.168
0.018
0.100
0.076
0.008
-0.012
0.027
0.011
0.065
0.138
0.042
0.051
0.027
-0.107
0.008
0.041
-0.020
0.004
-0.030
0.044
-0.063
-0.087
0.139
-0.014
-0.014
-0.081
0.001
-0.021
-0.014
-0.113
0.023
-0.065
-0.151
-0.138
0.025
0.013
0.004
-0.086
-0.102
-0.135
-0.185
0.158
0.012
0.043
-0.034
0.043
0.117
0.176
0.222
-0.000
0.040
0.036
0.079
0.075
-0.021
0.028
0.290
0.048
-0.033
0.046
-0.162
-0.059
-0.173
-0.188
-0.273
-1.178
-1.423
-0.872
0.060
0.442
0.487
0.506
0.289
0.182
-0.026
-0.131
-0.073
0.232
0.450
0.530
0.564
0.589
0.589
0.418
0.325
0.261
-0.064
-0.179
-0.171
-0.185
-0.144
-0.330
-0.261
-0.239
-0.053
-0.021
-0.024
-0.096
0.061
0.062
-0.040
-0.173
0.017
0.100
-0.023
-0.072
0.069
0.151
-0.053
0.022
0.152
-0.042
0.116
0.012
0.099
0.177
0.201
-0.084
0.039
0.052
0.093
-0.105
-0.405
-0.108
0.324
0.461
0.267
0.141
-0.172
0.019
0.080
-0.000
0.138
0.246
0.195
0.236
0.014
0.168
0.069
0.127
0.004
0.029
0.072
-0.055
-0.088
-0.157
-0.001
-0.039
-0.080
-0.054
-0.020
-0.040
0.063
0.024
-0.037
-0.050
-0.100
0.129
-0.002
-0.032
-0.062
0.027
0.045
-0.078
-0.073
0.005
-0.003
-0.019
-0.038
-0.069
-0.130
0.039
0.105
-0.065
-0.010
-0.002
0.035
-0.066
0.038
0.017
-0.062
-0.019
0.020
0.060
0.018
0.033
0.009
0.126
0.170
0.049
-0.055
-0.021
0.053
0.038
0.012
0.093
0.060
0.072
0.110
0.117
0.065
-0.106
-0.179
-0.028
0.079
0.146
-0.037
0.018
-0.075
0.065
-0.067
0.077
0.084
-0.097
0.044
0.080
-0.002
-0.038
0.006
-0.008
-0.008
0.101
0.059
-0.049
-0.080
-0.043
0.013
0.134
0.026
-0.021
0.016
-0.046
-0.001
0.059
-0.073
-0.109
0.121
-0.031
0.125
-0.036
0.060
-0.063
0.002
0.020
0.017
0.037
0.066
-0.109
-0.037
0.036
0.007
-0.020
0.087
0.058
0.013
0.106
0.025
-0.049
-0.047
-0.032
0.024
0.038
0.020
-0.002
-0.039
-0.037
-0.006
-0.143
0.017
0.067
-0.064
-0.040
0.090
0.068
0.022
0.055
0.045
-0.042
-0.046
0.067
0.005
-0.072
0.143
0.139
0.209
-0.050
-0.094
-0.058
-0.031
-0.213
-1.634
-2.229
-0.563
1.199
1.663
1.003
0.413
-0.161
-0.433
-0.304
-0.103
0.108
0.601
0.743
0.760
0.571
0.585
0.381
0.195
-0.054
-0.089
-0.251
-0.295
-0.488
-0.343
-0.356
-0.180
-0.265
-0.146
-0.024
-0.050
0.057
-0.020
0.063
-0.093
0.088
0.068
0.176
-0.134
0.004
0.000
-0.008
-0.011
0.126
0.148
0.102
0.031
0.086
0.085
0.091
0.131
-0.045
-0.504
-0.994
-1.314
-2.579
-3.629
-1.979
0.045
1.119
1.224
0.758
1.708
1.296
0.172
-0.147
0.103
0.844
1.394
2.061
2.403
2.281
1.900
1.456
0.907
0.235
-0.195
-0.860
-1.077
-1.305
-1.309
-1.185
-1.102
-0.694
-0.865
-0.531
-0.460
-0.246
-0.266
-0.032
-0.073
0.020
-0.221
-0.051
-0.043
0.027
-0.003
-0.007
-0.024
0.093
0.027
0.085
0.233
0.098
0.260
0.281
0.195
0.228
0.379
0.056
-0.685
0.412
0.837
0.721
0.367
0.115
0.027
-0.074
-0.102
0.301
0.657
0.521
0.181
-0.013
-0.035
0.369
0.472
0.442
0.268
0.293
0.025
0.037
-0.007
-0.110
-1.056
-1.353
0.170
0.775
0.535
0.041
-1.389
-2.842
-3.988
-1.168
2.879
3.962
2.606
0.489
-0.816
-1.376
-1.150
-0.496
0.351
0.986
1.719
1.881
1.912
1.592
1.089
0.809
0.238
-0.212
-0.733
-0.854
-0.830
-0.789
-0.391
-0.907
-1.390
-0.720
-0.282
0.126
0.127
-0.091
-0.027
0.347
0.405
0.152
0.001
-0.209
-0.238
0.293
0.623
0.699
0.250
0.061
0.187
0.312
0.341
0.426
0.445
0.414
0.142
0.408
0.367
0.406
0.525
0.331
0.448
0.321
0.265
0.449
0.391
0.200
0.328
0.216
0.319
0.171
0.159
0.101
0.035
0.054
0.115
0.193
0.002
-0.039
0.006
-0.007
-0.090
0.013
0.087
-0.109
-0.182
-0.004
-0.092
-0.044
0.010
-0.150
-0.261
-0.120
-0.097
-0.088
-0.193
-0.030
-0.203
-0.009
-0.003
-0.157
-0.123
-0.110
-0.154
-0.022
-0.031
-0.034
0.043
0.052
-0.066
-0.007
-0.032
0.080
-0.032
-0.098
0.019
0.137
0.086
0.029
-0.000
0.038
0.126
0.053
-0.057
0.023
0.041
0.057
-0.010
0.117
0.002
0.017
0.000
0.065
-0.139
0.013
-0.031
0.092
-0.017
-0.016
0.044
-0.026
0.045
0.073
0.022
0.168
0.056
-0.204
-0.078
0.010
0.011
0.150
0.096
-0.076
-0.004
0.107
-0.008
0.033
0.236
0.015
0.019
-0.017
0.050
-0.019
-0.007
0.077
0.153
0.056
0.108
0.049
0.118
0.016
0.015
-0.018
0.041
-0.010
0.027
0.055
0.075
0.027
0.045
-0.020
0.128
0.081
0.083
0.074
-0.041
-0.053
-0.073
0.064
0.221
0.131
0.066
-0.018
-0.099
0.164
0.135
0.172
-0.011
-0.123
-0.069
-0.029
0.146
-0.028
0.005
0.156
-0.031
-0.017
-0.062
-0.161
0.145
0.114
-0.114
-0.072
0.050
0.065
0.107
0.210
-0.054
-0.026
-0.058
-0.099
0.002
-0.015
-0.087
-0.174
0.004
-0.047
-0.073
-0.063
-0.171
-0.184
-0.055
0.054
0.080
0.019
0.012
-0.182
-0.184
-0.189
-0.030
-0.069
0.217
0.127
0.125
0.069
0.132
-0.004
0.051
0.165
0.158
0.112
0.229
0.112
0.105
0.129
0.100
-0.038
0.068
0.008
0.082
0.201
0.045
-0.052
-0.007
0.072
0.010
0.060
0.034
0.048
0.103
0.135
0.141
0.177
0.130
0.046
-0.125
0.086
0.105
0.105
0.245
0.003
0.061
0.111
0.053
-0.042
-0.014
0.093
-0.002
0.174
0.023
0.054
0.065
0.012
-0.102
0.045
0.048
-0.077
0.038
0.031
-0.018
-0.053
-0.013
0.029
-0.070
-0.035
-0.035
-0.037
-0.120
-0.081
-0.044
-0.093
0.037
0.087
0.004
-0.074
-0.101
0.029
-0.014
0.025
0.034
-0.025
0.012
-0.122
-0.008
-0.000
-0.100
0.028
0.031
0.096
-0.003
0.005
-0.080
-0.038
0.068
0.022
-0.024
0.015
0.013
0.063
0.014
-0.047
-0.104
0.047
-0.001
0.012
0.152
0.080
0.055
0.169
-0.015
-0.077
0.233
-0.022
0.048
-0.101
-1.153
-3.477
-0.898
2.820
3.670
2.050
0.395
-0.237
-0.851
-1.632
-0.627
-0.200
0.119
1.350
1.344
0.604
1.289
1.920
1.661
0.816
-0.036
-0.564
-0.781
-1.166
-1.545
-0.112
0.205
0.278
0.186
0.102
0.051
0.060
-1.137
-2.189
-0.118
1.109
0.972
0.403
0.148
-0.076
-0.301
-0.115
0.136
0.129
0.278
0.434
0.590
0.708
0.579
0.609
0.610
0.342
0.270
0.248
0.194
0.196
0.092
0.132
-0.012
0.032
0.101
0.162
0.191
0.214
0.297
0.339
0.218
0.140
-1.013
-0.421
0.458
0.253
-0.214
0.020
0.206
0.063
0.226
0.218
-0.080
-1.078
-0.611
0.299
0.261
0.195
0.508
0.172
-0.153
0.025
0.087
-0.002
0.017
-0.018
-0.010
0.110
0.162
-0.038
-0.027
-0.034
-0.081
-0.142
-1.228
-0.289
-1.395
-1.457
0.234
0.853
0.626
0.200
-0.214
-0.349
-0.360
-0.046
0.030
0.318
0.450
0.539
0.619
0.640
0.419
0.299
0.215
0.168
-0.060
-0.150
-0.126
0.027
-0.180
-0.096
-0.043
-0.129
-0.027
-0.096
-0.017
0.122
-0.032
0.011
0.175
0.322
0.117
0.033
0.047
0.032
0.032
0.103
-0.031
0.009
0.038
0.129
0.031
0.034
-0.625
-1.618
0.286
0.837
0.579
0.226
-0.017
-0.280
-0.221
-0.109
0.067
0.146
0.360
0.427
0.282
0.396
0.257
0.048
0.111
-0.047
0.118
-0.038
-0.027
0.126
0.048
0.048
-1.333
-3.150
-1.266
0.939
1.629
1.153
0.507
-0.147
-0.526
-0.418
-0.254
0.074
0.475
0.645
0.715
0.677
0.778
0.708
0.407
0.293
0.080
-0.210
-0.069
-0.282
-0.362
-0.107
-0.380
-0.284
-0.215
-0.156
-0.054
-0.124
-0.207
-0.151
-0.067
-0.068
0.069
-0.015
-0.110
-0.195
-0.026
0.123
0.111
0.052
0.044
0.159
0.062
0.023
0.074
0.090
0.183
0.117
0.033
0.004
-0.065
0.152
0.042
-0.222
-0.162
-0.232
-0.020
0.045
0.029
0.170
0.031
0.057
0.131
0.047
0.030
0.118
0.187
0.209
0.220
0.284
0.159
0.219
0.111
0.109
-0.071
0.162
0.211
0.059
0.062
-0.112
0.018
0.102
0.198
0.028
0.064
0.100
0.032
-0.051
0.106
-0.042
0.050
-0.100
-0.015
-0.015
0.011
0.128
-0.008
-0.124
-0.071
-0.070
-0.031
-0.121
-0.102
0.065
-0.130
-0.099
-0.030
0.058
0.004
-0.087
-0.034
-0.056
-0.116
-0.014
-0.003
0.008
0.010
-0.156
-0.043
-0.022
0.123
-0.022
0.021
-0.015
-0.101
-0.074
0.088
0.044
0.061
-0.033
0.050
0.069
0.178
-0.033
-0.152
0.080
-0.012
0.102
0.060
0.031
0.040
0.040
-0.015
0.078
0.040
0.133
-0.083
-0.055
0.171
-0.006
0.014
0.087
0.065
-0.053
-0.020
0.146
-0.052
0.133
0.128
0.123
-0.085
0.004
0.064
-0.054
-0.026
0.118
0.063
-0.172
-0.049
0.048
-0.015
0.090
-0.009
-0.068
0.144
0.154
0.050
0.046
0.019
-0.115
0.084
0.115
0.092
0.076
0.011
0.053
-0.115
-0.035
0.133
0.144
0.073
0.007
0.097
0.135
-0.018
0.078
-0.032
0.192
-0.056
-0.001
0.128
0.028
-0.046
0.159
0.043
0.060
0.025
-0.010
-0.016
-0.057
0.094
0.040
-0.066
0.083
0.019
0.119
-0.053
0.073
-0.118
-0.015
0.020
0.188
-0.036
-0.006
-0.031
0.051
-0.068
0.056
0.049
-0.010
0.009
0.086
0.110
-0.118
-0.104
0.022
-0.162
-0.020
-0.098
-0.066
0.081
-0.015
-0.019
0.101
0.007
-0.063
0.007
0.136
0.010
-0.128
0.038
0.017
0.134
0.110
0.071
-0.043
0.022
0.023
0.181
0.181
0.064
0.089
0.075
0.080
0.235
0.020
0.093
0.153
0.202
0.027
-0.011
-0.050
0.048
-0.341
-0.194
-0.463
-1.427
-1.046
-0.211
0.251
0.455
0.304
0.033
-0.182
-0.226
-0.185
0.065
0.226
0.627
0.666
0.493
0.556
0.355
0.278
0.314
0.226
0.202
0.025
-0.176
-0.147
-0.263
-0.185
-0.128
-0.110
-0.185
-0.092
0.002
-0.016
-0.049
-0.005
-0.028
-0.057
0.167
0.199
0.250
0.014
0.015
0.104
0.056
-0.092
0.052
0.056
0.075
0.022
-0.052
0.028
0.047
-0.050
-0.124
-0.046
-0.044
-0.504
-0.819
-0.729
-0.252
0.062
-0.306
0.218
0.313
0.545
0.431
0.131
-0.170
0.042
0.047
0.444
0.663
0.743
0.652
0.704
0.482
0.205
0.103
0.218
0.023
-0.067
0.006
0.084
-0.272
-0.245
-0.160
-0.058
-0.127
0.049
-0.173
0.019
-0.012
-0.108
0.086
-0.119
-0.066
-0.022
0.073
-0.065
-0.020
-0.000
-0.086
0.022
-0.003
-0.020
0.067
-0.040
-0.083
-0.018
-0.017
0.036
0.091
0.090
0.053
-0.026
0.102
0.108
-0.112
-0.015
0.163
0.148
0.096
0.029
0.072
0.080
0.048
0.012
0.069
0.019
0.098
-0.173
-0.173
-0.090
-0.043
-0.044
-0.192
-0.229
-0.312
-1.417
-3.115
-1.717
0.074
1.400
2.495
1.666
0.415
-0.406
-0.621
-0.400
0.051
0.686
1.085
1.194
1.169
1.047
0.741
0.403
-0.076
-0.202
-0.382
-0.522
-0.661
-0.579
-0.712
-0.712
-0.782
-0.186
-0.032
-2.671
-2.836
-0.678
1.696
1.928
1.018
0.104
-0.448
-0.946
-1.374
-0.422
0.511
1.096
1.119
0.991
1.034
0.913
0.634
0.430
0.237
0.228
-0.037
-0.167
-0.117
-0.044
-0.194
-0.091
0.062
0.096
-0.032
0.173
0.363
0.270
-0.207
-0.930
0.062
0.772
0.651
0.410
-0.051
-0.159
-0.024
-0.058
0.084
0.282
0.164
0.120
0.103
0.053
0.004
-0.035
0.237
-0.020
-1.397
-1.967
-0.331
0.761
1.002
0.521
0.147
-0.164
-0.113
-0.285
-0.219
0.250
0.278
0.605
0.594
0.526
0.514
0.296
0.287
0.166
0.111
-0.077
-0.086
0.000
-0.258
-0.118
-0.144
-0.145
-0.082
-0.057
-0.072
0.029
0.030
0.002
0.052
0.093
-0.064
-0.011
-0.052
-0.065
-0.012
-0.173
-0.045
-0.085
-0.032
0.048
0.008
-0.119
-0.102
-0.059
-0.145
-0.104
-0.031
-0.121
0.073
0.079
0.016
-0.054
-0.092
0.103
0.102
0.333
0.231
0.140
0.123
0.132
0.036
-0.033
0.147
0.185
0.142
-0.043
0.055
0.118
0.091
-0.003
0.032
0.042
-0.130
-0.204
0.072
0.176
-0.017
-0.097
-0.249
-0.225
-0.401
-0.314
-0.518
-0.333
-0.108
0.178
0.286
0.162
0.059
0.076
0.086
0.178
0.154
0.186
0.237
0.387
0.320
0.422
0.287
0.301
0.112
0.131
-0.038
0.083
-0.136
0.005
-0.251
-0.173
-0.112
-0.336
0.088
0.160
0.128
0.073
-0.011
0.018
-0.006
0.064
0.064
0.009
0.163
0.063
-0.017
0.036
-0.086
-0.043
-0.036
-0.101
-0.180
-0.022
-0.050
-0.109
-0.048
0.043
0.016
0.011
0.060
0.116
-0.003
-2.254
-3.287
-0.067
1.883
1.888
0.970
0.023
-0.462
-0.530
-0.423
-0.097
0.353
0.624
0.811
1.005
0.836
0.840
0.526
0.414
0.134
0.030
-0.132
-0.272
-0.229
-0.358
-0.315
-0.252
-0.174
-0.111
-0.042
-0.232
-0.120
-0.108
0.064
0.111
-0.048
-0.091
-0.065
0.010
-0.083
-0.081
-0.035
-0.093
0.000
-0.052
-0.053
-0.015
0.071
0.052
-0.073
-0.063
0.113
0.091
0.105
0.015
0.079
0.074
0.117
0.241
0.267
0.366
0.327
0.009
0.140
0.061
0.156
0.200
0.073
0.218
0.166
0.104
0.080
0.029
-0.022
0.147
-0.061
-0.033
-0.031
0.034
0.004
0.039
-0.044
-0.049
0.089
-0.015
0.095
-0.034
-0.054
0.005
0.132
0.041
0.106
-0.063
-0.079
0.018
0.105
-0.044
0.112
-0.023
0.001
-0.010
0.039
0.003
0.080
-0.030
-0.640
0.103
0.374
0.369
0.250
-0.055
-0.166
-0.141
-0.071
-0.035
-0.066
0.074
-0.002
-0.564
-3.086
-2.323
0.408
1.721
1.438
0.661
-0.189
-0.416
-0.673
-0.357
-0.045
0.445
0.652
0.906
0.932
0.859
0.679
0.527
0.458
0.030
-0.206
-0.172
-0.280
-0.490
-0.237
-0.347
-0.269
-0.156
-0.189
0.109
0.070
0.072
0.028
-0.194
0.048
0.097
-0.052
-0.032
0.147
0.154
0.056
-0.042
-0.469
-0.207
0.072
0.203
0.232
0.048
0.093
-0.015
-0.049
0.096
0.121
0.085
0.210
0.276
0.244
0.301
0.173
-0.078
-0.989
0.211
0.702
0.658
0.344
-0.453
-0.330
-2.092
-1.754
0.395
1.321
1.165
0.826
0.090
0.132
0.158
0.188
0.186
-0.934
-0.180
1.143
1.003
0.594
0.527
0.603
0.350
0.148
-1.062
-0.585
-0.168
0.004
0.044
0.031
-0.232
-0.138
-0.127
-0.140
-0.071
-0.084
-0.073
-0.116
0.043
0.050
-0.013
-0.046
-0.064
-0.069
-0.089
0.030
-0.072
-0.033
-0.134
-0.083
0.007
-0.043
0.153
0.256
-0.108
0.060
-0.268
-0.199
0.320
0.505
-0.032
0.219
0.167
0.226
-0.107
-0.916
-0.454
0.263
0.513
0.181
0.096
0.099
0.322
0.260
-0.426
-0.651
-0.077
0.138
0.247
0.294
0.313
0.256
0.159
0.112
0.326
0.229
-0.131
-0.558
-0.319
0.122
0.157
0.204
0.222
0.159
-0.010
-0.114
-0.012
-0.199
0.030
-0.064
0.005
-0.055
-0.034
0.108
-0.043
0.091
0.086
-0.048
-0.025
0.023
-0.066
-0.067
-0.027
0.004
0.011
0.017
0.077
-0.080
0.095
0.103
0.007
-0.052
0.076
-0.086
0.001
0.011
0.123
-0.030
0.126
-0.021
0.059
0.051
-0.024
-0.014
-0.049
0.169
0.099
0.091
0.073
-0.076
-0.041
0.131
0.020
0.073
-0.005
0.026
0.111
-0.002
0.161
0.241
-0.327
-0.171
0.050
0.083
0.109
0.065
0.031
0.086
0.035
-0.032
0.121
0.140
-0.222
-0.237
0.054
0.081
0.171
0.280
0.030
0.116
0.192
0.117
0.035
0.071
-1.000
-0.936
0.332
0.895
0.241
-0.194
-0.208
-0.119
-0.200
-0.013
0.044
0.025
0.240
0.142
-0.172
-0.070
0.020
0.235
0.279
0.195
0.232
-0.040
-0.132
0.035
0.201
0.030
-0.199
-0.059
0.005
0.127
0.156
-0.023
0.028
0.096
-0.030
0.028
0.046
0.093
-0.049
0.106
0.037
-0.075
0.026
0.041
-0.036
-0.032
0.028
-0.002
0.020
-0.138
0.043
0.048
-0.023
0.065
-0.112
0.001
0.050
0.009
-0.024
0.015
-0.119
-0.032
0.082
0.010
-0.121
0.049
0.032
0.026
-0.055
0.072
0.051
0.043
-0.062
-0.020
0.039
-0.071
0.049
0.034
0.036
-0.061
0.008
0.025
0.108
0.030
0.019
0.073
0.362
0.200
-0.347
-0.295
-0.109
0.149
0.221
0.126
0.073
-0.025
0.022
-0.059
-0.163
0.111
0.126
0.272
0.321
0.267
0.135
0.042
0.106
-0.020
0.240
0.026
0.060
0.031
0.007
0.086
0.181
0.038
-0.102
-0.136
0.024
-0.026
-0.067
-0.070
-0.064
0.053
0.048
-0.038
0.043
0.060
0.064
0.089
0.025
0.083
0.134
0.118
0.069
-0.097
0.056
0.155
0.125
0.023
0.066
0.095
0.100
0.061
0.055
0.023
0.061
-0.075
-0.015
0.069
0.024
0.121
0.067
-0.023
-0.045
-0.002
0.139
-0.020
-0.188
-0.070
0.143
0.047
0.028
0.054
0.189
-0.095
0.068
0.096
0.066
-0.044
-0.129
0.029
0.140
-0.073
-1.475
-2.151
-1.354
-0.297
0.261
0.495
0.288
0.101
-0.201
-0.384
-0.174
-0.064
0.159
0.403
0.733
0.693
0.836
0.824
0.738
0.599
0.364
0.175
-0.014
-0.073
-0.196
-0.314
-0.184
-0.223
-0.357
-0.153
-0.148
-0.111
-0.062
-0.125
0.244
0.036
0.123
-0.068
-0.135
-0.636
-0.321
0.288
0.395
0.259
0.138
-0.131
-0.162
-0.132
-0.057
-0.029
0.118
0.078
0.169
0.159
-0.016
0.102
0.185
0.021
0.078
0.140
0.127
0.152
-0.014
0.106
0.248
0.069
0.141
0.154
0.117
0.177
0.222
0.150
0.154
0.211
0.144
0.169
0.298
0.171
0.141
0.142
0.043
0.093
0.140
0.005
0.222
0.104
-0.017
0.070
-0.010
-0.054
0.005
0.035
0.047
-0.012
-0.061
-0.051
0.135
0.042
-0.078
-0.130
-0.070
-0.015
-0.101
-0.093
-0.053
-0.107
-0.130
-0.026
0.047
-0.037
-0.081
-0.065
-0.047
-0.063
-0.076
-0.120
-0.013
0.002
0.008
-0.144
0.002
0.004
-0.176
0.114
-0.017
-0.179
-0.137
0.063
0.156
0.020
0.053
0.062
-0.098
0.030
0.029
0.077
0.002
-0.056
0.131
0.073
-0.008
-0.014
-0.022
0.084
0.071
-0.006
0.009
0.064
0.050
-0.087
-0.033
0.066
-0.037
-0.079
0.080
0.063
0.009
0.032
-0.078
0.115
0.083
0.021
-0.003
0.031
-0.009
0.061
0.038
0.094
-0.036
-0.024
0.157
0.046
-0.013
-0.173
-0.008
0.020
-0.108
0.016
0.018
-0.059
-0.018
-0.000
-0.523
-0.294
-0.034
-1.391
-3.498
-2.570
0.125
1.524
1.924
1.019
0.002
-1.348
-1.316
-0.763
0.015
0.787
1.280
1.445
1.524
1.379
1.256
0.801
0.711
0.454
0.114
0.164
-0.016
-0.257
-0.320
-0.278
-0.285
-0.244
-0.313
-0.404
-0.370
-0.427
-0.236
-0.231
-0.199
-0.200
-0.152
-0.275
-0.156
-0.139
-0.233
-0.231
-0.095
-0.026
0.028
-0.107
-0.002
0.091
0.110
0.102
0.056
0.111
0.173
0.330
0.120
0.178
0.244
0.188
0.176
0.319
0.220
0.369
0.234
0.218
0.350
0.176
0.272
0.287
0.327
0.274
0.241
0.173
0.138
0.106
0.210
0.224
0.157
0.145
0.095
0.204
0.067
0.453
0.348
0.336
0.081
-0.017
0.015
-2.132
-0.968
0.744
1.490
0.988
0.114
-1.267
-1.313
-0.348
0.064
0.280
0.349
-0.022
-0.106
0.084
-0.056
0.113
0.137
0.102
-0.055
-0.040
-0.007
-0.111
-0.056
-0.038
-0.053
-0.044
-0.137
-0.097
-0.158
-0.009
0.015
-0.151
-0.131
-0.214
0.014
0.009
0.065
0.020
0.010
-0.130
-0.047
0.126
-0.044
0.040
-0.015
-0.070
0.069
-0.073
0.067
0.242
-0.023
-0.028
-0.040
0.085
0.102
0.068
0.040
0.048
0.241
0.290
-0.106
-0.440
-0.139
0.359
-0.074
0.219
0.288
0.229
0.212
-0.173
-0.574
-0.209
0.343
0.534
0.392
0.184
0.068
-0.096
-0.095
0.117
0.029
0.106
0.017
0.087
0.189
0.050
0.043
0.073
0.049
-0.052
-0.005
-0.005
-0.012
0.043
0.037
0.052
0.017
0.111
0.018
0.004
0.155
0.113
0.103
0.061
0.061
0.069
0.038
0.118
0.005
0.119
0.091
0.127
0.112
0.082
0.004
0.081
0.104
-0.006
-0.013
0.132
0.011
-0.007
0.041
-0.067
-0.232
-0.010
0.181
0.183
0.017
-0.125
-0.160
-0.043
-0.165
-0.080
-1.177
0.014
-1.048
-2.790
-2.418
0.883
2.566
2.008
1.175
0.161
-0.610
-0.934
-0.991
0.022
0.789
1.391
1.335
1.317
0.979
-0.941
-1.477
-0.072
0.590
0.434
-0.068
-0.561
-0.821
-0.924
-0.831
-0.642
-0.240
-0.020
0.238
0.368
0.558
0.410
0.354
0.228
0.232
0.044
0.104
0.044
-0.190
0.012
-0.234
0.006
-0.065
0.046
0.130
0.086
0.023
0.233
0.056
0.166
0.112
0.137
0.137
0.136
0.172
0.227
0.025
0.040
0.099
0.280
0.204
0.159
0.066
0.087
0.196
0.185
0.072
0.070
0.095
0.109
0.071
0.063
0.082
0.178
-0.087
0.011
0.151
0.041
0.011
-0.021
0.049
0.117
-0.005
0.014
0.027
-0.093
-0.085
0.120
-0.014
-0.103
-0.055
0.048
-0.035
-0.073
-0.003
-0.109
-0.079
-0.081
-0.005
-0.068
-0.041
0.014
0.016
-0.044
-0.065
-0.055
-0.077
0.024
0.022
-0.058
0.136
-0.014
0.064
0.008
-0.018
-0.011
0.091
-0.067
-0.067
0.012
0.005
0.105
0.062
0.098
-0.014
0.004
0.063
0.010
0.080
0.046
0.173
0.015
0.057
0.040
-0.020
-0.005
0.052
0.099
-0.026
-0.009
-0.003
-0.036
-0.041
0.056
-0.011
0.158
0.090
0.008
0.009
0.195
-0.016
0.004
0.050
-0.023
0.002
-0.038
0.080
0.007
0.031
0.119
0.130
0.450
0.174
0.147
0.087
-0.097
0.151
0.137
0.072
0.105
0.065
0.154
-0.040
-0.044
-0.014
-0.106
0.056
-0.057
-0.005
-0.052
-0.054
-0.101
-0.020
-0.058
0.030
0.060
0.121
-0.029
0.102
0.045
0.104
0.120
-0.011
0.049
0.114
-0.002
0.066
0.062
0.054
-0.013
-0.007
0.070
0.087
0.146
0.023
-0.031
0.017
-0.040
0.123
0.082
-0.030
0.063
-0.059
-0.118
0.037
0.022
0.039
0.053
0.024
0.007
-0.038
-0.088
0.188
-0.028
-0.030
0.011
-0.099
-0.033
-0.024
-0.018
0.170
-0.165
-0.568
-0.488
-3.087
0.102
2.930
2.646
1.304
-0.111
-0.891
-1.038
-0.535
-1.136
-1.643
0.066
1.609
1.596
1.211
0.546
0.049
-0.043
-0.055
-0.293
-0.373
-0.342
-0.121
0.120
0.354
0.069
-0.117
0.098
0.243
0.259
0.004
0.030
-0.057
-0.022
-0.117
0.087
-0.017
0.025
-0.056
0.055
0.131
0.137
0.069
0.111
0.296
0.119
0.126
0.103
0.062
0.086
0.130
0.172
0.060
0.063
0.163
0.387
0.149
-0.408
-0.059
0.355
0.061
0.275
0.247
0.147
-0.106
-0.046
-0.012
0.106
0.092
0.155
0.101
0.066
0.013
-0.175
0.006
0.251
0.301
0.238
-0.023
0.087
0.098
-0.189
-0.901
0.010
0.403
0.408
0.271
-0.090
-1.628
-0.727
0.426
0.839
0.540
0.163
-0.150
-0.034
-0.283
-0.080
0.155
0.237
-0.987
-0.831
0.621
0.927
0.560
0.207
-0.259
-0.391
-0.362
-0.172
-0.128
-0.121
0.111
0.134
0.129
0.305
0.280
0.129
0.011
0.041
0.048
-0.095
-0.068
0.079
-0.081
-0.097
0.036
0.215
0.241
0.167
0.145
0.067
-1.442
-1.911
0.174
1.024
0.890
0.393
-0.010
-0.165
-0.422
-0.279
-0.028
0.083
0.205
0.325
0.215
0.291
0.254
0.286
0.050
0.351
0.201
-0.292
-0.309
-0.032
-0.090
-0.021
-0.150
0.058
0.004
0.203
-0.026
-0.198
-0.176
0.029
0.017
0.079
0.004
0.074
0.134
-0.003
0.045
0.098
0.029
0.223
0.207
0.244
0.184
0.124
0.032
-0.015
0.104
0.254
0.180
-0.062
-0.141
-0.063
-0.062
-0.005
0.132
-0.069
-0.190
-0.086
-0.239
-0.105
0.203
0.197
-0.951
-0.931
0.610
0.880
0.734
0.341
-1.009
-1.685
-0.226
0.999
1.096
0.690
0.235
-0.624
-1.836
-0.471
0.634
0.862
0.688
0.380
0.050
-0.146
-0.201
-0.039
0.008
0.027
0.286
0.184
-0.002
0.107
0.506
0.403
0.084
-0.084
-0.013
-0.035
-0.223
-0.740
-0.503
-0.173
0.270
0.122
-0.309
-0.562
-0.297
-0.108
-0.154
0.023
-0.058
0.033
0.052
-0.010
0.104
0.132
0.320
0.212
0.032
0.102
0.312
0.211
0.063
0.075
-0.025
0.048
0.032
-0.021
0.021
0.011
0.121
0.005
-0.048
0.084
0.095
0.112
0.097
0.102
0.014
0.041
0.054
0.039
0.057
0.057
0.130
-0.048
0.192
0.090
-0.120
-0.103
0.346
0.369
0.402
0.048
-0.052
-0.047
0.102
0.154
0.070
0.149
0.155
0.106
0.070
-0.261
-0.057
-0.430
-0.946
-0.693
-0.035
0.215
0.057
0.138
-0.131
-0.157
-0.114
-0.144
0.043
0.106
0.174
0.333
0.290
0.332
0.269
0.176
0.227
0.182
0.025
-0.036
0.083
0.111
0.155
0.203
0.157
0.041
-0.043
0.008
0.144
0.125
0.049
0.015
0.038
0.061
0.014
0.038
-0.056
-0.108
-0.164
-0.223
-0.129
-0.107
0.042
-0.003
-0.011
-0.082
-0.071
-0.050
-0.007
0.068
0.145
0.039
-0.048
0.055
0.080
-0.143
0.050
-0.000
-0.137
-0.599
-0.295
0.050
-0.034
-0.118
-0.118
0.118
0.001
-0.017
-0.190
-0.018
-0.074
0.048
0.078
0.244
0.227
0.289
0.399
0.266
0.260
0.118
0.188
0.153
0.185
-0.010
0.008
-0.072
0.087
0.067
-0.062
0.024
-0.125
-0.087
-0.100
-0.062
-0.030
-0.026
-0.131
-0.034
0.247
-2.275
-1.167
0.450
0.982
0.685
0.342
0.051
-0.629
-0.759
-0.332
0.080
0.279
0.578
0.307
0.079
0.211
0.158
0.333
0.242
0.047
-0.077
0.042
0.065
-0.009
-0.083
-0.030
-0.083
-0.020
0.075
-0.069
0.054
0.147
0.033
0.091
0.055
0.121
-0.026
-0.026
0.151
0.040
-0.015
0.038
0.491
0.302
0.269
-0.025
-0.035
-0.738
-0.356
0.349
0.570
0.453
0.427
0.043
-0.083
-0.025
0.030
-0.147
0.079
0.166
0.148
0.190
0.171
0.218
0.109
-0.045
-0.060
-0.117
-0.008
0.045
0.058
-0.071
-0.026
-0.083
-0.021
0.032
-0.120
0.180
0.033
0.079
-0.001
0.154
0.061
0.037
0.094
0.005
0.123
-0.048
0.122
0.042
0.006
0.088
0.081
0.020
0.044
0.135
0.034
-0.059
-0.033
0.035
0.041
-0.017
-1.991
-3.276
-1.239
0.634
1.516
1.558
0.744
-0.054
-0.445
-0.636
-0.501
-0.089
0.447
0.744
1.116
1.142
1.099
0.800
0.436
0.429
0.099
-0.245
-0.376
-0.494
-0.503
-0.417
-0.446
-0.399
-0.256
-0.348
-0.187
-0.228
-0.198
-0.064
-0.059
-0.027
-0.039
-0.006
0.120
0.034
0.031
0.168
0.134
0.202
0.039
0.075
0.075
0.265
0.133
0.145
0.125
0.224
0.173
0.155
0.025
-0.002
0.101
0.200
0.090
0.019
0.183
0.097
0.219
0.130
0.053
0.139
0.127
0.099
0.183
0.199
0.128
0.076
0.131
0.146
0.114
0.122
0.102
0.125
0.105
0.049
0.028
0.200
0.058
0.010
0.119
0.046
-0.024
0.094
0.058
-0.023
0.039
-0.051
-0.033
0.056
-0.077
0.002
0.030
-0.012
-0.040
-0.049
-0.041
-0.071
-0.069
0.003
0.072
-0.170
-0.213
0.043
0.016
0.033
-0.118
-0.089
-0.027
0.069
-0.026
-0.199
-2.030
-3.758
-2.715
1.613
3.452
2.527
0.858
-0.640
-1.169
-1.243
-0.782
-0.046
0.748
1.267
1.549
1.627
1.444
1.084
0.633
0.431
-0.016
-0.176
-0.394
-0.582
-0.594
-0.617
-0.514
-0.423
-0.354
-0.265
-0.116
-0.134
-0.029
0.044
0.020
0.095
-0.034
0.020
0.133
0.303
0.331
-0.208
-0.242
-0.398
0.065
0.437
0.663
0.471
0.330
0.255
0.132
0.161
0.107
0.234
0.273
0.346
0.275
0.279
0.133
0.132
0.183
0.149
0.157
0.126
0.095
0.031
0.065
0.089
0.069
0.112
0.028
0.052
0.211
0.116
0.246
-0.034
0.081
0.208
0.011
0.051
0.257
0.108
0.004
-0.107
0.007
0.058
0.018
-0.007
-0.090
-0.081
-0.035
-0.041
-0.126
-0.242
-0.227
-0.077
-0.171
-0.064
-0.022
-0.155
0.020
0.125
0.004
0.022
-0.084
0.067
-0.030
-0.157
0.061
0.229
-0.262
-0.182
0.225
0.270
0.044
0.143
-0.051
-0.133
-0.127
-0.200
0.117
-0.041
0.087
0.090
0.095
-0.083
-0.097
0.055
-0.029
-0.143
0.032
0.059
-0.077
-0.038
-0.229
0.053
0.054
-0.249
-1.946
-1.454
0.019
1.260
0.989
0.450
-1.290
-2.022
-1.181
0.158
0.948
0.909
0.811
0.614
0.474
0.243
0.407
0.660
0.865
0.746
0.621
0.534
0.459
0.303
0.035
-0.546
-0.648
-0.922
-0.306
0.035
0.136
-0.095
-0.293
-0.411
-0.669
-0.379
-0.272
-0.004
0.189
0.227
0.177
0.324
0.364
0.275
0.190
0.191
0.186
0.165
0.058
0.018
0.034
0.028
-0.153
-0.037
0.144
-0.034
-0.596
-0.996
-0.107
0.737
0.777
0.479
0.182
-0.167
-0.293
-0.198
0.110
0.200
0.326
0.341
0.355
0.473
0.351
0.193
0.112
0.112
0.089
-0.073
-0.024
-0.070
-0.012
0.023
-0.013
0.015
0.035
0.035
0.037
0.024
0.006
0.187
0.007
0.106
0.011
0.047
-0.086
-0.002
0.031
0.070
-0.090
0.016
0.085
-0.003
-2.865
-2.204
0.786
2.832
0.020
-0.784
-0.226
0.009
-0.013
0.028
0.287
0.466
0.620
0.709
0.779
0.921
0.952
0.760
0.575
0.388
0.088
0.043
-0.162
-0.411
-0.502
-1.225
-2.855
-1.214
0.271
0.768
0.523
-0.088
-0.348
-0.397
-0.321
-0.211
0.084
0.201
0.419
0.602
0.498
0.529
0.410
0.273
0.183
0.205
0.013
-0.026
-0.039
-0.183
-0.174
-0.279
-0.027
0.204
0.280
0.408
0.276
0.007
-0.011
0.196
0.174
0.269
0.225
0.173
0.308
0.125
0.077
0.042
0.095
-0.020
-0.090
-0.041
-0.041
0.065
-0.034
-0.058
-0.181
-1.365
-2.802
-0.467
1.103
1.240
0.772
0.206
-0.307
-0.361
-0.332
-0.121
0.079
0.385
0.594
0.675
0.778
0.591
0.397
0.287
0.250
0.129
-0.049
-0.121
-0.183
-0.142
-0.194
-0.041
-0.155
-0.232
-0.067
-0.135
0.068
0.423
0.382
-0.042
-0.045
0.034
-0.029
0.054
-0.081
0.046
0.057
0.052
0.079
0.031
-0.065
-0.019
-0.069
-0.084
-0.463
-0.545
-1.354
-0.954
0.477
0.446
-0.199
0.015
0.096
0.401
0.373
0.263
-0.044
0.154
0.215
0.487
0.586
0.607
-0.241
0.432
0.177
-1.107
-0.491
0.420
0.543
0.220
-0.199
-0.510
-0.527
-0.277
-0.132
-0.014
0.170
0.248
0.313
0.355
0.279
0.219
0.208
-0.023
0.014
0.025
-0.070
-0.149
-0.201
-0.161
0.119
0.187
0.183
-0.005
0.186
0.117
-0.027
0.044
0.136
0.023
-0.072
0.059
0.208
0.098
-0.042
-1.541
-1.414
0.475
1.078
0.467
0.015
-0.415
-0.066
0.201
0.020
0.173
0.110
0.351
0.362
0.298
0.359
0.443
0.341
0.274
-0.445
-1.796
-1.208
0.689
1.165
0.967
0.135
-0.346
-0.335
-0.380
0.008
0.078
0.194
0.422
0.445
0.436
0.362
0.195
0.231
0.069
-0.131
-0.067
-0.171
-0.160
-0.165
-0.177
-0.191
-0.165
-0.083
0.102
0.047
-0.102
-0.116
0.062
0.146
0.078
-0.028
-0.014
-0.083
0.122
0.065
-1.481
-3.300
0.581
3.219
2.900
1.282
-0.166
-0.813
-1.071
-0.742
-0.209
0.312
0.892
1.090
1.013
0.887
0.749
0.504
0.258
-0.039
-0.211
-0.296
-0.531
-0.321
-0.401
-0.199
-0.290
-0.142
-0.162
0.117
-0.031
0.128
0.099
0.130
0.180
0.126
0.184
0.074
0.081
0.089
0.139
0.181
0.169
0.213
0.217
0.090
0.081
0.021
-0.233
-1.235
-1.075
-0.251
0.647
0.697
0.019
-0.227
-0.161
0.020
0.000
-0.042
0.133
0.165
0.513
0.853
1.056
0.780
0.565
0.447
0.303
0.300
0.161
0.127
0.044
0.022
-0.221
-2.046
-3.037
-1.203
0.475
1.058
0.726
0.028
-0.572
-0.694
-0.854
-0.378
-0.011
0.182
0.579
0.798
0.720
0.610
0.458
0.378
0.079
0.034
-0.185
-0.209
-0.282
-0.339
-0.272
-0.144
-0.266
-0.199
-0.134
-0.166
0.163
0.014
0.083
0.035
0.084
0.021
0.110
-0.118
0.124
0.051
0.039
0.172
0.086
0.358
0.518
0.255
0.192
0.150
0.172
0.145
0.102
0.140
0.268
0.150
0.210
0.115
0.088
0.078
0.041
-0.085
-0.121
-0.049
-0.008
0.237
0.040
-0.163
-0.589
-0.535
-0.068
0.011
0.064
0.087
0.162
0.110
0.045
-0.079
-0.133
-0.270
-0.104
0.063
-0.078
-0.145
0.218
0.464
0.521
0.372
0.101
-0.008
0.009
0.053
0.084
0.172
0.140
0.274
0.198
0.172
0.071
0.022
-0.070
0.067
0.085
0.004
-0.262
-0.199
-0.121
-0.061
-0.105
-0.233
-0.235
-0.168
-0.145
0.017
-0.036
0.032
0.041
-0.029
0.059
-0.074
-0.030
-0.089
-0.108
0.078
0.084
0.055
-0.016
-0.076
-0.039
0.101
0.133
-0.012
0.085
-0.076
-0.122
0.037
0.010
-0.094
-0.082
-0.260
-0.420
-0.603
-1.400
-0.700
0.558
0.931
0.739
0.328
0.033
-0.112
-0.170
0.079
0.295
0.460
0.567
0.702
0.697
0.416
0.467
0.334
0.172
0.171
0.084
0.035
-0.215
-0.126
-0.348
-0.219
-1.472
-0.875
0.297
0.655
0.350
-0.254
-0.528
-0.531
-0.273
-0.024
-0.081
-0.123
0.082
0.116
0.206
0.039
0.088
0.155
0.160
0.071
0.157
0.290
0.094
-0.010
-0.085
0.054
0.074
0.119
0.152
0.030
-0.052
0.089
0.045
0.051
0.042
0.027
0.351
0.284
0.254
0.188
0.109
0.046
0.145
0.073
0.117
0.155
0.089
0.145
0.122
0.062
0.072
-0.101
-0.070
0.010
-0.076
-0.053
0.000
-0.040
0.027
-0.042
-0.007
0.034
-0.061
-0.018
0.051
0.202
-0.079
-0.162
-0.102
-0.032
0.124
0.120
-0.004
0.002
0.023
-0.004
-0.071
0.021
0.217
0.180
0.069
0.011
0.012
0.118
0.188
0.018
0.005
-0.021
0.082
0.138
-0.088
0.115
0.140
-0.064
0.018
-0.094
0.019
0.028
0.054
0.057
-0.006
-0.003
-0.066
0.050
0.056
0.034
0.044
-0.072
0.000
-0.010
0.144
0.130
0.016
-0.013
-0.033
-0.076
-0.042
-0.000
-0.113
0.027
0.048
-0.044
-0.080
-0.091
-0.039
0.027
-0.009
-0.118
-0.054
0.032
0.012
-0.065
-0.164
-0.049
0.087
-0.008
0.028
-0.078
-0.013
0.045
-0.151
0.036
0.132
0.080
-0.033
0.017
0.058
-0.120
-0.016
0.085
0.020
-0.030
0.156
-0.023
0.091
0.125
0.136
-0.006
-0.099
0.028
0.137
0.025
0.042
0.146
-0.097
-0.113
0.121
0.012
0.037
0.074
0.111
0.201
-0.085
-0.011
0.095
0.058
0.014
-0.082
0.109
0.160
0.149
0.076
0.086
-0.049
0.036
0.098
-0.023
-0.059
0.140
0.116
0.008
0.034
0.018
0.018
0.021
0.093
0.000
-0.009
-0.011
-0.010
0.048
-0.045
-0.024
0.029
0.006
-0.005
0.108
-0.008
-0.062
0.030
-0.103
-0.158
-0.694
-1.176
-1.821
-1.616
-0.337
-0.256
0.124
0.270
0.336
-0.021
-0.317
-0.074
0.172
0.619
0.663
0.808
1.094
1.276
1.394
1.190
0.873
0.554
0.412
0.177
0.070
-0.158
-0.310
-0.385
-0.458
-0.442
-0.484
-0.570
-0.577
-0.432
-0.308
-0.357
-0.243
-0.320
-0.200
-0.172
-0.160
-0.073
-0.005
-0.055
-2.110
-2.210
-0.612
1.383
2.006
1.094
-2.054
-1.687
0.553
0.869
0.873
-0.877
0.038
0.887
1.406
1.381
1.111
0.760
0.671
0.514
0.122
-1.283
0.096
0.945
0.899
0.586
0.172
-0.093
-0.357
-0.531
-0.335
-0.351
-0.064
0.041
0.170
0.108
0.064
0.120
0.039
0.018
0.041
0.123
-0.074
-0.258
-0.094
-0.055
-0.026
-0.197
-0.071
0.046
0.379
0.224
-0.018
-0.106
-0.104
0.073
-0.010
0.095
0.048
0.171
0.244
-0.314
-0.515
-0.001
0.257
0.337
0.143
0.050
-0.217
-0.107
-0.098
0.260
0.147
0.246
0.194
0.225
0.106
0.197
0.214
0.049
0.042
0.035
-0.006
0.100
0.032
-0.025
0.051
0.057
0.079
0.041
0.089
0.080
0.043
0.047
0.033
0.016
-0.014
-0.055
0.027
0.160
0.057
0.060
0.051
-0.054
-0.021
0.015
-0.040
0.068
-0.071
-0.030
-0.035
-0.042
-0.044
0.033
-0.015
0.007
-0.006
0.081
-0.075
0.141
-0.108
0.001
0.086
-0.088
-0.021
0.027
0.063
-0.032
-0.064
-0.140
-0.605
-3.319
-1.658
2.592
3.756
2.666
0.827
-0.398
-1.261
-1.320
-1.322
-1.050
0.756
1.889
2.102
1.559
1.099
0.800
0.589
0.387
0.133
-0.063
-0.522
-0.592
-0.477
-0.610
-0.565
-0.167
-0.024
0.029
0.078
0.056
0.013
0.043
0.194
0.115
0.134
0.140
0.085
0.145
0.094
0.066
0.123
0.068
0.146
0.260
0.200
0.208
0.168
0.244
0.245
0.317
0.136
0.258
0.236
0.162
0.230
0.159
0.226
0.193
0.311
0.147
0.103
0.104
0.069
0.127
0.225
0.135
0.080
0.109
0.035
0.009
0.028
0.096
0.073
-0.042
-0.121
-0.423
-0.562
-0.369
-0.821
-0.758
-0.399
0.067
0.140
-0.037
-0.139
-0.286
-0.177
0.269
0.470
0.358
0.181
0.202
0.331
0.281
0.325
0.326
0.339
0.349
0.111
0.011
-0.155
-0.174
-0.328
-0.423
-0.428
-0.347
-0.354
-0.203
-0.117
-0.147
-0.224
-0.128
-0.019
-0.075
-0.114
0.070
-0.003
-0.064
0.005
-0.036
-0.093
0.061
-0.009
0.035
0.137
0.099
-0.042
0.074
0.146
0.053
-0.022
0.064
0.040
0.105
-0.013
0.105
0.094
0.056
0.058
-0.002
-0.097
0.111
0.108
0.102
-0.106
-0.063
0.237
0.155
0.093
-0.355
-0.072
0.301
0.302
0.088
0.024
0.054
0.193
0.099
0.162
0.101
0.073
0.136
-0.027
0.051
0.088
0.097
-0.046
0.142
-0.012
0.023
-0.045
-0.119
-0.128
-0.097
0.009
-0.135
-0.135
-0.133
-0.094
-0.090
0.029
0.049
0.000
-0.164
-0.025
-0.109
0.098
-0.078
0.045
0.025
-0.018
0.031
0.027
0.061
0.027
0.000
0.114
-0.033
0.096
-0.031
-0.058
0.105
0.091
0.220
0.093
0.095
-0.021
0.087
0.054
-0.065
0.155
0.009
-0.004
0.014
0.054
0.177
0.125
0.125
-0.024
-0.043
-0.023
0.054
0.208
0.041
0.076
0.107
0.108
-0.095
0.035
0.028
0.082
-0.039
0.099
0.064
0.071
0.161
0.178
0.033
0.177
-0.035
0.128
-0.006
0.056
0.036
-1.894
-1.954
0.010
1.103
1.412
0.818
0.044
-0.542
-0.780
-0.276
0.227
0.497
0.570
0.581
0.654
0.540
0.431
0.369
0.345
0.034
0.106
-0.145
-0.115
-0.162
-0.232
-0.189
-0.416
-0.642
-0.732
-0.582
-1.514
0.126
-0.370
0.089
0.931
0.781
0.281
0.007
-0.162
-0.172
0.069
0.163
-0.249
-0.127
0.438
0.378
0.346
0.533
0.353
-0.061
-0.315
-0.332
-0.465
-0.321
-0.353
-0.098
0.019
0.180
0.295
0.273
0.104
0.304
0.383
-0.195
-0.074
0.203
0.404
-0.021
-0.731
-0.141
0.084
0.202
0.116
-0.059
-0.074
0.060
-0.146
-0.205
-0.118
-0.251
-0.472
0.309
0.457
0.388
0.064
-0.148
-0.115
-0.113
0.009
0.121
0.257
0.320
0.198
0.205
0.241
0.172
0.186
0.016
0.059
0.017
0.126
0.025
0.096
-0.012
0.093
-0.017
0.163
-0.012
0.100
0.147
0.069
0.020
0.038
0.116
0.023
0.044
0.195
0.108
0.049
0.006
0.046
0.133
-0.075
0.056
0.046
0.078
0.014
0.049
0.023
-0.144
-0.410
-0.280
-0.865
-2.618
0.564
1.829
1.160
0.268
-0.358
-0.518
-0.265
-0.235
0.093
0.308
0.564
0.500
0.393
0.111
-0.049
0.191
0.103
0.142
-0.014
-0.264
-0.290
-0.225
-0.248
-0.346
-0.138
-0.083
-2.803
-2.510
0.225
1.347
1.656
1.285
0.318
-0.402
-0.584
-0.613
-0.140
0.196
0.668
0.936
0.975
0.904
0.640
0.366
-0.270
-0.411
-0.289
-0.339
-0.166
-1.852
-0.031
-0.159
0.095
-0.142
-1.647
-1.257
0.057
0.840
0.953
0.931
0.772
0.415
0.178
0.230
0.375
0.363
0.533
0.364
0.494
0.416
0.309
0.193
-0.124
-0.224
-0.225
-0.683
-0.381
-1.268
-1.760
0.288
0.969
0.483
-0.320
-0.135
-0.073
-0.034
-0.102
-0.345
0.139
0.751
0.896
0.523
0.432
0.255
0.354
0.065
0.140
0.167
-0.013
0.048
0.096
0.184
-0.023
-0.210
-1.238
-0.136
0.415
0.503
0.299
-0.020
-0.209
-0.188
-0.042
0.126
0.075
0.066
0.111
0.232
0.282
0.097
0.172
0.056
0.126
-0.064
-0.083
0.087
-0.074
-0.011
0.067
0.018
-0.042
0.062
-0.085
-0.035
0.053
0.077
0.099
-0.010
0.054
0.036
-0.060
0.062
-0.057
0.056
-0.075
-0.036
0.154
-0.013
0.061
-0.048
-0.004
0.046
-0.055
0.081
0.051
0.087
0.047
-0.020
-0.057
-0.061
0.142
0.170
0.020
0.059
-0.044
0.038
0.006
-0.075
0.063
0.090
-0.011
0.037
-0.006
0.063
-0.010
-0.002
-0.027
0.027
-0.047
-0.182
-0.035
0.057
0.053
0.059
0.070
0.009
0.027
0.004
-0.034
0.045
0.096
-0.016
0.018
-0.067
0.133
0.099
0.163
-0.180
0.006
-0.026
0.041
0.094
0.022
-0.088
-0.027
0.023
0.082
0.032
-0.028
-0.049
0.054
0.076
-0.038
0.117
-0.075
-0.002
0.081
-0.010
0.034
-0.048
0.087
0.006
-0.068
0.004
0.095
0.048
-0.020
-0.144
-0.045
0.016
0.143
-0.086
0.085
0.034
-0.050
0.075
-0.003
0.070
-0.044
0.122
-0.214
0.078
0.108
0.112
-0.108
-0.014
-0.029
-0.127
0.121
0.027
0.039
-0.027
0.070
-0.033
-0.028
0.004
-0.007
-0.047
0.092
0.052
0.044
0.072
-0.018
-0.021
-0.018
0.024
0.060
-0.040
0.008
0.059
-0.097
-0.026
0.076
-0.097
0.104
0.018
-0.056
0.036
0.044
0.013
-0.015
0.121
0.028
0.030
-0.030
-0.034
-0.017
-0.036
-0.087
0.064
-0.006
-0.009
0.058
0.009
0.020
0.088
0.122
0.081
-0.058
-0.059
0.101
-0.030
0.039
0.116
0.072
0.009
0.025
-0.002
-0.014
-0.025
-0.066
0.077
-0.029
-0.000
0.003
-0.032
0.089
0.101
0.083
0.090
-0.048
0.026
0.093
0.027
0.021
-0.037
0.069
0.087
0.097
0.077
0.003
-0.083
0.178
-0.081
-0.067
-0.159
-0.284
-0.555
-0.707
-0.735
-0.637
-0.633
-0.131
-0.185
-0.174
-0.353
-0.447
-0.202
-0.299
-0.321
-0.183
0.108
0.411
0.492
0.372
0.296
0.336
0.342
0.657
0.413
0.184
0.048
-0.576
-1.440
-3.439
-3.530
0.194
3.117
3.917
2.781
0.726
-0.821
-1.411
-0.828
-0.133
0.624
0.268
0.474
0.862
1.748
1.989
1.218
0.358
-0.476
-1.029
-1.375
-1.278
-1.223
-0.822
-0.538
-0.138
-0.106
0.133
0.155
0.280
0.106
0.066
0.113
0.057
0.051
0.028
-0.016
0.303
0.049
0.212
0.217
0.349
0.284
0.403
0.395
0.374
0.547
0.343
0.305
0.358
0.556
0.349
0.451
0.386
0.359
0.419
0.258
0.401
0.352
0.284
0.318
0.232
0.248
0.236
0.277
0.187
0.218
0.149
0.096
0.206
0.116
0.055
-0.057
0.057
-0.104
0.095
-0.113
-0.132
-0.079
-0.063
-0.049
-0.068
-0.143
-0.207
-0.149
-0.173
-0.190
-0.067
0.067
-0.296
-0.264
-0.245
-0.083
-0.102
-0.169
-0.129
-0.161
-0.128
-0.157
-0.089
-0.040
-0.047
-0.146
-0.066
-0.040
-0.085
-0.061
-0.017
-0.021
-0.089
-0.108
0.019
-0.132
-0.027
0.035
0.003
0.013
0.035
0.148
-0.154
-0.051
-0.050
0.119
0.120
0.207
-0.012
0.111
0.133
0.121
-0.031
0.054
0.138
0.182
0.024
0.038
-0.135
-1.893
-2.266
2.326
3.376
2.166
0.568
-0.595
-1.125
-1.027
-0.443
-0.089
0.230
-2.974
-0.064
3.213
4.135
3.414
0.293
-2.010
-2.771
-2.379
-1.382
-0.014
1.217
1.934
2.499
2.426
2.293
1.853
1.329
0.621
0.095
-0.359
-0.527
-0.667
-0.816
-0.739
-0.498
-0.584
-0.257
-0.080
0.088
0.159
0.268
0.328
0.347
0.503
0.304
0.374
0.345
0.308
0.310
0.402
0.455
0.422
0.353
0.448
0.396
0.436
0.237
0.374
0.655
0.418
0.230
0.073
0.186
0.311
0.393
0.370
0.243
0.221
0.118
0.148
0.176
0.086
-0.002
0.101
0.234
-0.019
0.071
0.053
0.089
-0.097
0.020
-0.039
-0.187
-0.115
-0.039
-0.138
-0.266
-0.216
-0.091
-0.160
-0.121
-0.276
-0.187
-0.191
-0.144
-0.178
-0.081
-0.158
-0.158
-0.182
-0.217
-0.105
-0.076
-0.166
-0.193
-0.040
-0.034
-0.126
-0.051
-0.025
-0.078
0.021
-0.067
-0.001
0.080
-0.030
-0.015
0.057
0.191
-0.029
0.139
-0.015
0.026
0.096
0.142
0.111
0.135
-0.014
0.062
0.152
0.096
0.073
-0.011
0.164
0.088
0.105
0.091
0.171
0.023
0.037
-0.076
0.010
0.020
0.080
0.030
-0.028
0.039
-0.021
0.057
0.137
-0.076
-0.021
0.047
-0.043
0.083
0.001
0.092
-0.021
-0.100
0.093
-0.077
0.160
-0.006
0.064
-0.136
0.008
0.012
-0.033
0.330
0.333
-0.094
-0.675
-0.306
0.117
0.277
0.083
0.073
-0.073
-0.028
0.109
0.052
-0.059
0.040
0.217
0.082
0.134
0.285
0.167
-0.509
-0.574
-0.171
0.293
0.379
0.354
0.124
0.047
0.068
0.140
-0.024
-0.035
-0.053
0.172
0.261
0.340
0.266
0.222
0.169
0.069
0.025
-0.017
-0.001
-0.227
-0.034
-0.204
-0.091
-0.197
-0.114
-0.068
0.065
-0.019
0.051
0.046
0.001
0.004
-0.041
0.139
0.056
0.087
-0.091
-0.046
-0.146
0.014
0.068
0.017
0.012
0.045
0.029
-0.045
0.255
0.009
0.056
0.032
0.030
0.025
0.099
0.224
-0.044
0.109
0.065
0.106
0.081
-0.034
0.032
0.125
0.068
0.104
0.030
-0.011
-0.011
0.086
0.020
0.106
0.129
0.077
0.124
0.014
-0.048
0.090
0.032
0.064
-0.027
-0.106
0.114
-0.020
-0.068
0.007
0.222
-0.143
-0.064
-0.025
-0.010
0.014
0.117
-0.119
0.061
-0.092
-0.003
0.142
-0.071
-0.068
0.071
0.003
-0.070
0.058
0.065
0.139
-0.067
0.050
-0.023
-0.060
-0.054
-0.098
-0.006
-0.034
0.072
0.001
-0.090
-0.060
0.071
-0.009
-0.004
-0.013
-0.082
-0.034
0.021
0.074
0.061
-0.070
0.010
-0.049
0.092
0.122
-0.095
0.040
-0.001
0.085
0.021
0.066
0.072
-0.037
-0.032
0.073
0.122
0.086
0.053
0.025
-0.036
0.019
-0.001
-0.042
0.019
0.079
0.133
0.002
0.025
-0.055
0.118
-0.145
0.038
-0.031
-0.045
0.083
0.034
0.077
0.047
0.074
-0.522
-0.490
0.069
-0.324
-3.047
-2.422
2.604
4.096
3.268
0.301
-2.575
-3.945
-4.057
-1.817
1.326
2.819
3.026
2.316
1.569
1.179
1.048
0.691
0.573
0.427
0.238
0.259
0.067
0.019
0.018
0.038
0.025
-0.069
-0.226
-0.263
-2.094
-1.606
-1.246
-0.551
-0.153
-0.134
0.471
0.427
-0.127
-0.434
-0.163
0.153
0.544
0.651
0.764
0.991
0.893
0.850
0.720
0.617
0.300
0.294
0.230
0.070
-0.260
-0.186
-0.061
-0.189
-0.100
0.050
0.060
0.013
-0.092
-0.021
-0.555
-0.801
-0.187
0.687
0.885
1.143
0.864
0.229
0.107
0.068
0.071
-0.065
0.322
0.580
0.669
0.250
-0.164
0.413
0.533
0.174
-0.206
-0.295
-0.315
-0.343
-0.334
-0.204
-0.168
-0.050
-0.137
-0.005
-0.154
-0.188
-0.353
-0.072
0.033
0.145
0.022
-0.155
-0.122
-0.205
-0.074
-0.121
-0.014
-0.660
-3.347
-0.305
2.354
2.539
1.414
0.293
-0.403
-0.806
-0.520
-0.269
0.105
0.607
0.818
1.094
1.032
1.075
0.586
0.462
0.387
0.061
-0.270
-0.377
-0.386
-0.294
-0.369
-0.216
-0.317
-0.110
0.051
-0.084
-2.135
-3.076
0.439
2.553
2.316
-0.128
-1.519
-0.573
0.007
0.309
0.595
0.538
0.755
0.778
0.648
0.785
0.881
0.625
0.645
0.523
0.269
0.284
0.018
-0.111
-0.088
-0.199
-0.212
-0.300
-0.178
-0.004
-0.094
-0.160
0.005
0.001
0.179
0.112
-0.015
-0.052
0.002
0.081
-0.032
-0.026
0.007
0.110
0.038
-0.025
0.073
0.187
0.065
-0.016
0.044
-0.087
0.174
0.205
-0.093
0.116
0.152
-0.036
0.052
0.070
0.088
-0.152
0.216
0.055
-0.097
0.017
0.026
0.021
0.118
-0.011
-0.100
0.101
0.017
-0.042
-0.023
0.056
0.043
-0.050
0.052
0.004
0.051
-0.031
-0.022
-0.052
-0.037
-0.020
-0.074
-0.008
-0.019
-0.038
-0.134
-0.088
-0.008
-0.039
0.014
-0.124
-0.042
-0.105
-0.034
0.123
0.077
-0.024
-0.023
-0.074
0.032
0.029
0.072
-0.158
-0.123
0.046
0.031
0.088
0.122
-0.062
-0.025
0.007
0.052
0.039
0.009
0.041
0.056
0.086
-0.055
-0.041
-0.056
-0.065
0.219
0.143
0.045
-0.034
-0.205
-0.426
0.082
0.510
0.425
0.134
0.118
0.123
-0.015
0.120
0.149
0.165
0.185
-0.032
0.117
-0.054
-0.225
-0.060
-0.390
-2.439
-2.995
1.862
3.218
2.013
0.546
-0.562
-0.928
-0.799
-0.377
-0.002
0.522
0.897
0.937
0.849
0.870
0.543
0.287
0.010
-0.143
-0.388
-0.416
-0.549
-0.459
-0.466
-0.191
-0.243
-0.170
-0.166
0.068
0.009
0.085
0.061
0.108
0.162
0.122
0.053
0.049
0.135
0.114
0.111
0.092
0.123
0.077
0.178
0.037
0.208
0.245
0.063
0.256
0.069
0.206
0.260
0.138
0.119
0.177
0.147
0.046
0.141
0.232
0.103
0.095
0.059
0.091
0.033
-0.085
-3.070
-2.178
2.679
4.110
4.322
1.474
-1.625
-3.142
-2.914
-1.698
0.066
1.543
2.771
3.191
3.254
2.738
2.166
1.257
0.331
-0.452
-0.997
-1.232
-1.394
-1.329
-1.300
-1.099
-0.792
-0.505
-0.197
-0.095
-0.063
0.126
0.282
0.186
0.376
0.328
0.323
0.266
0.132
0.216
0.332
0.379
0.281
0.258
0.221
-1.768
-3.287
1.189
3.977
4.151
2.422
0.862
-0.636
-1.086
-0.923
-0.135
0.721
1.275
1.896
2.123
2.042
1.614
1.326
0.692
0.299
-0.131
-0.480
-0.656
-0.718
-0.803
-0.732
-0.623
-0.417
-0.258
-0.139
-0.134
-0.182
0.030
0.098
0.081
0.050
0.228
0.072
-0.058
0.069
0.026
-0.023
0.112
-0.034
0.159
0.021
0.004
0.091
0.183
0.170
0.148
0.105
0.146
0.155
0.172
0.217
0.222
0.143
0.158
0.122
0.249
0.191
0.112
0.237
0.015
-0.003
0.048
0.089
0.085
0.138
0.010
0.093
0.054
0.002
-0.054
-0.048
0.025
-0.176
-0.048
-0.008
0.027
0.030
-0.084
-0.122
-0.043
-0.066
-0.115
-0.114
-0.136
-0.023
0.048
-0.015
-0.146
-0.115
-0.199
-0.023
-0.055
-0.055
-0.120
-0.051
-0.096
-0.099
-0.021
0.001
-0.035
0.009
-0.013
-0.094
-0.085
0.030
-0.018
0.093
0.144
-0.028
0.092
0.059
-0.094
-0.119
0.162
0.028
0.172
-0.018
0.085
0.094
0.002
0.081
0.052
0.087
0.138
0.086
0.124
0.043
0.027
-0.042
0.000
0.156
0.035
0.133
0.164
0.007
0.029
0.033
0.099
-0.059
0.173
0.006
-0.043
0.078
0.089
0.130
0.098
-0.068
-0.069
0.050
0.035
-0.053
0.101
-0.080
-0.090
-0.054
-0.117
0.108
-0.053
0.149
-0.056
0.010
-0.051
-0.168
-0.003
-0.083
0.009
-0.002
0.056
-0.014
0.015
-0.022
-0.078
-0.025
0.071
-0.080
-0.018
0.025
0.018
0.023
0.028
0.011
-0.018
0.079
-0.032
0.007
0.118
0.020
-0.060
0.001
0.000
-0.124
0.179
-0.015
-0.094
0.090
0.035
0.094
-0.030
0.043
-0.058
0.019
0.030
0.057
0.214
-0.100
0.084
0.070
-0.016
0.059
0.062
-0.123
-0.087
0.105
0.112
0.019
-0.028
0.034
-0.018
0.175
0.034
0.084
-0.058
-0.013
-0.063
0.135
0.101
-0.084
-0.017
0.017
0.025
0.045
-0.100
0.088
-0.023
0.144
0.077
0.099
0.043
-0.160
-0.105
0.025
0.070
0.046
0.044
0.028
-0.033
0.096
-0.088
-0.028
-0.063
-0.011
0.176
-0.033
0.029
0.052
0.031
-0.044
0.001
0.258
0.051
0.044
0.045
-0.023
0.014
0.019
0.049
0.082
-0.010
0.061
0.030
-0.091
-0.089
0.001
0.013
0.045
0.073
-0.078
0.059
-0.020
0.050
0.037
0.077
-0.137
-2.860
-2.626
2.527
4.043
4.397
1.414
-2.406
-4.049
-3.971
-2.647
-0.144
2.335
3.830
4.369
4.402
4.261
3.800
2.745
1.509
0.458
-0.524
-1.365
-1.740
-1.838
-1.708
-1.543
-1.272
-0.881
-0.605
-0.333
0.037
0.209
0.247
0.400
0.842
0.864
0.583
0.480
0.265
0.364
0.443
0.492
0.579
-0.857
0.404
1.255
1.249
0.780
0.465
0.283
0.204
0.118
0.197
0.572
0.655
0.671
0.621
0.736
0.631
0.536
0.371
0.381
0.485
0.500
0.329
0.295
0.300
0.212
0.343
0.126
0.176
0.030
0.058
-0.005
0.061
-0.048
-0.019
-0.124
-0.191
-0.107
-0.346
-0.579
-0.302
0.099
0.243
0.163
-0.223
-0.251
-0.313
-0.291
-0.235
-0.162
-0.262
-0.235
-0.152
-0.217
-0.259
-0.259
-0.143
-0.382
-0.311
-0.095
-0.059
-0.161
-0.200
-0.224
-0.125
-0.106
0.039
-0.050
0.003
0.142
0.099
0.196
0.018
-0.102
-0.027
-0.069
0.022
-0.031
-0.058
-0.013
0.064
0.002
0.086
0.037
-0.365
-3.148
-3.568
-1.773
0.485
1.810
1.662
0.813
0.129
-0.457
-0.609
-0.272
0.126
0.613
1.194
1.591
1.649
1.642
1.391
1.044
0.654
0.373
0.003
-0.317
-0.386
-0.584
-0.624
-0.651
-0.481
-0.520
-0.286
-0.280
-0.267
-0.077
-0.226
-0.145
0.129
-0.079
-0.117
0.218
-0.098
0.104
0.197
0.161
-0.105
0.155
0.180
-0.112
-0.121
0.065
-0.897
-0.191
0.442
0.426
0.439
0.187
0.283
0.307
0.235
0.152
0.213
0.285
0.356
0.328
0.749
0.788
0.628
0.395
0.230
0.213
0.134
0.148
-0.002
0.010
-0.000
0.016
-0.065
-0.115
0.026
0.079
0.142
-0.120
-0.027
-0.008
0.002
0.042
0.060
-0.105
0.027
-0.087
-0.060
-0.123
-0.081
-0.150
0.040
0.073
-0.061
-0.136
-0.014
-0.029
-0.054
-0.038
-0.039
-0.014
0.003
-0.163
-0.058
0.240
-2.369
-0.705
0.860
1.141
0.791
0.040
-0.324
-0.710
-0.385
-0.413
-0.358
0.271
-0.498
-0.071
0.337
0.244
0.062
0.788
0.792
0.339
0.124
-0.040
-0.069
0.091
0.440
0.400
0.465
0.501
0.438
0.280
0.147
0.081
-0.214
-0.326
-0.920
-2.356
-1.690
-0.847
-0.415
0.034
0.262
0.223
0.066
-0.170
-0.259
-0.126
0.127
0.208
0.507
0.692
0.877
0.855
0.744
0.685
0.405
0.226
0.050
0.002
-0.177
-0.278
-0.387
-0.257
-0.254
-0.285
-0.199
-0.184
-0.172
-0.166
-0.027
0.051
-0.067
-0.122
-0.027
0.013
0.002
-0.005
0.043
0.065
0.072
-0.130
0.089
0.181
0.090
0.093
-0.007
0.029
0.035
0.205
0.074
0.052
0.163
0.104
0.172
0.099
0.140
0.049
0.185
0.099
0.222
0.037
0.064
0.237
0.137
0.114
0.018
0.149
0.091
0.088
0.152
0.068
-0.022
-0.034
-0.009
0.091
-0.017
0.032
0.034
-0.058
-0.006
0.354
0.220
-0.335
-0.287
0.001
0.187
-0.014
-0.047
0.097
0.201
0.264
0.173
0.042
0.050
-0.121
-0.042
0.088
0.243
0.043
-2.158
-0.471
0.950
1.160
0.749
0.074
-0.396
-0.523
-0.357
-0.392
-1.101
-0.516
0.570
1.238
0.968
0.511
0.153
-0.233
-0.456
-1.576
-0.444
0.305
0.687
0.520
0.195
0.032
-0.095
-0.148
-0.164
0.004
0.064
0.074
0.248
0.271
0.275
0.193
0.069
-0.084
-0.073
0.052
0.071
0.264
0.277
0.277
-0.450
-0.271
0.152
-0.271
-0.039
0.517
0.483
0.348
0.097
0.111
0.039
-0.147
0.041
0.125
0.141
0.047
0.075
0.053
-0.027
-0.058
0.024
-0.051
-0.109
-0.088
-0.818
-0.623
0.074
0.505
0.111
-1.750
-1.422
0.024
0.795
0.687
0.361
0.101
-0.111
-0.004
0.124
0.135
0.362
0.321
0.690
0.524
0.526
0.424
0.195
0.204
-0.060
-0.109
0.020
-0.171
-0.147
-0.234
-0.171
0.166
-0.210
-0.185
-0.119
-0.008
-0.037
-0.104
0.112
-0.164
-0.043
-0.139
-0.069
-0.028
-0.250
0.150
0.177
-0.079
0.004
0.035
0.197
0.169
-0.087
-0.342
-0.352
-0.160
0.083
0.179
0.176
0.052
-0.033
0.021
-0.096
-0.040
-0.012
0.061
0.087
0.040
0.267
0.366
0.305
0.268
0.160
0.231
0.133
0.143
-0.183
-1.018
0.331
0.692
0.612
0.162
-0.053
-0.089
-0.141
-0.115
-0.036
0.109
0.080
0.137
0.192
0.172
0.093
-0.033
-0.008
0.128
0.141
0.010
-0.085
-0.077
0.029
-0.131
-0.029
0.010
0.051
0.098
0.079
-0.060
0.185
0.063
0.078
0.071
-0.000
-0.005
-0.162
0.161
0.108
0.075
-0.097
0.049
0.009
0.033
0.090
0.127
0.050
0.027
0.042
0.030
0.025
-0.020
-0.107
0.106
0.225
-0.041
0.037
-0.081
0.133
0.004
0.110
-0.008
0.011
-0.062
0.039
0.002
0.077
-0.101
0.006
-0.163
-0.289
-0.308
-0.479
0.119
0.340
0.297
0.140
-0.020
0.056
-0.061
-0.091
0.107
0.065
0.245
0.183
0.137
0.234
0.065
0.097
-0.039
0.061
-0.055
-0.046
-0.005
-0.129
-0.005
-0.037
-0.113
-0.079
-0.022
0.155
0.099
-0.070
-0.100
-0.015
0.084
0.157
0.124
0.031
-0.089
0.020
-0.073
-1.915
-1.900
-3.421
1.085
3.729
3.315
1.127
-0.613
-1.467
-1.284
-0.499
0.069
1.009
1.507
1.639
1.586
1.346
1.052
0.519
0.212
-0.235
-0.489
-0.602
-0.465
-0.672
-0.738
-0.415
-0.396
-0.208
-0.179
-0.097
-0.048
0.031
0.061
0.072
0.022
0.181
0.108
0.091
0.060
0.121
0.004
-0.063
0.071
0.115
0.213
0.198
0.157
0.122
-0.013
0.185
0.223
0.144
0.207
0.297
0.115
0.118
0.207
0.200
0.003
0.185
0.182
0.194
0.165
0.038
0.108
0.029
0.229
-0.035
-0.510
-2.877
-0.287
1.633
1.393
0.716
-0.061
-0.329
-0.460
-0.268
-0.103
0.081
-1.778
-3.677
-1.058
3.001
4.114
2.801
0.563
-0.651
-1.215
-1.563
-0.941
-0.134
0.808
1.337
2.113
2.181
1.811
1.509
0.924
0.392
-0.119
-0.661
-0.913
-1.107
-0.954
-1.008
-1.046
-0.866
-0.548
-0.312
-0.237
-0.146
0.025
0.152
0.208
0.251
0.286
0.193
0.130
0.261
0.190
0.314
0.340
0.432
0.352
0.414
0.422
0.432
0.220
0.351
0.354
0.406
0.399
0.468
0.313
0.328
0.262
0.364
0.312
0.196
0.187
0.245
0.362
0.233
0.185
0.163
0.154
0.132
0.151
0.015
0.010
0.029
0.112
-0.882
-3.304
-1.528
-1.515
-0.044
3.283
3.053
1.070
-0.704
-1.272
-1.172
-0.706
0.104
0.863
1.296
1.555
1.414
1.080
0.841
0.371
-0.071
-0.327
-0.594
-0.716
-0.902
-0.888
-0.785
-0.675
-0.490
-0.363
-0.225
-0.177
-0.093
-0.176
0.066
0.091
0.103
0.116
-0.048
0.127
0.018
0.144
0.114
0.185
0.096
0.076
0.162
0.198
0.297
0.156
0.328
0.264
0.180
0.246
0.137
0.249
0.327
0.191
0.171
0.170
0.196
0.215
0.329
0.205
0.019
0.144
0.112
0.097
0.221
0.066
-0.037
0.102
0.108
0.124
0.077
-0.059
-0.041
-0.037
-0.102
0.118
0.027
-0.036
-0.160
-0.010
-0.012
-0.077
-0.031
-0.093
-0.060
-0.116
-0.053
-0.001
0.026
-0.054
-0.048
-0.016
-0.029
0.064
-0.013
-0.072
-0.003
-0.076
0.004
-0.059
-0.079
0.068
0.038
0.010
0.035
0.053
-0.004
0.029
-0.058
0.020
0.016
0.054
-0.013
0.173
-0.012
-0.009
0.003
0.020
0.182
-0.110
0.047
0.128
-0.003
-0.064
0.081
-0.003
-0.019
0.026
-0.071
0.005
0.109
-0.068
0.005
0.059
-0.097
-0.044
-0.162
0.039
-0.075
0.034
-0.035
0.015
-0.020
-0.038
-0.010
0.136
0.068
0.028
0.025
-0.076
-0.119
0.010
0.056
0.003
0.133
0.020
0.080
-0.088
-0.027
-0.039
0.030
0.046
-0.091
0.187
0.045
0.057
-0.275
-2.222
-3.766
-1.715
2.899
4.260
4.428
1.998
-0.975
-2.635
-2.469
-1.335
0.290
1.608
2.780
3.278
3.416
2.825
2.160
1.242
0.478
-0.244
-0.799
-1.219
-1.435
-1.388
-1.343
-1.022
-0.845
-0.469
-0.279
-0.911
0.025
0.593
0.513
0.418
0.219
0.166
0.207
0.334
0.154
0.240
0.380
0.349
0.426
0.411
0.459
0.010
-2.647
-0.962
3.264
4.437
3.518
1.244
-1.129
-1.824
-1.705
-0.953
0.163
1.317
1.892
2.501
2.553
2.354
1.915
1.184
0.487
-0.003
-0.364
-0.511
-0.653
-0.630
-0.614
-0.465
-0.444
-0.255
-0.368
-0.129
-0.131
-0.202
0.028
0.073
0.033
0.055
0.124
-0.098
-0.114
-1.663
-3.109
0.196
1.904
1.328
-0.578
-0.014
0.855
0.622
0.165
0.139
0.412
0.674
0.868
0.962
0.945
0.898
0.778
0.716
0.457
0.215
0.070
-0.026
-0.196
-0.188
-0.193
-0.174
-0.265
-0.087
-0.197
-0.092
-0.036
-0.087
-0.112
-0.037
0.005
0.047
-0.024
-0.157
-0.169
-0.050
-0.135
-0.053
-0.074
-0.253
-0.175
0.056
0.011
-0.116
-0.180
-0.033
-0.184
0.032
-0.034
-0.090
-0.171
0.100
-0.046
-0.044
0.031
-0.093
0.068
-0.005
0.016
-0.085
0.081
0.120
0.043
-0.023
0.056
0.053
0.008
0.045
0.053
0.100
0.047
0.126
0.089
0.074
-0.050
0.155
0.142
0.034
0.058
0.082
0.038
0.015
0.134
0.071
0.028
0.026
0.069
-0.023
-0.025
0.050
0.089
0.001
0.136
-0.056
-0.085
-0.085
0.057
-0.006
-0.097
-0.923
-0.880
-0.619
0.149
0.877
0.651
0.332
-0.186
-0.184
-0.296
-0.092
0.032
0.197
0.355
0.495
0.330
0.365
0.251
0.077
0.150
-0.090
-0.120
-0.305
-0.241
-0.199
-0.143
-0.151
-0.138
-0.110
-0.012
-0.090
0.056
-0.107
-0.075
-0.033
0.134
-0.158
-0.070
0.073
-0.014
0.105
-0.014
-0.020
-0.065
-0.082
-0.131
0.096
0.067
0.039
0.106
-0.018
0.115
0.032
0.082
0.214
0.166
-0.210
-0.089
0.093
0.051
0.177
-0.049
-0.105
-0.149
-0.017
0.214
0.164
-0.403
0.024
0.441
0.425
0.235
0.059
0.054
0.190
0.168
0.282
0.122
0.189
0.268
-0.010
0.076
-0.068
-0.136
-0.020
-0.070
-0.156
-0.163
-0.113
-0.132
-0.149
-0.023
-0.041
-0.052
-0.097
0.057
0.078
0.083
-0.040
0.114
0.030
0.027
0.005
-0.043
0.054
0.199
-0.037
0.101
0.036
0.012
0.143
-0.005
0.169
0.108
-0.034
0.030
0.100
0.039
0.068
0.079
-0.006
0.172
0.078
-0.001
-0.105
0.021
0.061
0.004
0.148
-0.043
0.032
0.003
0.075
-0.060
0.052
0.092
-0.087
0.067
0.026
0.023
0.018
0.018
-0.042
-0.128
0.019
0.048
-0.002
0.018
-0.046
0.014
0.027
0.026
-0.025
-0.123
-0.111
0.125
0.020
-0.018
-0.076
0.005
-0.048
0.031
-0.007
0.035
0.096
0.043
-0.156
0.042
-0.013
-0.013
0.014
0.045
0.041
-0.032
0.072
0.126
-0.067
0.022
0.070
0.082
0.051
0.066
0.098
0.011
-0.034
0.099
0.025
-0.007
0.037
0.085
0.082
0.076
0.097
-0.048
0.036
0.075
-0.022
-0.107
0.076
0.065
-0.151
0.002
0.097
0.112
0.137
0.078
-0.047
0.044
-0.011
-0.667
-0.907
0.239
0.662
0.538
0.168
0.043
-0.109
-0.025
-0.040
-0.052
-1.580
-1.743
-2.307
-1.924
1.727
3.396
2.109
0.456
-0.640
-0.927
-0.713
-0.137
0.323
0.797
0.457
-0.317
-3.276
-0.124
3.189
3.808
2.169
1.167
-0.625
-1.835
-2.603
-2.168
-0.341
-0.595
1.803
1.228
2.086
2.683
2.003
1.084
0.317
-0.247
-0.600
-0.813
-0.719
-0.686
-0.609
-0.553
-0.477
-0.406
-0.158
-0.005
0.009
-0.124
-0.082
-0.010
-0.894
-3.153
-3.289
2.225
4.215
3.469
1.322
-0.357
-0.951
-0.753
-0.827
-0.208
0.928
1.866
2.289
2.490
2.194
1.875
1.585
1.055
0.714
0.097
-0.119
-0.356
-0.436
-0.283
-0.242
-0.279
-0.145
-0.419
0.113
0.249
0.334
0.243
0.101
-0.089
0.086
-0.061
-0.222
-0.006
0.078
-1.172
-1.478
-0.392
1.167
1.248
0.798
0.202
-0.118
-0.190
-0.227
0.180
0.187
0.475
0.489
0.647
0.613
0.638
0.407
0.173
0.191
-0.067
-0.123
0.042
-0.023
-0.066
-0.124
-0.066
-0.091
-0.033
-0.052
-0.048
0.072
-0.124
0.044
-0.083
0.004
-0.082
-0.283
-0.649
-1.175
-1.288
-1.048
-0.100
0.470
0.447
-0.006
-0.017
-0.368
-0.231
-0.241
0.231
0.352
0.309
0.331
0.654
0.816
0.813
0.501
0.291
-0.000
-0.111
-0.165
-0.106
-0.257
-0.134
-0.211
-0.243
-0.688
-0.129
0.251
0.166
-0.207
-0.623
-0.361
0.028
0.010
-0.444
-0.311
0.016
0.115
0.171
0.344
-0.201
-0.219
-0.133
0.067
0.048
-0.011
0.270
0.301
0.332
0.299
0.180
0.155
0.309
0.384
0.406
0.356
0.184
0.154
0.176
0.184
0.192
0.239
0.211
0.066
0.163
0.149
0.099
0.055
0.145
0.169
0.160
0.169
-0.024
0.012
0.083
0.033
0.108
0.077
-0.049
0.043
0.156
-0.119
0.152
0.073
-0.009
0.109
-0.029
-0.074
-0.489
0.027
0.213
0.074
0.258
0.136
-0.144
-0.242
-0.197
-1.946
-0.167
0.884
0.976
0.357
-0.052
-0.320
-0.185
-0.116
-0.073
-2.932
-0.896
2.847
3.436
2.099
0.620
-0.570
-1.441
-1.403
-0.771
-0.361
0.367
0.774
0.987
1.151
1.008
0.657
0.427
0.187
-0.222
-0.301
-0.455
-0.568
-0.404
-0.406
-0.292
-0.211
-0.030
-0.119
0.069
0.069
0.142
0.198
0.176
0.201
0.205
0.188
0.182
0.067
0.258
0.132
0.226
0.156
0.149
0.335
0.051
0.198
0.350
0.416
0.146
0.068
0.306
0.182
0.236
0.251
0.205
0.286
