-0.028
0.069
0.054
-0.067
-0.021
0.030
0.034
0.007
-0.029
0.061
0.160
0.050
-0.034
0.003
0.005
0.003
0.037
0.099
0.057
-0.135
0.023
0.003
-0.073
-0.004
-0.001
0.056
0.006
0.081
0.023
-0.013
0.020
0.050
0.053
0.031
-0.042
-0.017
-0.018
-0.021
0.027
0.043
-0.036
-0.045
0.041
0.106
0.009
0.018
-0.026
-0.011
-0.015
0.047
0.115
0.068
-0.092
-0.104
0.024
-0.012
0.028
0.069
0.102
-0.079
-0.008
-0.056
0.077
-0.009
0.086
0.015
0.043
0.067
0.025
0.037
0.050
0.076
0.003
0.012
0.004
0.115
0.040
-0.085
0.049
0.037
0.019
-0.053
-0.066
0.140
0.005
-0.068
-0.049
0.086
-0.059
0.091
-0.005
-0.063
-0.081
0.062
0.029
-0.020
0.022
-0.019
-0.062
0.053
0.051
-0.018
-0.007
-0.050
0.006
-0.009
0.099
0.049
-0.015
0.039
-0.049
-0.058
0.083
0.079
0.038
-0.126
0.025
0.060
0.084
0.063
0.101
0.036
-0.031
0.018
0.032
0.061
0.133
0.062
0.090
-0.077
-0.013
0.032
-0.025
0.022
-0.001
-0.031
0.068
-0.028
-0.095
-0.045
0.042
0.014
0.114
0.071
0.042
0.007
-0.024
-0.065
0.058
0.027
0.041
-0.006
0.026
0.112
0.008
-0.061
-0.077
0.056
0.075
0.049
0.028
0.075
0.023
-0.003
-0.001
0.066
-0.060
-0.035
0.038
0.049
0.023
0.014
0.066
-0.004
0.062
0.101
-0.100
-0.074
0.072
0.133
0.058
0.015
0.072
-0.025
-0.013
-0.004
0.071
0.037
-0.058
0.078
0.064
0.059
0.010
0.018
0.065
-0.028
-0.026
0.005
-0.049
0.072
-0.015
0.035
0.113
0.002
0.016
-0.084
-0.008
0.016
0.048
0.054
0.090
0.035
0.008
0.039
0.031
-0.035
-0.051
0.021
0.074
-0.001
0.045
0.091
0.030
-0.035
0.027
-0.022
0.060
0.013
0.033
0.023
-0.037
0.017
0.090
-0.034
0.013
0.028
0.013
0.053
-0.038
0.001
0.057
0.070
0.005
0.093
0.007
0.030
0.070
0.009
0.109
-0.024
-0.048
-0.070
0.077
0.031
0.067
-0.110
0.063
-0.030
-0.014
-0.048
-0.107
0.017
0.056
0.042
0.008
-0.037
0.076
0.095
0.132
0.032
0.012
-0.022
0.016
0.016
0.014
0.147
0.049
0.002
-0.124
-0.020
0.094
0.009
0.104
-0.022
0.015
-0.094
0.007
0.069
-0.027
0.034
0.032
0.082
0.019
-0.026
0.052
0.002
0.001
-0.004
-0.060
0.054
0.025
0.041
0.074
0.030
0.013
-0.028
0.008
0.004
0.076
0.017
0.096
-0.045
0.062
-0.024
0.029
-0.062
0.005
0.063
0.004
0.014
0.041
-0.010
0.003
-0.005
0.111
0.115
0.009
-0.006
-0.011
0.097
-0.002
-0.086
-0.007
0.013
0.126
0.011
0.035
0.046
0.000
-0.037
0.076
0.122
-0.014
-0.098
0.101
0.051
0.034
0.016
0.034
0.024
-0.038
0.060
0.042
-0.003
-0.036
-0.034
0.054
0.051
0.061
0.024
-0.086
-0.040
0.068
0.061
0.004
0.031
0.083
0.080
0.067
-0.080
-0.024
0.059
0.041
0.060
-0.027
0.002
-0.090
0.031
0.041
0.048
-0.062
-0.027
0.050
-0.012
0.020
-0.001
0.051
-0.005
-0.025
0.137
-0.034
0.019
0.045
0.105
0.040
0.040
-0.018
0.057
0.075
-0.011
-0.026
0.004
0.022
0.064
-0.054
-0.017
0.006
0.020
0.150
-0.041
-0.155
-0.041
0.106
-0.008
0.106
-0.053
0.039
-0.063
0.054
0.056
0.013
-0.048
0.020
0.052
0.056
0.080
0.093
0.050
-0.049
0.039
-0.111
-0.040
0.078
0.079
-0.030
0.106
-0.081
0.014
0.028
0.029
-0.008
0.077
-0.069
-0.077
0.149
0.023
0.029
0.072
0.035
0.062
-0.013
0.005
-0.085
0.044
0.017
0.100
0.023
0.033
-0.081
-0.022
0.059
0.065
0.034
0.057
0.034
0.004
-0.064
0.017
0.018
0.071
-0.030
0.087
0.031
-0.041
0.033
0.031
0.048
0.001
0.063
-0.095
-0.046
0.088
0.082
0.047
-0.034
0.026
0.019
0.052
0.009
-0.022
0.105
-0.009
-0.007
0.105
0.068
-0.022
-0.016
-0.012
0.049
0.092
-0.007
0.036
-0.055
0.146
0.012
0.025
0.038
-0.013
0.030
-0.027
-0.081
0.055
0.081
0.057
0.047
0.051
0.103
-0.032
-0.099
-0.007
0.034
0.040
0.068
-0.039
0.019
0.166
0.135
-0.103
-0.000
-0.004
-0.016
0.012
0.032
0.047
0.053
-0.046
0.058
0.014
-0.167
-0.062
0.039
0.053
0.084
-0.023
0.037
-0.016
0.060
-0.005
0.059
-0.001
0.040
-0.040
0.007
0.010
0.016
0.006
0.062
-0.024
0.051
0.060
0.052
0.008
-0.004
-0.038
-0.033
0.065
0.061
-0.039
-0.043
0.127
0.079
-0.072
-0.065
0.025
0.053
0.055
-0.141
0.002
-0.023
0.070
0.039
-0.013
-0.017
-0.083
0.086
-0.041
0.033
-0.048
0.059
0.082
-0.031
-0.021
0.039
0.004
0.036
-0.077
0.000
0.081
0.032
0.035
-0.011
0.037
0.040
-0.059
0.049
0.126
-0.001
0.108
-0.060
0.069
-0.006
0.022
0.078
0.007
0.020
-0.064
0.008
0.054
0.010
0.067
0.009
0.109
0.035
-0.085
0.007
-0.116
-0.010
0.071
0.120
0.030
-0.023
0.015
-0.039
0.041
0.050
0.043
0.004
0.106
-0.055
0.034
0.015
0.012
0.026
0.025
-0.008
-0.029
0.009
0.007
0.081
0.070
-0.024
-0.023
0.126
0.052
0.067
-0.035
-0.007
0.054
0.079
0.043
0.134
0.006
0.005
0.076
0.045
0.047
0.033
0.032
-0.016
0.051
0.047
0.040
-0.097
-0.041
0.097
0.043
-0.022
0.049
-0.022
-0.008
-0.062
0.057
0.002
-0.030
0.005
-0.041
0.018
0.021
0.049
-0.038
0.022
0.051
0.012
0.027
-0.028
0.047
0.021
0.074
0.005
0.089
0.046
0.033
0.021
-0.066
0.041
0.020
-0.036
0.013
0.019
-0.040
0.046
0.063
0.065
0.025
0.085
-0.022
-0.027
-0.029
0.009
0.006
0.096
0.055
0.019
0.053
0.050
0.034
0.020
0.090
-0.087
0.016
0.036
0.089
-0.006
-0.063
0.122
-0.010
0.026
-0.018
-0.049
0.011
0.005
-0.096
-0.044
0.068
-0.059
0.025
0.053
0.045
0.037
-0.010
-0.035
0.088
0.037
-0.016
-0.027
0.051
0.005
0.068
-0.027
-0.036
-0.042
0.043
-0.000
0.083
0.010
-0.047
0.011
0.043
0.052
-0.002
0.029
0.017
0.096
0.070
0.020
0.041
-0.110
0.086
0.114
-0.002
0.013
0.032
0.008
0.009
0.023
0.036
0.055
-0.001
0.058
-0.010
-0.031
0.053
-0.005
0.131
-0.033
-0.064
0.078
-0.052
0.066
0.079
0.005
0.051
-0.014
-0.013
0.047
-0.036
0.061
-0.032
0.059
0.085
0.021
0.018
-0.054
-0.020
0.017
0.129
-0.045
-0.056
0.044
0.025
-0.003
-0.042
0.057
0.079
0.040
-0.075
-0.015
-0.019
0.028
0.052
0.126
0.042
0.113
0.070
0.031
-0.052
0.093
-0.009
0.060
-0.003
0.092
-0.022
0.067
0.023
0.019
0.011
-0.040
-0.017
0.034
0.029
0.040
0.107
0.036
-0.109
0.039
0.078
0.040
-0.076
0.096
0.037
0.017
-0.006
-0.038
0.109
0.009
0.008
0.033
0.069
0.021
0.043
0.056
-0.017
-0.034
0.035
0.089
-0.125
0.015
-0.056
0.032
0.060
0.060
-0.048
0.004
-0.007
0.049
0.126
0.007
0.066
0.023
-0.034
0.027
-0.032
0.009
0.057
0.083
0.048
-0.003
-0.038
0.047
0.032
0.078
-0.027
0.004
0.053
0.039
-0.052
-0.028
0.055
0.046
0.005
0.086
0.012
-0.073
0.046
0.094
0.067
0.033
0.025
-0.023
0.025
0.102
0.064
-0.051
0.021
0.002
-0.059
0.017
0.084
0.000
0.032
0.070
0.027
-0.043
-0.062
0.009
-0.005
0.027
0.033
0.055
0.076
0.043
-0.029
0.006
0.031
0.088
0.030
0.061
-0.043
-0.022
0.019
0.068
-0.012
-0.019
0.042
-0.088
0.019
0.027
-0.042
0.091
0.062
0.059
0.007
-0.061
-0.011
0.079
0.002
-0.023
0.056
0.019
0.016
0.039
0.001
-0.051
0.058
-0.066
0.089
0.088
0.008
-0.007
0.035
0.015
0.028
-0.017
0.010
0.117
-0.044
-0.008
0.042
-0.001
-0.006
-0.034
0.020
-0.040
0.080
-0.039
0.013
0.014
0.026
0.050
-0.081
0.011
0.006
0.003
0.031
0.060
0.049
-0.064
-0.038
0.027
-0.093
0.001
0.119
0.055
0.037
0.011
-0.013
0.033
0.002
-0.006
-0.040
-0.076
0.028
0.047
-0.013
0.108
-0.007
0.010
0.049
0.082
0.010
0.035
0.017
-0.015
-0.001
0.014
0.070
-0.062
0.078
-0.052
0.053
0.052
0.046
-0.063
0.051
-0.010
0.080
0.004
0.001
0.060
-0.018
-0.022
-0.033
0.020
0.045
-0.027
0.093
0.056
-0.026
-0.042
0.086
0.010
0.083
0.026
0.150
-0.019
-0.001
0.022
0.055
0.074
-0.044
0.063
0.045
0.015
0.071
0.024
0.027
-0.028
0.023
0.095
0.035
-0.042
0.013
0.121
-0.013
0.018
0.041
0.008
-0.008
0.063
0.058
0.021
-0.101
0.009
-0.088
-0.011
0.124
0.123
-0.017
-0.014
-0.098
0.033
0.027
0.015
-0.022
0.054
0.071
-0.082
0.050
0.041
0.026
0.061
0.059
0.070
0.037
-0.018
-0.040
0.046
0.008
0.028
0.028
0.004
0.014
0.037
0.054
0.034
-0.075
0.012
0.020
0.020
0.029
-0.017
0.006
-0.087
0.003
0.040
0.017
0.017
-0.019
-0.036
0.036
0.079
-0.028
-0.089
0.031
0.035
0.084
0.080
0.007
0.003
0.016
-0.051
0.012
0.096
0.006
-0.008
-0.049
0.078
-0.005
0.060
0.008
-0.012
0.006
0.082
0.014
-0.055
-0.006
0.052
0.003
0.053
0.001
0.007
0.060
0.042
0.080
0.009
-0.001
0.070
0.018
0.013
0.009
-0.023
0.051
0.077
0.055
-0.016
-0.003
0.032
0.045
0.045
0.041
-0.012
0.073
0.008
0.030
0.071
0.030
-0.042
-0.062
0.076
0.029
-0.048
0.051
-0.029
0.060
-0.008
0.022
0.008
0.045
0.079
-0.009
0.024
-0.032
0.029
0.099
0.045
-0.010
-0.049
0.051
0.020
0.050
0.096
0.070
-0.028
-0.041
0.034
0.009
-0.050
0.018
0.023
-0.013
-0.035
0.196
-0.054
-0.036
0.053
0.093
-0.014
0.032
-0.019
-0.003
-0.028
0.045
-0.010
0.023
0.057
0.022
0.029
-0.060
-0.031
0.081
-0.013
0.049
0.039
0.017
-0.073
0.002
0.058
0.078
0.016
0.053
-0.016
0.096
-0.018
-0.000
-0.034
0.001
0.053
0.093
-0.035
0.076
-0.095
0.013
0.066
0.058
-0.043
0.024
0.038
0.062
0.002
-0.023
0.039
0.006
0.021
0.002
0.013
0.000
0.086
0.002
0.004
0.027
0.015
0.053
0.018
-0.044
0.072
0.010
-0.058
-0.011
-0.004
0.021
-0.036
0.065
-0.024
-0.008
0.043
-0.007
0.041
0.121
0.060
-0.027
0.010
0.107
-0.019
0.105
0.060
0.102
-0.034
-0.033
0.092
0.036
-0.031
0.027
0.022
0.011
0.141
0.004
0.040
0.047
-0.010
0.013
-0.039
-0.019
0.015
-0.008
0.008
-0.037
0.097
-0.027
0.039
0.028
0.021
0.005
-0.026
0.013
-0.008
0.010
0.019
0.028
0.017
0.003
0.012
0.060
0.010
0.056
0.093
-0.001
-0.011
-0.068
0.102
-0.052
0.034
0.103
0.078
0.009
0.026
0.047
0.023
0.051
-0.097
0.019
0.042
0.070
-0.008
0.107
0.017
0.089
0.069
-0.004
-0.016
-0.039
0.057
0.041
0.042
0.077
-0.001
-0.038
-0.031
0.063
0.033
0.017
0.036
0.023
0.001
-0.049
-0.012
-0.068
0.051
0.026
0.057
-0.099
0.023
-0.110
-0.019
0.143
0.125
0.041
-0.045
0.043
0.038
0.011
0.076
0.019
0.025
0.023
0.031
0.108
0.091
0.081
-0.035
-0.017
0.044
0.034
0.108
0.022
-0.001
-0.049
0.050
0.148
-0.050
-0.113
0.091
-0.015
0.020
0.008
0.020
0.031
0.020
0.005
0.010
0.007
0.038
0.094
0.051
0.011
0.009
0.032
-0.049
0.047
-0.012
0.010
0.034
0.034
0.040
0.054
0.066
-0.017
0.045
0.026
-0.019
0.054
-0.074
0.018
0.061
0.068
0.040
0.013
0.023
-0.009
-0.033
0.039
0.043
-0.029
0.039
-0.017
-0.017
0.057
-0.027
-0.038
0.114
0.001
0.001
0.056
-0.005
-0.059
-0.032
0.060
0.094
0.014
0.033
-0.056
0.058
0.100
0.002
0.012
0.028
-0.004
-0.051
0.006
0.056
-0.007
0.065
0.022
-0.024
-0.067
-0.022
-0.107
-0.002
0.024
0.005
0.058
-0.046
0.075
0.001
0.034
-0.021
0.022
-0.041
0.049
0.047
-0.045
-0.037
0.035
0.052
0.059
0.073
-0.064
-0.013
0.061
-0.057
0.087
0.046
0.013
0.058
0.018
0.067
-0.015
0.070
-0.018
0.018
0.064
0.026
0.015
0.062
0.100
-0.126
0.043
0.045
0.050
-0.111
0.077
0.013
0.037
0.043
0.033
-0.026
0.024
-0.009
-0.014
0.042
0.033
0.034
0.002
-0.046
0.133
0.004
0.038
-0.027
0.037
-0.029
0.089
0.018
0.011
0.035
0.007
0.033
0.085
0.009
-0.008
0.006
0.087
-0.080
0.089
-0.037
-0.003
0.082
0.028
0.102
-0.001
-0.007
-0.081
-0.034
0.078
0.048
0.131
0.005
0.026
-0.016
0.018
0.014
-0.005
0.040
0.007
0.042
-0.007
-0.076
0.054
0.079
0.036
-0.026
0.009
0.005
-0.044
0.030
-0.007
-0.002
0.087
-0.038
0.077
0.005
0.021
0.043
0.009
0.023
-0.018
0.003
0.016
0.033
0.011
0.091
0.008
-0.034
0.018
0.015
-0.030
0.057
-0.050
0.045
0.013
0.072
0.017
-0.061
-0.011
0.078
0.057
-0.001
0.016
0.051
0.001
0.009
0.029
0.055
0.051
-0.005
0.005
0.013
-0.017
-0.011
0.069
0.107
-0.001
-0.012
0.021
0.001
0.008
0.068
0.019
0.066
0.052
0.041
-0.081
-0.061
0.021
0.004
0.098
0.106
0.007
0.033
-0.018
-0.007
0.002
0.061
0.131
0.060
-0.044
-0.020
-0.036
0.025
0.006
0.076
0.025
0.042
-0.058
0.004
0.064
-0.006
0.001
0.005
0.124
-0.005
0.023
-0.030
0.027
-0.025
0.015
0.053
-0.023
0.053
-0.027
0.089
0.050
-0.044
-0.062
0.025
-0.017
0.056
0.044
-0.043
-0.008
0.019
0.069
-0.007
0.044
-0.007
0.004
0.106
-0.082
0.074
0.008
0.046
0.003
-0.026
0.003
-0.027
0.081
-0.021
0.028
0.045
0.039
-0.067
0.042
0.075
0.089
0.066
0.033
-0.060
-0.073
0.048
0.148
-0.041
0.099
0.036
-0.005
-0.107
0.005
0.016
0.003
0.032
-0.011
-0.021
0.048
-0.094
0.106
0.013
-0.082
0.014
0.060
-0.033
-0.029
-0.017
0.001
0.049
0.061
-0.007
0.063
0.000
0.064
0.064
0.059
-0.031
0.005
0.078
-0.029
-0.018
0.047
-0.020
0.058
0.009
-0.034
0.038
-0.016
0.035
0.034
0.064
0.069
-0.036
-0.075
0.057
0.023
-0.031
0.056
0.095
0.039
0.043
-0.080
-0.085
-0.035
0.052
-0.009
0.117
0.017
0.017
-0.077
0.033
0.011
-0.032
0.036
-0.021
0.055
-0.060
0.087
0.041
0.021
-0.070
-0.015
0.100
-0.013
0.057
0.038
0.052
-0.003
-0.006
-0.071
-0.022
0.099
0.131
-0.055
-0.036
0.048
-0.088
0.017
0.032
0.083
0.042
0.039
-0.039
-0.044
-0.032
0.095
0.033
0.015
0.008
0.118
0.003
-0.018
0.018
0.085
0.008
0.061
0.030
0.047
0.062
-0.123
0.074
0.076
-0.068
0.070
-0.007
0.016
-0.011
0.045
0.092
0.065
-0.030
-0.040
-0.059
0.037
0.084
0.052
0.036
-0.111
0.027
0.037
0.140
0.097
-0.017
0.007
-0.109
0.014
0.164
0.025
0.037
-0.072
0.097
0.012
0.040
0.046
0.023
0.052
0.002
-0.007
-0.019
0.040
-0.024
0.064
0.019
-0.147
0.036
0.063
0.064
0.088
-0.061
-0.005
0.076
0.029
-0.018
0.069
0.034
0.016
-0.053
0.033
0.078
-0.003
0.028
0.020
0.043
0.020
-0.035
0.009
0.028
0.142
-0.027
-0.054
0.003
0.060
0.013
0.040
0.029
0.053
-0.048
0.054
0.059
-0.026
0.020
-0.001
0.057
0.018
-0.004
0.032
0.115
-0.097
0.094
-0.031
0.022
-0.064
0.050
-0.006
0.004
0.017
0.054
0.080
0.020
0.011
-0.019
0.014
0.077
0.065
-0.068
0.098
-0.033
0.042
0.101
0.021
-0.038
-0.029
-0.048
0.101
0.125
0.150
-0.166
-0.058
0.122
0.060
0.041
-0.028
0.096
0.064
-0.031
0.047
0.095
0.109
-0.056
0.035
-0.065
-0.042
0.047
0.020
0.054
0.049
0.036
-0.021
0.036
0.053
0.070
0.003
-0.004
0.064
0.011
0.012
0.041
-0.026
-0.021
0.003
0.061
0.010
0.002
-0.101
-0.012
0.037
0.014
0.056
0.014
0.006
0.039
0.032
0.048
-0.009
-0.075
0.008
0.024
0.055
0.026
0.095
-0.033
0.022
0.019
-0.005
0.030
0.055
0.035
0.009
0.007
0.003
0.005
0.027
0.092
-0.010
-0.037
0.013
0.028
-0.052
0.091
-0.044
0.062
0.050
-0.018
-0.021
-0.020
0.030
0.060
-0.019
0.075
0.099
-0.078
-0.024
0.013
0.009
-0.015
-0.040
0.035
0.110
-0.034
0.005
0.032
-0.097
0.026
0.047
0.014
0.023
0.025
0.023
-0.006
-0.126
0.113
-0.032
0.040
0.102
-0.001
-0.009
-0.025
0.075
0.050
0.080
0.034
-0.006
-0.050
0.079
0.032
0.029
-0.030
-0.107
0.001
-0.034
0.123
0.089
-0.032
-0.054
0.043
0.031
-0.006
0.039
0.078
0.029
0.049
-0.021
-0.008
-0.039
0.042
0.057
0.087
-0.016
-0.015
0.009
-0.055
0.102
0.053
-0.056
-0.039
-0.062
0.062
-0.026
0.044
0.023
0.091
0.024
0.006
0.048
0.023
0.007
0.048
-0.013
0.017
0.014
-0.003
-0.122
0.028
0.041
0.021
0.022
-0.027
0.047
0.066
-0.000
0.073
0.118
-0.032
0.043
0.043
0.033
0.009
0.004
0.116
0.067
0.035
-0.015
-0.009
-0.032
-0.048
0.087
0.121
0.005
-0.120
0.019
0.028
0.106
-0.064
0.016
0.025
0.081
0.064
0.023
-0.032
0.043
0.069
-0.017
0.111
0.033
0.106
0.023
-0.093
0.015
0.046
0.014
0.068
-0.032
0.019
-0.002
0.022
0.003
-0.019
-0.019
0.091
0.090
-0.033
-0.076
0.014
-0.003
0.127
0.035
0.073
-0.072
-0.030
0.080
0.093
-0.017
0.033
0.081
0.039
-0.031
-0.032
0.091
-0.021
0.013
-0.041
-0.001
0.019
0.151
-0.012
-0.019
0.004
-0.002
-0.075
0.087
0.060
-0.057
0.017
0.084
0.003
0.013
0.019
-0.072
0.028
0.075
-0.027
-0.034
-0.004
0.053
-0.069
0.063
-0.043
0.056
0.035
0.053
0.124
-0.054
0.068
-0.092
0.051
-0.013
0.038
0.093
-0.071
-0.007
-0.035
-0.023
-0.021
0.125
0.097
0.016
-0.011
0.009
0.005
-0.006
-0.074
0.117
-0.027
0.097
0.061
-0.013
0.053
0.060
0.026
-0.099
0.094
-0.034
-0.002
0.051
0.036
-0.033
0.048
0.064
-0.078
0.104
-0.051
-0.023
0.046
0.060
0.086
-0.020
0.015
0.042
0.089
-0.047
-0.012
0.041
-0.035
0.006
0.048
-0.043
0.112
0.059
-0.029
-0.045
-0.002
0.039
-0.031
0.050
0.025
0.011
0.002
0.105
-0.010
0.119
-0.048
0.069
-0.020
0.094
-0.019
-0.016
0.046
0.048
-0.036
0.111
-0.041
-0.015
-0.050
0.189
0.036
0.071
0.004
-0.083
0.039
0.043
0.135
-0.013
-0.003
-0.015
0.009
0.056
0.109
-0.024
-0.029
0.073
-0.020
-0.028
-0.056
0.068
0.037
0.029
0.057
-0.033
-0.010
-0.041
0.003
0.060
-0.007
0.051
0.006
0.016
-0.031
-0.010
0.023
0.066
0.119
-0.056
-0.083
0.199
0.045
-0.015
0.032
0.063
0.052
0.001
0.085
0.054
0.011
0.073
0.055
0.034
0.063
-0.069
0.090
0.055
-0.046
-0.035
-0.096
0.106
0.029
-0.092
0.002
0.002
0.007
-0.053
0.018
0.012
-0.022
0.073
0.113
0.072
-0.012
-0.012
0.019
0.069
0.030
0.033
0.047
-0.032
0.013
0.108
0.023
0.042
-0.027
-0.001
-0.018
-0.070
0.054
-0.048
-0.081
0.039
0.078
-0.034
-0.040
-0.030
0.071
-0.015
0.007
0.050
0.057
0.093
0.065
0.014
-0.101
-0.050
0.059
-0.031
0.115
0.086
0.060
-0.008
-0.001
0.007
0.066
0.019
-0.044
-0.008
0.052
-0.001
0.043
0.063
0.003
0.021
-0.025
0.049
-0.031
-0.063
0.067
-0.012
0.032
-0.001
0.021
0.010
-0.107
-0.024
-0.026
0.042
0.048
0.066
0.041
-0.086
0.075
0.045
0.002
0.044
-0.042
0.058
0.009
0.069
0.006
0.005
-0.034
0.014
-0.072
0.051
-0.028
0.041
0.080
-0.022
-0.065
-0.030
0.132
0.039
0.091
0.089
-0.007
0.042
0.026
0.029
0.016
-0.020
0.043
-0.011
0.050
0.013
0.036
-0.089
0.083
-0.037
0.028
0.059
-0.086
0.006
0.005
-0.000
-0.051
0.059
-0.018
0.004
0.023
0.057
0.003
-0.005
0.108
0.010
0.020
0.012
0.048
0.094
0.059
0.064
0.004
-0.008
-0.001
0.086
-0.054
0.017
-0.057
0.124
0.029
-0.146
-0.003
0.128
-0.092
0.013
-0.065
0.034
0.061
-0.031
-0.011
0.085
-0.041
-0.058
0.056
0.043
0.086
0.006
0.080
-0.000
-0.052
0.046
-0.007
-0.011
0.101
0.076
0.025
0.085
0.110
-0.028
-0.045
0.072
-0.002
0.078
0.067
0.026
0.084
0.009
-0.030
-0.042
-0.003
0.016
0.152
0.075
0.016
0.036
-0.053
-0.052
-0.036
0.049
-0.052
-0.062
0.056
0.051
0.041
0.008
-0.002
0.023
0.099
-0.017
0.087
0.035
-0.013
-0.011
0.050
0.086
0.031
0.036
-0.055
-0.003
0.004
0.132
-0.010
0.074
0.042
-0.022
-0.027
0.028
0.031
0.092
0.064
-0.087
0.086
0.087
0.040
0.066
-0.004
0.093
0.099
0.037
0.028
0.070
-0.089
-0.042
0.068
0.015
-0.005
0.033
-0.020
-0.041
0.126
0.121
0.078
-0.092
-0.054
0.041
0.020
0.040
0.026
0.038
0.079
0.081
-0.055
-0.123
0.036
0.030
0.027
0.069
0.098
-0.030
0.007
0.039
-0.039
0.035
0.000
0.053
0.020
-0.030
0.158
-0.055
-0.018
-0.063
0.105
0.016
0.086
-0.057
0.049
0.062
0.052
0.109
0.085
-0.027
-0.036
0.031
0.131
-0.004
0.065
-0.068
0.007
0.021
0.005
-0.073
0.112
0.049
0.008
0.025
-0.053
-0.035
-0.020
0.009
0.018
0.080
0.081
0.025
0.003
-0.023
-0.026
0.031
0.031
0.038
0.125
-0.095
0.021
0.013
-0.044
0.094
-0.093
0.011
0.034
0.072
-0.003
0.065
-0.037
-0.087
0.058
0.083
0.045
-0.096
0.021
0.051
-0.021
0.069
0.020
-0.013
-0.020
0.106
-0.031
0.062
-0.103
-0.041
0.129
0.018
-0.011
0.027
0.151
0.038
-0.056
0.006
-0.014
0.009
0.010
0.045
0.039
-0.061
0.006
0.074
0.039
-0.007
-0.077
0.116
-0.016
0.061
0.026
0.009
-0.043
-0.057
0.050
0.026
-0.064
0.056
0.028
0.064
-0.026
-0.051
0.064
-0.032
0.012
0.050
-0.014
0.031
-0.005
0.046
0.029
0.022
0.000
0.015
-0.017
0.109
0.115
-0.106
-0.061
0.002
0.093
0.012
0.055
-0.023
-0.003
0.023
0.089
0.065
-0.017
0.016
0.076
0.035
-0.039
-0.114
0.130
-0.003
0.010
0.057
0.010
-0.010
0.198
0.068
-0.080
-0.001
-0.055
0.045
0.082
0.122
0.032
-0.025
-0.053
0.023
0.016
0.027
0.055
-0.031
0.065
-0.047
-0.074
0.037
0.033
-0.001
0.031
0.063
0.062
-0.011
0.025
0.059
0.023
0.025
-0.005
0.043
0.104
-0.045
0.034
0.013
-0.007
0.019
0.054
0.041
-0.029
0.024
0.031
0.043
0.096
0.063
0.050
-0.049
0.016
0.110
0.080
0.002
0.022
0.005
-0.004
0.050
0.095
-0.076
-0.047
-0.027
0.072
-0.022
-0.006
0.092
0.011
-0.010
0.073
0.084
0.061
-0.085
-0.067
0.118
-0.024
0.080
-0.018
0.002
-0.016
0.101
0.057
-0.010
0.001
0.013
0.071
0.045
-0.105
0.005
0.052
0.014
0.051
0.031
-0.007
0.000
0.052
0.054
-0.010
-0.027
-0.010
0.066
-0.002
0.063
0.017
0.065
-0.038
0.048
-0.030
-0.038
0.106
-0.052
0.057
-0.010
0.029
0.078
0.095
0.011
0.040
0.037
-0.033
-0.013
-0.014
-0.028
0.044
0.027
0.054
0.011
0.013
-0.006
-0.001
0.054
-0.051
0.069
0.015
-0.012
-0.057
-0.032
0.088
-0.003
0.020
0.002
-0.057
0.021
0.137
0.102
-0.015
0.030
0.039
-0.022
-0.021
0.153
0.004
-0.033
0.034
0.074
0.001
-0.019
0.021
0.094
0.098
-0.044
-0.130
0.053
0.028
0.069
0.012
0.003
0.006
0.026
-0.061
0.028
0.130
0.036
-0.045
0.052
0.073
0.022
0.087
-0.058
0.060
-0.064
0.048
0.016
0.040
0.062
-0.037
-0.017
0.054
-0.018
0.020
-0.021
-0.017
0.025
0.040
0.040
-0.015
0.041
-0.031
0.023
0.067
0.013
0.051
0.118
-0.052
-0.062
0.033
0.070
0.007
0.048
0.089
-0.079
-0.028
-0.068
0.105
0.038
0.003
0.088
-0.041
0.034
0.014
-0.038
-0.042
0.105
0.004
0.077
0.025
0.021
0.077
-0.020
0.014
-0.019
0.038
0.023
0.002
0.016
0.073
0.000
0.027
0.013
-0.075
0.114
0.007
-0.021
0.057
0.044
0.047
0.017
0.043
0.052
-0.037
0.030
-0.035
-0.020
0.037
0.126
0.008
-0.066
0.012
0.102
0.008
-0.011
0.017
0.073
-0.058
-0.024
0.021
0.036
0.132
-0.004
0.004
-0.068
-0.016
0.036
0.104
0.136
0.065
-0.083
-0.054
-0.016
0.057
0.074
0.053
-0.030
-0.012
-0.019
0.005
0.087
0.048
0.059
-0.051
-0.014
-0.015
0.095
0.106
-0.057
-0.018
0.045
0.100
0.020
0.028
0.011
0.013
0.101
0.006
-0.053
0.003
0.057
-0.072
0.061
0.053
0.003
-0.066
-0.016
0.084
0.065
-0.040
-0.008
-0.052
0.039
0.068
0.001
0.009
0.017
-0.015
0.089
0.088
-0.045
-0.031
-0.063
0.094
0.012
-0.051
0.048
0.045
0.055
-0.001
-0.036
-0.067
-0.039
0.162
0.017
-0.031
0.063
0.014
0.043
0.039
0.070
0.052
-0.003
-0.050
0.023
0.009
0.045
-0.004
0.099
-0.007
-0.005
0.006
-0.030
-0.007
0.041
0.045
0.022
0.003
0.030
0.008
-0.092
0.138
0.051
0.028
0.042
-0.009
0.008
0.114
0.068
-0.006
-0.047
0.061
0.038
-0.126
0.045
-0.094
0.028
0.026
-0.003
0.103
0.031
-0.078
0.045
-0.013
0.057
0.058
0.081
0.050
-0.048
-0.040
0.009
-0.029
0.045
0.066
0.088
0.005
0.015
0.008
0.012
-0.042
0.014
-0.100
0.086
0.080
-0.031
0.003
0.047
-0.046
0.122
0.074
-0.029
0.098
-0.034
-0.004
-0.024
-0.032
-0.028
0.051
0.076
-0.013
0.055
-0.021
-0.001
-0.037
0.103
0.081
0.073
0.051
-0.111
0.044
-0.027
0.092
-0.028
0.049
0.048
-0.047
0.020
-0.065
0.018
0.133
-0.063
0.034
-0.023
0.007
-0.002
0.027
0.132
-0.008
-0.065
0.004
0.026
0.053
0.034
-0.030
-0.043
0.022
-0.015
-0.027
0.003
0.092
0.064
-0.062
-0.006
0.012
0.045
0.004
0.070
0.009
0.036
0.013
0.184
0.027
-0.089
-0.052
0.029
0.020
0.030
0.131
-0.084
0.099
-0.003
-0.042
0.022
0.012
0.020
-0.018
0.106
-0.032
0.031
0.058
0.065
-0.009
-0.054
0.056
0.098
0.015
-0.054
0.028
-0.065
0.061
-0.015
0.011
0.004
0.074
0.022
0.032
-0.003
0.023
0.036
0.002
-0.034
0.011
0.049
0.107
0.051
0.005
-0.001
0.009
0.028
0.082
-0.022
0.060
-0.027
-0.014
-0.005
0.057
-0.083
-0.009
0.019
0.109
-0.014
-0.116
0.061
-0.049
0.024
0.014
0.044
0.165
0.017
0.001
0.104
0.063
-0.002
-0.027
0.083
0.033
0.027
-0.014
0.079
0.038
0.030
0.073
-0.041
0.053
-0.084
0.023
0.014
-0.047
0.056
0.060
0.077
-0.058
0.001
0.009
-0.055
-0.032
0.028
0.044
0.091
0.058
-0.034
0.001
0.010
-0.086
0.045
0.093
-0.020
-0.009
0.050
-0.025
-0.024
-0.060
0.007
0.045
0.040
-0.018
0.071
-0.060
0.040
0.082
0.059
-0.072
0.004
0.060
-0.006
-0.015
0.015
0.081
0.024
0.012
-0.042
0.014
-0.017
0.130
0.036
-0.044
0.088
-0.021
-0.040
-0.005
0.033
0.023
0.058
0.063
0.014
-0.043
0.094
-0.030
0.012
-0.002
-0.011
0.029
-0.050
0.083
0.046
0.045
0.058
-0.015
-0.083
0.052
0.010
-0.031
0.004
-0.071
-0.032
0.092
-0.017
0.009
-0.001
0.010
0.031
-0.000
0.021
0.050
0.074
0.025
0.048
0.010
0.072
0.003
0.007
-0.052
0.026
0.141
-0.016
0.012
0.011
-0.019
0.014
0.011
0.008
0.091
0.059
-0.106
-0.018
-0.010
0.057
0.133
-0.001
-0.022
0.014
0.001
0.005
0.117
-0.016
-0.084
0.051
0.080
0.094
-0.021
-0.007
0.068
-0.065
-0.021
0.017
0.105
-0.008
0.168
0.070
-0.044
0.012
-0.012
0.046
-0.022
-0.013
0.068
-0.006
-0.106
-0.110
0.142
0.018
-0.045
0.055
-0.051
-0.114
0.079
0.045
0.067
0.003
0.043
0.028
0.010
0.100
0.118
0.038
-0.015
-0.089
0.036
0.118
0.080
0.060
-0.086
-0.076
-0.027
0.083
-0.036
0.029
0.110
-0.076
0.044
-0.046
0.070
0.017
0.034
0.096
-0.030
-0.051
0.039
0.091
0.070
0.038
0.040
-0.009
-0.019
0.058
-0.059
0.104
0.011
-0.013
-0.081
0.047
-0.005
0.040
0.028
-0.039
0.042
0.085
-0.023
0.060
0.076
0.007
-0.013
0.001
0.060
0.072
0.091
0.044
0.052
-0.021
-0.004
0.006
-0.002
0.106
0.007
0.006
0.017
-0.123
-0.025
-0.043
-0.051
0.059
0.069
-0.003
0.068
0.062
-0.066
-0.003
0.077
0.051
0.003
0.088
0.069
0.012
0.026
-0.015
0.084
0.074
0.043
0.004
-0.032
0.018
0.084
0.025
-0.016
-0.000
-0.040
0.095
-0.075
-0.124
0.058
0.010
-0.003
0.116
0.027
0.075
-0.049
0.008
-0.018
-0.003
0.073
0.055
0.047
0.064
0.043
0.040
-0.004
-0.006
-0.026
0.004
-0.038
0.038
0.014
0.001
-0.052
-0.040
-0.021
0.096
0.098
-0.008
0.043
-0.040
0.002
0.059
-0.016
0.122
0.037
-0.029
0.034
0.075
0.045
0.063
-0.023
0.083
0.010
-0.083
-0.056
0.093
0.067
0.084
-0.003
-0.079
-0.045
-0.028
0.096
-0.016
0.060
0.061
-0.025
0.008
0.072
0.022
0.029
0.017
0.144
-0.083
0.104
0.026
0.050
0.045
-0.022
0.020
0.018
0.005
0.028
0.125
-0.034
-0.034
0.093
0.085
0.006
0.002
0.030
0.113
-0.089
-0.009
0.036
0.031
-0.001
-0.033
-0.014
0.062
0.077
0.002
0.045
0.118
-0.051
0.031
0.052
-0.097
0.082
0.049
0.019
0.000
0.042
-0.006
-0.009
0.057
-0.039
0.012
0.079
0.068
-0.059
-0.088
-0.025
0.051
-0.042
0.063
0.031
0.032
0.081
0.043
0.029
0.061
-0.021
-0.035
0.089
-0.020
0.001
-0.010
0.080
-0.052
-0.052
-0.010
0.130
0.132
-0.071
-0.114
-0.074
0.053
-0.025
0.068
0.054
-0.039
0.002
-0.086
0.134
-0.032
-0.033
-0.051
-0.013
0.064
-0.021
0.026
0.072
-0.023
-0.031
0.021
-0.028
0.013
0.068
0.033
0.041
-0.026
0.046
0.096
-0.159
-0.012
0.051
-0.042
0.082
-0.010
0.067
0.012
-0.029
-0.016
0.072
0.040
-0.042
-0.044
0.058
-0.015
-0.063
-0.007
0.027
0.049
0.042
0.116
-0.025
0.025
0.048
-0.106
-0.011
-0.014
0.018
0.084
0.023
0.080
-0.014
-0.027
-0.051
-0.057
-0.018
0.020
0.032
0.032
-0.029
-0.025
0.007
-0.050
0.096
0.010
-0.024
0.055
0.028
0.042
0.086
-0.045
-0.007
0.016
0.060
0.029
-0.076
0.018
-0.031
-0.003
0.022
0.036
-0.043
0.009
-0.016
0.044
-0.045
0.067
0.009
0.027
0.019
0.073
-0.120
0.020
-0.015
0.032
-0.001
0.016
0.016
0.056
0.016
-0.062
-0.005
-0.054
0.009
-0.018
0.044
0.065
-0.006
-0.054
-0.002
0.041
0.059
-0.049
-0.041
-0.069
0.057
0.048
0.050
0.068
0.054
0.042
-0.055
-0.002
0.058
0.073
0.064
-0.036
-0.058
0.077
0.061
-0.002
-0.010
-0.018
0.002
0.023
0.022
-0.011
0.011
-0.001
-0.003
0.007
0.127
0.039
0.011
0.021
-0.012
-0.041
0.111
0.092
-0.025
-0.088
0.045
0.011
0.043
0.017
-0.026
0.005
0.119
0.055
-0.009
0.030
0.045
0.107
-0.027
-0.049
0.081
0.042
0.076
-0.002
0.023
0.038
0.023
-0.014
0.035
-0.057
0.083
-0.039
0.046
-0.001
0.056
0.006
-0.116
-0.004
0.131
0.025
-0.027
0.042
0.011
0.141
-0.005
0.032
0.049
0.019
-0.086
0.057
-0.028
0.083
0.118
-0.090
-0.010
0.047
0.047
0.040
-0.064
-0.005
0.029
0.080
-0.013
-0.033
-0.059
0.034
0.035
0.022
0.009
-0.001
0.063
0.046
0.036
-0.023
-0.068
0.028
0.040
-0.054
0.064
0.062
0.002
0.075
-0.018
-0.082
-0.017
0.081
-0.032
-0.090
0.077
0.029
-0.042
-0.063
0.026
0.048
0.047
0.008
-0.011
0.043
0.040
0.050
0.054
0.104
0.019
0.017
0.085
0.028
0.008
0.020
0.092
-0.048
-0.026
-0.022
-0.009
-0.026
-0.011
-0.064
0.013
-0.023
0.131
-0.030
0.000
0.049
0.061
-0.019
0.005
0.046
0.029
0.011
0.023
0.019
0.019
0.043
0.029
0.091
-0.040
0.026
-0.026
0.084
0.115
-0.051
0.000
0.083
0.073
0.054
0.024
-0.035
0.038
0.034
0.004
0.023
0.016
0.049
0.051
-0.028
-0.045
0.069
0.016
-0.048
0.001
0.063
0.043
-0.061
-0.015
0.133
0.074
0.037
-0.078
-0.002
0.004
0.059
0.037
0.089
-0.055
-0.012
0.018
0.052
0.041
0.038
0.048
-0.048
0.032
-0.047
-0.029
0.092
0.011
0.066
-0.060
0.059
0.058
0.041
-0.048
0.052
0.068
0.047
0.002
-0.082
-0.031
0.136
-0.072
-0.014
0.042
0.004
-0.016
0.006
0.062
-0.037
-0.029
0.038
0.061
0.081
-0.021
0.023
-0.115
0.018
0.009
0.000
0.127
-0.015
-0.001
-0.068
0.020
-0.011
0.060
0.043
-0.011
-0.046
0.001
0.077
0.101
-0.038
0.061
0.036
0.034
-0.026
-0.001
0.102
-0.022
-0.003
0.032
0.035
0.069
-0.003
-0.081
0.012
-0.019
0.181
0.023
0.007
-0.043
-0.025
0.012
0.054
0.027
-0.002
0.135
0.054
-0.104
0.050
-0.007
0.089
-0.069
-0.011
0.076
-0.025
-0.041
0.081
-0.015
-0.036
0.023
0.068
0.057
-0.082
-0.045
0.057
0.035
0.050
0.077
0.027
-0.061
0.012
0.026
0.028
0.130
0.085
-0.000
-0.034
0.073
0.014
0.077
-0.033
0.080
0.005
0.001
0.020
0.069
0.012
0.075
-0.018
0.015
0.007
-0.059
-0.013
0.082
-0.025
0.031
0.091
0.062
0.009
-0.058
0.059
-0.012
0.024
0.108
-0.048
-0.041
0.053
0.046
0.066
-0.016
0.043
0.025
-0.070
0.064
0.038
0.023
-0.020
0.046
0.041
-0.007
0.022
-0.041
0.021
0.060
-0.030
0.092
0.076
-0.004
0.033
0.092
0.015
-0.061
0.012
-0.048
0.096
-0.076
0.067
-0.000
0.091
-0.023
-0.028
0.052
0.154
0.009
-0.051
0.058
0.017
0.021
0.032
0.063
0.013
-0.058
-0.011
0.038
0.040
0.047
0.043
-0.026
-0.009
-0.004
-0.006
0.003
0.069
-0.043
0.119
0.013
-0.042
-0.100
0.026
0.019
-0.015
0.035
0.068
-0.013
0.089
-0.029
0.004
0.002
0.030
0.099
-0.096
0.031
0.041
0.034
0.010
0.039
0.002
0.005
0.062
0.017
-0.006
0.066
0.077
0.089
-0.019
-0.009
-0.004
0.038
0.061
0.042
0.054
-0.025
-0.002
0.096
0.021
0.051
0.023
-0.024
0.014
0.090
-0.044
-0.050
0.134
0.059
-0.022
0.032
0.031
0.008
0.057
0.097
0.063
-0.070
0.062
0.024
0.038
0.044
-0.068
0.044
-0.061
-0.007
0.081
0.079
0.005
-0.027
0.086
0.042
0.041
0.018
0.049
0.085
-0.042
-0.002
0.036
0.026
0.085
0.019
0.053
-0.074
0.016
0.070
0.007
0.046
0.029
-0.022
0.010
0.064
0.049
0.031
0.072
0.033
0.054
-0.013
0.057
-0.007
0.017
0.006
0.009
0.001
0.012
0.074
-0.028
-0.107
0.064
-0.071
-0.031
0.018
0.097
0.016
-0.041
0.026
0.041
0.033
0.116
0.003
0.017
-0.019
-0.006
-0.055
0.037
-0.009
0.066
0.049
0.027
-0.020
0.058
-0.066
-0.044
0.023
0.038
-0.045
0.103
0.045
0.008
-0.009
-0.067
0.084
-0.106
0.056
0.025
0.106
0.034
-0.089
-0.010
0.096
0.036
-0.027
0.093
0.079
0.033
0.019
0.045
-0.034
0.056
0.117
0.043
-0.077
0.038
0.056
0.058
-0.026
-0.002
0.135
-0.001
-0.024
-0.018
0.055
0.091
0.019
-0.008
-0.028
-0.029
-0.016
0.052
0.058
0.029
-0.024
0.030
-0.001
0.075
0.018
-0.088
0.034
0.023
0.091
-0.006
0.094
-0.007
-0.075
0.018
0.125
-0.063
0.001
0.138
0.046
-0.030
-0.038
0.030
0.024
0.060
-0.002
0.025
0.024
0.077
-0.007
-0.003
0.037
0.047
0.072
0.022
0.050
0.040
-0.040
0.013
0.033
-0.024
-0.024
0.011
-0.021
0.027
0.081
0.020
-0.031
0.007
-0.043
0.015
-0.014
-0.094
0.032
0.128
0.075
-0.005
-0.075
0.043
0.096
-0.027
0.092
-0.012
-0.082
0.072
0.048
0.054
0.006
0.032
0.035
0.040
-0.006
-0.015
0.099
-0.047
-0.003
-0.005
0.010
0.034
0.031
0.038
0.033
-0.039
0.053
-0.012
-0.044
-0.005
0.027
0.116
-0.010
0.110
-0.055
-0.076
0.050
0.070
-0.037
0.001
0.064
0.070
-0.091
0.004
0.106
-0.031
0.006
0.094
0.034
-0.011
0.065
-0.000
-0.010
0.050
0.095
-0.013
0.004
-0.014
-0.115
-0.047
0.069
-0.000
0.076
0.010
-0.055
-0.003
0.004
-0.038
0.066
0.044
-0.051
0.075
-0.003
0.094
0.025
0.026
-0.062
0.013
0.031
0.084
0.029
0.057
-0.019
0.017
-0.038
0.052
-0.011
-0.044
-0.016
-0.109
0.181
-0.023
-0.021
0.037
-0.051
0.044
-0.013
-0.092
0.065
0.024
0.063
0.032
-0.025
0.045
-0.028
0.076
0.056
0.014
-0.010
-0.002
0.024
-0.060
0.019
-0.001
0.037
0.142
0.009
-0.053
0.110
-0.002
-0.053
0.030
0.086
0.026
0.098
0.002
0.002
-0.026
0.039
-0.049
0.034
0.054
0.181
0.017
-0.066
0.091
0.010
0.008
-0.040
0.128
-0.051
0.059
0.074
-0.025
-0.041
0.038
0.045
-0.039
0.012
0.032
0.063
-0.030
0.033
0.092
0.054
0.058
-0.098
-0.006
0.058
0.041
-0.044
0.051
0.035
-0.007
0.016
0.041
0.072
-0.030
0.069
0.032
0.029
0.077
0.007
-0.052
-0.037
0.098
0.069
0.035
0.034
0.003
0.078
-0.002
0.027
-0.023
-0.015
-0.051
0.035
0.064
-0.040
0.078
0.016
-0.024
0.019
-0.038
0.047
-0.008
0.070
0.041
-0.004
0.002
-0.030
0.032
-0.032
0.014
0.073
0.053
0.074
0.028
0.034
0.125
0.013
0.002
0.025
0.084
-0.005
0.001
-0.046
-0.030
-0.047
0.084
-0.014
0.027
0.001
-0.006
-0.012
-0.012
-0.021
0.122
0.095
-0.044
-0.032
0.112
0.023
-0.023
0.095
0.010
0.014
-0.029
0.072
0.054
0.087
0.099
0.055
-0.032
-0.014
0.051
0.042
0.037
0.012
0.043
-0.093
-0.018
-0.015
0.072
-0.001
-0.017
0.199
-0.009
0.073
0.013
-0.064
0.037
0.044
0.072
0.151
-0.008
-0.033
0.035
0.056
0.008
0.061
-0.042
0.034
0.074
0.006
0.002
0.019
0.146
-0.040
0.017
-0.003
-0.011
-0.032
0.010
-0.042
0.034
0.061
-0.038
-0.003
-0.045
0.050
0.036
0.037
0.006
-0.004
0.074
0.011
0.026
-0.043
0.048
0.018
0.079
0.034
0.016
0.104
0.088
0.027
0.057
0.067
-0.067
-0.030
-0.036
0.041
0.183
0.002
-0.107
0.173
-0.035
-0.030
-0.014
-0.020
0.060
0.038
0.021
-0.020
0.030
0.038
-0.006
0.025
-0.028
0.024
-0.087
0.031
0.114
0.061
-0.076
0.057
0.009
-0.108
0.065
0.046
-0.012
-0.070
0.000
0.075
0.062
0.037
0.042
-0.041
0.073
0.103
-0.035
0.046
0.077
0.013
0.049
0.027
-0.043
-0.047
0.050
0.008
-0.073
0.009
0.073
0.035
0.037
0.040
-0.023
-0.057
0.082
0.001
-0.013
0.064
-0.034
-0.005
0.082
0.097
-0.062
0.145
0.066
0.013
-0.019
0.086
0.012
-0.066
0.026
0.034
0.033
-0.000
-0.036
-0.033
-0.013
0.080
0.023
0.073
0.024
-0.018
-0.018
0.025
0.108
0.021
-0.035
-0.049
0.055
-0.046
-0.018
0.041
-0.006
-0.024
-0.001
0.058
0.092
0.032
-0.003
0.007
0.038
0.010
-0.141
0.081
0.174
0.038
-0.013
-0.004
0.028
0.052
0.057
-0.021
0.007
0.003
0.036
0.075
-0.105
0.065
0.048
0.006
0.095
0.000
0.030
0.033
0.017
0.016
0.059
0.035
0.042
-0.002
0.026
0.112
0.030
-0.121
-0.035
0.021
0.156
0.027
-0.089
0.057
-0.029
-0.105
0.051
-0.057
0.052
0.069
0.040
0.055
0.044
-0.071
-0.050
0.010
0.051
0.025
0.018
0.040
0.055
-0.033
0.011
0.068
0.000
0.047
-0.006
0.119
0.033
-0.058
-0.027
0.119
-0.086
0.051
-0.004
0.100
0.087
0.002
-0.022
0.105
-0.017
0.024
0.070
0.001
-0.037
0.059
0.053
0.002
0.011
-0.107
0.035
0.042
0.090
0.021
-0.060
0.012
-0.033
0.035
-0.031
0.041
-0.022
-0.036
0.085
-0.015
-0.019
0.106
-0.027
-0.032
0.057
0.053
0.057
-0.028
0.065
0.020
0.048
0.024
-0.018
0.064
0.089
0.086
-0.043
-0.039
-0.011
0.146
-0.038
0.022
0.039
-0.092
-0.021
0.133
0.019
0.023
-0.073
-0.040
0.025
0.053
0.070
0.077
-0.029
0.043
0.010
0.002
0.045
0.103
-0.026
-0.049
-0.017
0.036
0.088
-0.019
-0.081
0.104
0.013
-0.055
0.053
0.059
0.019
0.038
0.018
-0.064
0.052
-0.020
0.074
0.028
0.000
0.018
0.002
-0.012
-0.002
0.028
0.006
-0.058
0.024
0.037
0.105
-0.011
-0.043
0.056
0.087
-0.094
-0.050
0.023
0.075
-0.054
-0.017
0.058
0.071
0.002
-0.072
-0.006
0.100
-0.064
-0.010
0.007
0.077
-0.041
-0.030
0.155
0.087
-0.053
0.002
-0.049
0.057
0.066
-0.055
-0.003
0.045
0.021
0.019
-0.018
-0.021
0.014
0.052
0.012
0.040
0.034
0.017
0.022
0.016
-0.002
0.001
0.076
-0.018
0.027
-0.030
-0.007
0.055
0.048
0.092
-0.044
0.007
-0.062
-0.002
0.026
-0.002
0.007
0.022
-0.047
0.052
0.101
0.103
0.083
-0.016
-0.069
0.069
0.075
0.083
0.080
-0.075
-0.040
0.115
0.058
0.049
-0.006
-0.084
0.002
-0.037
0.100
0.065
0.032
0.002
-0.009
0.038
0.021
0.063
-0.136
0.143
0.064
-0.019
-0.025
-0.087
0.104
0.025
-0.012
0.135
0.047
0.054
-0.047
0.045
-0.040
0.017
0.029
-0.014
0.134
0.071
-0.035
-0.023
0.033
0.060
0.042
-0.043
-0.067
0.157
-0.029
0.021
-0.021
-0.007
0.010
-0.011
0.054
0.042
-0.059
0.034
0.009
-0.048
-0.013
0.002
-0.004
0.044
0.078
0.114
-0.008
-0.049
-0.044
0.041
0.133
-0.049
0.064
0.030
0.004
-0.046
0.021
0.015
0.005
0.176
0.009
-0.075
0.024
0.079
-0.057
0.051
0.021
0.032
0.004
-0.047
0.103
0.112
-0.050
0.094
-0.003
-0.003
0.037
0.052
-0.054
0.006
0.073
-0.026
0.145
-0.049
0.015
0.010
0.001
0.021
-0.030
0.013
0.017
-0.004
0.017
0.024
-0.023
0.082
-0.011
0.062
-0.030
-0.017
-0.000
0.120
0.081
-0.007
-0.026
0.059
0.054
0.002
0.035
0.044
-0.030
0.034
-0.020
0.058
0.087
-0.041
0.043
0.074
-0.022
-0.019
0.071
0.024
0.033
-0.040
0.036
-0.029
0.008
0.097
0.018
-0.061
-0.039
-0.012
0.066
-0.027
0.011
0.096
0.015
-0.043
0.077
0.053
-0.001
-0.032
0.049
0.013
-0.034
0.070
-0.000
-0.020
-0.014
-0.034
0.024
0.035
0.079
-0.003
0.031
-0.047
-0.037
0.052
0.092
0.076
-0.053
-0.049
0.008
0.025
-0.004
0.003
0.098
-0.026
-0.065
0.024
0.057
0.049
-0.065
0.073
-0.020
-0.035
-0.050
0.059
0.081
0.022
-0.016
0.016
0.070
0.014
-0.110
0.034
-0.000
0.017
0.020
0.042
0.056
0.035
-0.008
0.085
0.020
0.007
-0.050
-0.004
0.058
0.055
-0.001
-0.025
0.007
-0.019
0.049
-0.065
0.066
0.013
0.084
0.018
0.010
-0.094
0.045
0.085
-0.024
-0.002
-0.078
0.039
0.010
-0.053
0.020
-0.058
0.077
0.041
0.028
0.026
0.023
0.013
0.034
0.105
0.098
-0.031
0.046
0.017
-0.016
0.071
0.053
-0.079
0.009
-0.003
0.047
0.067
0.059
0.052
-0.060
-0.001
0.008
0.093
0.019
0.028
0.026
-0.102
0.086
0.003
0.070
0.007
-0.060
-0.030
0.032
0.117
-0.040
0.038
0.040
0.013
0.001
0.019
0.040
0.063
0.080
-0.046
0.007
0.053
0.019
0.103
0.041
-0.071
0.023
-0.014
0.027
0.007
0.035
-0.049
0.059
-0.013
0.073
-0.014
0.030
0.049
0.051
0.021
-0.041
-0.020
0.035
0.035
0.051
0.028
0.047
-0.062
0.043
0.060
-0.020
0.031
0.001
0.119
-0.048
-0.068
-0.030
-0.032
0.047
0.014
0.054
0.139
0.032
-0.147
0.014
0.077
-0.006
-0.033
0.040
0.025
0.033
-0.009
0.093
0.030
-0.018
0.003
-0.045
0.050
0.099
-0.038
0.006
-0.032
0.130
0.037
-0.029
0.004
-0.047
0.043
0.004
0.084
0.040
-0.000
-0.056
-0.044
0.121
0.049
-0.021
-0.049
0.112
0.002
0.027
0.158
-0.132
-0.025
-0.010
0.089
-0.077
-0.025
0.036
0.077
-0.027
0.017
0.033
0.076
-0.010
-0.069
-0.024
0.070
0.094
-0.059
0.051
-0.022
0.021
0.000
0.032
0.074
0.099
0.051
0.106
-0.028
0.068
-0.041
-0.000
0.056
0.106
0.009
0.022
-0.109
0.054
0.043
-0.016
0.032
-0.020
0.021
-0.010
-0.063
-0.033
0.050
0.088
0.138
0.010
0.024
-0.022
-0.026
-0.068
0.040
0.065
0.057
0.112
-0.098
0.038
-0.013
0.014
-0.007
-0.000
0.055
0.124
0.020
0.037
-0.065
0.003
0.126
0.004
0.015
0.078
-0.019
0.040
-0.091
0.027
0.079
0.113
0.008
0.010
0.007
0.053
-0.074
-0.023
0.064
0.062
-0.014
0.083
-0.002
-0.001
-0.002
0.039
0.077
0.103
-0.007
-0.010
0.062
-0.043
0.076
0.037
0.005
-0.031
0.071
0.076
-0.005
0.043
-0.007
0.054
0.015
-0.066
-0.010
0.117
0.072
0.055
-0.018
-0.029
0.006
0.033
-0.018
-0.038
0.117
-0.043
0.093
-0.041
0.091
0.000
0.046
-0.039
-0.015
0.047
0.104
0.057
0.016
0.006
0.010
0.067
0.029
0.102
0.017
0.051
0.040
-0.056
0.072
0.016
-0.061
0.074
-0.007
0.015
0.040
-0.042
0.100
0.030
-0.021
-0.022
0.061
0.046
-0.004
0.016
0.012
-0.025
0.018
0.001
0.033
0.090
0.063
-0.138
0.017
-0.030
0.105
0.066
0.014
0.012
-0.029
-0.006
0.045
0.024
-0.015
0.034
-0.018
0.020
0.014
-0.012
-0.043
-0.013
0.045
0.093
-0.003
0.084
0.116
-0.043
-0.031
-0.051
0.056
0.026
-0.001
-0.037
0.013
0.011
0.032
0.033
-0.036
0.032
0.039
0.058
-0.015
0.065
-0.011
0.025
-0.110
0.010
0.049
0.028
0.029
0.067
-0.011
-0.019
-0.057
0.026
0.085
-0.036
-0.005
0.068
0.065
-0.017
0.038
0.089
-0.098
-0.013
0.150
0.009
-0.073
0.038
0.003
-0.059
0.024
0.020
0.081
-0.099
0.025
0.057
-0.019
0.054
0.010
-0.049
0.049
0.067
0.060
-0.009
-0.037
0.063
-0.013
-0.009
0.091
0.011
0.023
0.019
0.102
0.035
0.015
-0.065
0.044
0.038
0.095
0.013
0.066
-0.006
-0.004
0.024
0.054
0.103
0.059
-0.076
-0.014
-0.005
0.077
-0.006
-0.040
-0.025
0.045
0.126
0.015
-0.069
0.021
0.120
0.082
-0.059
0.003
0.038
-0.018
0.038
0.005
0.006
0.047
0.064
-0.053
-0.051
-0.071
0.082
-0.042
0.091
0.106
-0.064
0.013
0.077
-0.059
0.003
0.032
0.018
0.016
0.009
0.015
0.049
0.088
0.087
0.025
0.036
0.046
-0.032
0.023
0.051
0.034
0.028
0.033
0.022
0.069
-0.078
0.018
-0.032
0.074
0.043
-0.042
-0.006
0.041
0.019
-0.068
0.011
0.128
0.041
-0.085
0.017
-0.028
0.092
-0.007
0.037
0.080
0.028
-0.037
0.045
-0.022
0.040
-0.018
0.089
0.078
-0.049
0.036
0.005
-0.007
0.061
0.014
-0.015
0.035
0.131
-0.037
-0.070
0.057
-0.081
0.006
0.041
0.015
0.056
-0.033
0.024
0.023
0.013
0.035
0.020
-0.042
-0.123
0.105
0.051
-0.075
0.008
0.131
0.021
-0.058
0.077
0.063
-0.066
0.033
0.080
0.122
0.118
-0.114
0.085
-0.086
0.117
0.034
-0.012
0.043
-0.135
0.031
0.086
0.042
0.004
-0.059
-0.002
0.054
-0.029
0.022
-0.050
0.141
-0.127
0.106
-0.013
0.080
0.013
0.021
-0.084
-0.002
0.072
0.023
0.054
-0.024
0.105
0.012
-0.074
-0.064
0.041
0.055
0.176
-0.061
0.011
0.013
-0.058
0.082
0.108
0.041
-0.055
0.014
0.043
-0.001
0.031
-0.046
0.036
-0.004
0.080
0.065
0.017
0.032
-0.069
0.025
0.071
0.014
0.091
0.029
0.037
0.042
0.001
0.007
-0.053
-0.003
0.104
-0.004
0.070
-0.010
0.008
0.031
0.081
0.012
-0.015
-0.025
-0.031
0.073
0.042
-0.004
0.084
-0.025
0.041
0.117
-0.055
0.043
0.026
0.013
0.078
0.003
-0.026
0.036
-0.021
0.043
0.044
-0.036
0.056
0.078
-0.015
-0.043
0.060
0.067
-0.027
0.012
-0.017
-0.017
0.001
0.132
0.006
-0.002
0.067
-0.063
-0.031
-0.005
0.019
0.106
0.064
-0.018
0.038
-0.016
0.110
0.086
-0.006
-0.070
-0.023
0.023
0.032
0.123
0.141
0.030
0.009
-0.103
0.045
0.002
0.000
0.026
0.056
0.082
0.074
0.002
0.045
-0.042
0.083
0.068
-0.074
0.012
0.007
0.121
-0.002
0.069
0.007
0.074
0.015
-0.033
0.011
-0.019
0.047
0.049
0.017
0.017
-0.027
-0.001
0.002
0.125
0.047
-0.034
0.078
-0.047
-0.021
0.087
-0.050
0.066
0.177
0.054
-0.091
-0.042
0.011
-0.041
0.100
0.018
-0.012
0.106
0.113
0.024
0.062
0.029
0.103
0.039
0.046
-0.052
0.065
-0.042
0.075
0.078
0.016
0.117
-0.071
-0.074
-0.065
0.102
0.022
0.007
0.006
0.101
0.009
-0.073
0.018
0.045
0.013
-0.003
0.051
-0.008
0.132
-0.039
-0.082
0.049
-0.064
0.054
0.025
0.037
0.045
0.031
0.043
0.156
0.026
0.017
-0.089
-0.015
0.074
0.102
0.074
0.008
0.026
0.019
0.046
-0.012
0.086
0.018
-0.055
0.054
0.069
-0.010
-0.029
0.040
-0.034
0.012
0.077
-0.004
-0.074
0.067
0.007
-0.028
0.066
0.003
-0.044
0.040
-0.030
0.071
0.070
-0.057
0.009
0.062
0.058
-0.055
0.034
0.092
0.008
0.018
0.030
0.025
-0.027
0.081
-0.000
0.035
0.021
0.068
0.024
0.043
-0.006
0.036
-0.011
-0.002
0.102
0.010
0.049
0.068
-0.007
0.044
-0.063
-0.033
0.091
0.062
0.012
-0.004
-0.066
0.068
0.114
-0.022
0.047
0.013
0.020
0.086
-0.048
0.034
0.020
0.013
0.035
0.005
0.006
-0.010
-0.044
0.117
-0.025
0.026
0.055
-0.052
0.050
-0.037
0.098
0.136
-0.015
0.093
0.032
-0.061
-0.032
0.030
0.068
-0.006
0.023
0.084
0.030
0.027
-0.040
0.034
0.039
-0.015
0.021
-0.014
0.039
0.015
-0.059
0.036
0.033
-0.035
0.075
-0.090
-0.023
0.097
-0.006
-0.001
0.009
0.024
0.057
0.039
0.023
0.009
-0.025
0.071
0.070
-0.038
0.028
0.050
-0.055
0.066
0.050
-0.028
0.040
0.028
-0.014
-0.023
-0.045
0.093
-0.016
-0.013
0.053
-0.046
-0.048
-0.003
0.052
-0.068
-0.043
0.006
0.013
0.032
-0.005
-0.042
0.048
-0.066
0.066
0.017
0.087
-0.015
0.016
0.009
-0.043
0.022
0.089
0.017
-0.001
-0.011
0.009
0.004
0.045
0.076
-0.016
0.079
0.025
-0.109
0.006
0.083
0.111
-0.011
-0.039
-0.014
0.025
-0.003
0.080
0.062
0.051
-0.029
0.147
-0.090
-0.092
0.089
0.128
0.025
-0.035
0.039
0.119
0.002
0.016
-0.015
-0.009
0.042
-0.010
0.089
0.032
-0.036
0.009
0.016
0.025
0.096
0.077
-0.072
0.056
0.096
0.017
0.010
-0.010
0.084
0.007
0.127
0.020
-0.018
-0.006
0.139
-0.072
0.082
-0.005
0.047
-0.068
0.010
0.111
0.034
-0.038
-0.023
-0.021
0.059
0.108
-0.113
0.063
0.101
0.019
0.005
-0.031
0.001
0.067
-0.005
-0.118
0.020
0.108
0.083
0.075
-0.007
0.103
0.035
-0.040
0.006
-0.029
-0.009
0.032
-0.019
0.065
0.075
-0.048
0.031
0.024
-0.044
0.027
-0.023
-0.056
-0.010
-0.002
0.079
-0.022
-0.060
0.039
0.028
0.110
-0.028
-0.015
0.071
0.048
0.010
-0.053
-0.032
-0.014
0.017
0.122
-0.019
0.036
0.012
0.022
-0.051
-0.030
0.064
-0.009
0.038
-0.043
0.062
0.006
-0.058
-0.023
0.016
-0.000
0.116
0.044
0.080
-0.043
-0.018
-0.048
-0.019
0.055
0.096
0.040
0.038
-0.005
0.045
0.042
0.069
-0.033
-0.006
-0.006
0.067
0.025
0.000
0.060
0.075
-0.037
0.025
0.018
0.020
-0.080
0.065
0.054
0.033
-0.020
0.096
-0.015
0.009
-0.059
0.102
0.119
-0.048
-0.023
-0.002
0.003
0.032
0.129
-0.030
0.089
0.004
-0.027
0.106
0.067
-0.046
-0.057
0.091
-0.027
0.025
0.022
0.035
-0.074
0.110
0.012
0.033
0.048
-0.046
-0.030
0.076
0.104
-0.026
0.027
-0.027
0.018
0.045
0.007
0.095
0.001
0.041
0.190
-0.120
-0.017
0.016
0.052
0.018
0.034
-0.010
0.081
-0.051
0.064
0.007
-0.028
-0.028
0.051
0.118
-0.006
0.088
0.019
-0.035
-0.024
0.030
0.064
0.035
-0.050
-0.004
0.091
0.021
0.004
0.013
0.020
0.038
0.001
0.038
-0.012
-0.016
-0.013
0.026
0.045
0.051
0.143
0.029
-0.132
-0.074
0.042
0.098
0.020
0.131
0.062
-0.065
0.003
0.024
0.050
0.078
-0.019
0.067
-0.050
0.032
-0.001
-0.037
-0.001
0.017
0.016
0.070
-0.025
0.126
-0.011
-0.049
0.021
0.062
0.081
0.012
0.024
0.006
0.038
0.029
-0.030
0.163
-0.022
-0.080
-0.071
0.029
0.002
0.045
-0.004
-0.022
0.073
0.059
-0.052
0.092
0.022
-0.070
0.012
0.003
-0.020
0.037
0.045
0.043
-0.038
0.080
0.026
0.038
-0.063
0.038
0.028
0.093
-0.099
-0.039
0.013
0.066
-0.044
0.011
0.016
-0.045
-0.011
0.012
-0.011
0.052
-0.032
0.059
-0.069
0.128
0.069
0.049
0.034
0.001
0.045
-0.029
0.020
0.032
0.076
0.000
-0.012
-0.054
-0.036
0.104
-0.003
0.050
0.071
-0.004
0.044
-0.060
-0.027
-0.037
-0.026
0.046
0.093
0.052
-0.050
-0.035
0.092
0.027
-0.063
0.024
-0.069
-0.054
0.113
0.047
0.005
-0.042
0.098
0.028
-0.054
-0.006
0.117
0.083
0.016
-0.004
0.032
0.098
0.032
-0.011
0.001
0.017
-0.018
-0.009
0.121
0.028
0.008
0.025
-0.025
0.064
0.037
0.057
-0.013
0.005
-0.005
-0.023
0.012
0.063
0.102
0.118
-0.048
-0.056
-0.048
0.012
0.018
0.051
0.092
0.071
0.030
0.069
0.009
0.022
0.034
0.038
0.021
0.018
0.044
0.066
0.055
-0.066
0.071
0.062
-0.028
0.043
0.036
0.023
0.008
0.034
0.085
-0.030
0.013
-0.018
0.026
-0.055
0.053
0.028
-0.057
0.033
0.045
-0.040
-0.018
0.026
0.055
-0.021
0.067
0.060
0.094
0.052
0.036
0.097
-0.015
-0.028
-0.015
0.047
0.130
0.082
0.011
0.079
-0.015
0.002
-0.034
0.034
-0.069
-0.004
0.080
0.064
-0.001
-0.022
-0.073
0.046
0.047
0.024
0.054
0.005
0.070
0.036
0.019
0.009
-0.036
-0.053
0.076
-0.035
0.063
0.072
-0.109
0.051
0.081
0.041
-0.028
0.006
-0.049
0.016
0.027
0.023
-0.052
0.100
-0.041
0.018
0.035
0.045
0.002
0.044
0.058
-0.035
-0.002
0.093
0.009
-0.027
0.042
0.118
0.005
-0.002
0.060
-0.017
0.093
-0.042
0.008
0.017
0.034
0.016
-0.030
-0.074
-0.003
-0.031
0.056
-0.026
0.016
0.015
-0.008
0.049
-0.019
0.095
-0.030
-0.020
0.019
0.060
0.102
0.074
0.045
0.085
-0.054
-0.045
0.016
0.030
0.119
-0.029
0.017
0.028
0.057
-0.027
0.023
0.007
-0.045
0.115
0.024
-0.005
-0.015
-0.086
0.148
-0.021
-0.024
0.060
-0.036
0.077
-0.043
0.032
-0.016
-0.015
-0.027
0.053
-0.057
0.071
-0.046
0.083
-0.030
-0.019
0.095
0.031
0.065
0.139
-0.103
-0.001
0.104
-0.040
0.130
-0.006
0.033
0.134
0.025
0.006
-0.074
0.048
-0.058
0.057
0.011
0.061
0.028
0.003
0.023
0.012
0.041
0.077
-0.089
0.051
-0.030
0.026
0.046
0.021
0.071
-0.039
0.041
0.036
-0.085
-0.045
0.069
0.029
0.008
0.171
0.039
-0.013
-0.007
-0.056
0.088
-0.031
0.098
0.035
0.024
0.129
0.051
0.029
0.008
-0.022
0.005
0.050
0.034
0.081
-0.010
-0.024
-0.026
0.144
-0.014
-0.040
-0.017
0.071
0.067
0.087
-0.061
0.077
0.019
0.060
0.134
0.039
-0.030
-0.019
0.043
-0.022
0.002
-0.042
0.022
0.003
0.138
0.092
0.029
-0.142
0.057
0.047
0.006
0.035
0.034
0.035
0.027
0.037
-0.064
0.013
0.072
0.029
-0.003
0.044
-0.025
-0.002
0.040
0.047
0.104
0.014
0.064
0.096
-0.027
-0.066
0.037
0.029
0.074
-0.079
0.020
-0.072
0.073
-0.021
-0.048
0.067
0.044
0.038
0.033
0.031
0.055
0.118
-0.033
-0.084
0.030
0.114
-0.020
-0.009
-0.023
0.112
0.058
0.011
0.069
-0.061
0.021
0.061
0.038
0.005
0.011
0.023
0.062
-0.020
-0.098
-0.011
0.059
0.042
0.055
-0.021
0.038
-0.020
-0.031
0.047
-0.049
-0.011
-0.007
0.060
0.114
0.007
-0.056
0.002
0.020
0.106
0.115
-0.030
-0.008
0.115
0.136
-0.019
-0.065
0.067
0.087
0.042
-0.033
-0.018
0.098
-0.086
-0.004
0.085
-0.050
-0.058
0.086
-0.014
0.004
0.010
0.045
0.087
0.064
-0.012
-0.017
-0.033
0.092
0.064
0.112
-0.067
-0.106
0.011
0.011
0.030
-0.014
0.094
0.124
-0.054
-0.032
-0.102
0.037
0.154
0.009
0.057
0.001
0.004
0.051
-0.029
0.015
0.053
-0.014
-0.026
0.048
-0.007
0.035
0.015
-0.076
0.035
0.013
0.027
-0.034
-0.039
0.090
0.193
-0.034
-0.017
0.074
0.001
-0.027
0.036
0.089
-0.003
-0.012
-0.003
0.036
0.058
-0.035
-0.074
0.160
0.011
-0.019
-0.020
0.037
0.034
0.071
-0.039
0.012
0.010
0.007
-0.007
-0.020
-0.048
0.003
0.012
0.071
0.073
0.051
-0.019
-0.004
0.045
-0.017
0.018
0.085
0.080
-0.067
0.003
0.012
0.086
0.016
-0.043
-0.010
0.028
0.039
-0.013
0.029
0.007
0.114
0.060
0.000
0.070
-0.062
-0.019
-0.032
0.016
-0.020
-0.026
-0.001
0.104
-0.013
0.014
-0.025
-0.021
0.046
0.020
-0.004
0.083
-0.019
0.025
0.082
0.024
-0.018
0.006
0.014
-0.002
0.030
0.117
-0.068
0.057
0.045
0.021
-0.001
0.022
-0.009
-0.014
0.025
0.071
0.041
0.082
-0.022
0.003
-0.118
0.044
0.051
-0.051
0.058
-0.043
0.063
-0.016
0.026
-0.020
0.037
0.058
0.037
0.018
0.033
0.009
0.005
-0.063
0.017
0.084
0.082
-0.055
-0.045
-0.005
0.034
0.038
-0.046
0.010
0.051
0.053
-0.031
0.022
0.055
0.064
-0.055
0.064
-0.033
0.078
-0.031
0.001
0.090
0.040
0.072
-0.033
-0.049
0.006
0.036
-0.036
0.089
-0.036
-0.076
0.026
0.046
-0.035
-0.020
0.116
0.051
0.042
-0.047
-0.042
-0.043
0.002
0.048
0.021
-0.028
0.034
0.086
-0.018
0.116
-0.049
0.018
0.052
-0.080
-0.032
-0.019
0.104
-0.045
0.006
0.068
-0.010
0.039
-0.002
-0.098
-0.013
0.078
-0.024
0.133
-0.098
-0.065
0.002
-0.068
0.067
0.093
0.030
-0.002
-0.016
-0.003
0.041
0.005
0.064
-0.082
-0.032
0.043
0.033
-0.007
0.045
0.076
0.000
-0.035
0.119
0.063
-0.045
0.047
0.020
-0.049
-0.001
0.013
-0.059
0.003
0.037
0.016
0.056
-0.001
0.026
-0.070
0.046
-0.033
0.023
-0.032
0.102
0.014
-0.027
-0.061
0.100
0.014
0.011
-0.026
0.014
-0.047
0.044
0.071
0.054
0.075
-0.068
0.023
0.113
0.080
-0.009
-0.053
0.041
-0.098
0.084
0.022
0.091
-0.125
0.045
0.073
-0.017
-0.018
0.042
-0.040
-0.006
-0.008
0.074
-0.029
0.088
0.096
0.003
0.028
-0.012
-0.014
0.061
-0.003
0.081
-0.049
0.041
0.079
0.058
0.065
-0.040
-0.001
0.017
0.033
-0.016
0.007
-0.074
0.011
0.119
0.073
-0.095
0.073
-0.009
-0.028
0.046
0.000
0.024
0.073
0.077
-0.035
-0.004
0.059
0.032
0.121
0.024
-0.050
0.040
0.116
-0.039
-0.083
0.061
0.096
0.131
0.056
0.027
0.006
-0.006
0.008
-0.011
0.086
0.036
0.054
0.060
0.013
-0.075
-0.010
0.116
-0.063
-0.031
-0.061
0.067
0.026
0.087
0.033
0.012
0.015
0.050
-0.043
0.124
-0.009
0.040
0.057
-0.031
0.086
0.007
0.083
-0.045
-0.004
0.063
0.066
0.075
0.087
-0.024
0.057
0.029
0.018
0.008
-0.002
-0.003
0.052
-0.002
0.038
-0.004
0.032
0.044
0.137
-0.057
-0.004
-0.051
0.014
0.066
0.072
0.023
0.014
-0.063
0.055
0.024
-0.011
0.017
0.022
0.019
-0.026
-0.048
0.067
0.115
-0.028
-0.077
-0.025
0.035
0.051
-0.030
0.096
0.083
-0.022
0.081
0.022
0.011
0.080
-0.025
-0.053
0.022
0.128
0.021
-0.014
-0.044
-0.010
0.014
0.029
0.045
-0.029
0.099
-0.012
0.002
0.006
-0.052
0.043
0.064
0.098
-0.032
0.130
0.080
-0.018
0.012
-0.005
0.086
0.029
-0.003
-0.003
-0.076
0.047
-0.015
-0.115
0.054
0.085
0.027
0.039
0.051
0.047
-0.061
-0.069
0.091
0.078
-0.012
0.079
0.056
0.091
-0.034
-0.009
-0.038
0.037
0.053
0.044
-0.004
0.002
0.058
-0.015
0.009
0.080
0.091
0.028
-0.006
-0.041
0.111
-0.035
0.040
0.089
0.088
-0.004
-0.078
-0.019
0.069
-0.048
-0.026
0.001
-0.061
0.050
-0.000
-0.025
0.054
-0.045
0.105
0.047
0.038
0.068
-0.027
0.009
0.016
0.033
-0.009
0.054
0.010
-0.067
0.078
0.036
0.030
0.008
0.007
-0.035
0.054
0.040
0.039
0.076
-0.060
0.069
-0.001
0.024
0.000
0.036
0.003
0.011
-0.023
0.063
0.010
-0.005
-0.018
0.073
-0.060
0.072
-0.022
0.025
0.014
-0.054
-0.004
0.069
0.048
0.117
-0.027
-0.036
-0.023
-0.087
0.139
0.065
-0.013
-0.078
0.024
0.056
0.059
0.052
-0.077
0.011
0.010
0.028
0.026
0.037
-0.009
0.027
0.010
0.025
0.096
-0.037
0.069
0.043
0.032
-0.031
-0.001
0.049
0.069
0.064
-0.061
0.042
-0.056
0.016
0.017
0.069
0.035
-0.026
-0.082
0.086
0.004
-0.010
0.062
0.034
0.011
0.042
-0.005
0.010
0.030
-0.078
0.077
0.085
0.036
0.022
0.002
-0.045
-0.071
-0.040
0.032
0.019
0.051
-0.025
0.027
0.052
-0.023
0.086
-0.011
0.031
-0.007
0.040
0.036
0.006
0.043
-0.057
0.002
0.035
0.046
-0.012
-0.035
0.024
0.042
0.007
0.096
0.041
-0.022
0.070
0.113
-0.014
-0.064
0.013
-0.019
0.082
0.113
0.006
-0.096
0.005
-0.005
0.014
0.047
-0.010
-0.006
-0.014
-0.071
0.059
0.049
-0.005
0.051
0.070
0.046
0.085
-0.013
-0.096
0.026
0.043
-0.008
0.084
0.111
0.012
-0.100
-0.079
0.019
0.066
0.049
0.023
0.053
-0.010
0.054
-0.034
0.023
0.020
0.127
0.043
0.038
-0.060
-0.122
0.149
0.040
0.008
0.064
-0.121
-0.069
0.051
0.019
0.088
-0.004
0.028
-0.025
0.015
-0.017
0.005
0.142
0.012
-0.038
-0.038
0.037
-0.021
0.042
0.012
-0.003
-0.039
0.078
0.050
-0.010
-0.030
0.018
-0.010
0.097
-0.010
0.031
-0.022
0.111
0.059
-0.039
0.035
0.008
-0.038
0.061
-0.016
0.074
-0.004
0.086
0.025
0.052
-0.033
0.011
-0.021
0.075
0.080
-0.006
-0.055
-0.018
0.033
0.090
0.018
0.028
-0.068
-0.009
0.086
-0.017
0.028
0.066
-0.010
0.039
-0.065
0.037
0.088
-0.039
0.003
0.072
-0.015
-0.003
0.113
0.131
-0.060
-0.015
-0.022
-0.034
0.046
0.091
-0.027
0.007
0.005
0.086
0.044
0.016
0.059
0.041
-0.059
0.018
0.010
0.027
0.054
0.076
0.032
-0.008
-0.043
-0.043
0.085
0.098
-0.011
-0.050
0.013
0.034
0.108
0.033
-0.022
0.087
-0.034
0.040
-0.045
-0.066
0.058
0.024
0.092
0.111
-0.066
-0.008
-0.054
0.008
0.029
-0.008
0.053
0.109
-0.068
-0.015
-0.037
-0.048
0.069
0.041
0.008
0.019
0.094
0.019
-0.003
0.065
0.037
0.008
0.040
-0.041
-0.010
-0.006
0.106
0.023
-0.018
0.009
0.083
0.012
-0.043
0.017
0.091
0.017
-0.011
0.033
0.026
-0.035
-0.005
-0.009
0.060
0.090
0.004
0.046
0.030
-0.069
-0.045
0.106
0.071
0.071
-0.055
-0.047
0.146
-0.016
0.009
0.041
0.017
0.004
0.017
0.011
0.025
-0.056
0.099
-0.008
0.014
-0.059
0.009
0.152
0.060
0.035
0.027
-0.004
-0.013
-0.022
-0.005
0.083
-0.095
-0.021
0.050
0.103
0.053
0.019
-0.031
-0.078
-0.054
0.022
0.139
0.137
0.037
0.006
-0.012
0.051
0.061
0.026
-0.054
0.029
-0.026
0.085
-0.011
-0.049
0.097
0.092
-0.040
0.041
-0.018
-0.004
0.002
0.079
0.049
-0.060
-0.011
0.029
0.073
0.084
-0.075
0.071
-0.027
-0.010
0.021
-0.041
0.046
-0.009
0.071
0.016
0.085
0.002
-0.022
0.016
0.037
0.025
0.020
0.011
-0.032
0.119
0.063
0.015
0.002
-0.087
-0.000
0.041
0.022
-0.033
-0.002
-0.007
0.066
0.047
-0.001
0.008
-0.045
0.020
0.052
0.038
-0.000
-0.045
0.125
0.012
-0.063
0.131
0.047
-0.072
-0.029
0.075
-0.044
0.047
0.053
0.061
0.011
-0.052
-0.017
0.023
0.029
0.082
-0.043
0.042
-0.006
-0.071
0.072
0.050
0.049
0.009
0.014
-0.010
0.008
0.043
-0.061
0.039
-0.078
0.137
-0.040
0.016
0.097
0.023
-0.085
-0.078
0.018
0.106
0.008
0.049
0.002
-0.013
-0.044
-0.002
0.080
0.001
0.111
0.071
-0.052
-0.093
-0.067
-0.001
0.114
0.024
0.038
-0.006
0.063
0.021
0.009
0.077
0.067
-0.005
-0.020
0.067
0.151
-0.042
0.143
-0.018
-0.041
0.006
0.052
0.013
-0.010
0.063
0.033
0.003
-0.028
0.051
-0.103
0.026
-0.020
0.033
0.040
0.021
0.096
-0.014
0.030
0.035
0.108
0.019
-0.003
0.002
-0.093
0.037
-0.006
0.134
0.011
0.082
0.017
0.004
0.019
-0.043
0.119
0.093
0.002
-0.071
-0.027
0.144
0.078
-0.004
-0.011
0.015
0.000
0.089
-0.025
0.000
0.048
-0.079
-0.015
0.136
0.106
-0.087
0.024
-0.055
0.074
0.034
0.042
-0.031
0.005
0.079
0.006
0.037
0.019
0.012
-0.034
0.125
-0.049
0.019
0.035
0.055
0.044
0.016
-0.010
0.034
0.034
0.051
0.025
0.014
0.067
0.053
-0.050
0.085
0.015
0.008
-0.070
0.031
0.037
-0.058
-0.017
0.086
-0.017
0.006
0.011
0.004
-0.026
0.069
-0.035
0.054
-0.033
-0.080
0.007
0.067
-0.015
0.004
0.056
-0.078
0.013
0.096
0.119
-0.071
0.023
-0.108
0.035
0.002
0.154
0.103
0.002
-0.001
-0.041
0.048
-0.025
0.021
0.031
0.040
0.090
0.061
-0.064
-0.030
0.024
0.036
0.111
0.001
-0.015
-0.063
0.024
0.064
0.082
0.083
-0.041
-0.053
0.044
-0.002
-0.022
0.020
0.021
0.006
-0.020
-0.002
0.035
-0.008
0.060
0.022
-0.043
0.008
0.055
0.026
0.009
0.026
-0.012
0.019
0.070
0.016
0.017
0.022
-0.045
0.025
0.053
-0.010
0.009
0.027
0.010
0.111
-0.053
0.019
0.026
0.054
0.023
-0.041
0.006
0.132
0.056
-0.030
0.036
0.053
0.004
0.045
-0.012
0.007
0.015
0.143
0.045
-0.012
0.044
0.017
0.069
0.016
-0.054
0.028
-0.112
0.070
0.029
0.067
-0.015
-0.015
0.069
-0.015
0.040
-0.027
-0.012
0.028
-0.027
0.136
0.006
-0.002
-0.007
0.000
-0.011
-0.004
0.035
0.087
0.017
0.031
0.018
0.017
-0.051
0.022
0.029
-0.022
-0.012
0.084
-0.032
-0.046
0.047
0.089
0.034
0.005
-0.006
0.072
0.026
-0.023
0.020
0.105
0.055
0.016
-0.010
0.022
-0.028
0.008
-0.074
0.107
0.054
0.017
0.085
0.036
0.073
-0.070
-0.070
0.004
-0.018
0.018
0.118
0.066
-0.036
-0.036
-0.062
0.049
0.037
-0.011
-0.001
0.056
0.021
0.037
-0.026
0.034
0.032
-0.023
0.003
0.052
0.011
0.004
0.024
-0.015
0.084
0.018
0.009
0.001
0.040
0.008
-0.045
0.059
0.028
0.071
0.018
0.067
-0.025
-0.056
-0.051
0.041
-0.010
0.021
0.009
0.085
-0.032
-0.031
0.019
0.024
-0.015
0.045
0.110
-0.024
-0.070
0.027
0.016
-0.027
0.009
-0.007
0.038
0.070
-0.043
0.071
0.032
0.035
-0.071
0.059
-0.008
0.043
0.028
0.043
-0.008
0.042
-0.106
0.096
-0.016
0.097
0.024
-0.000
0.069
-0.061
-0.042
0.004
0.007
0.051
-0.045
0.047
0.136
-0.041
0.034
-0.028
0.013
0.034
-0.001
0.051
0.027
0.042
-0.047
-0.109
0.042
0.048
0.018
0.018
-0.007
0.010
0.002
-0.021
0.124
0.012
0.013
-0.035
0.092
0.016
0.120
0.010
0.073
-0.017
-0.069
0.034
-0.030
0.024
0.090
0.020
0.074
-0.003
0.089
0.052
-0.055
-0.021
0.076
0.065
-0.040
0.046
-0.010
0.029
0.055
-0.036
-0.048
-0.071
0.011
0.071
0.049
0.038
0.015
-0.052
0.022
-0.011
0.022
0.027
0.050
0.126
-0.084
0.088
0.059
0.100
-0.034
-0.033
0.137
-0.066
0.023
0.093
0.000
-0.004
-0.003
0.123
-0.027
-0.003
-0.033
0.050
-0.002
-0.074
0.023
0.035
-0.021
0.013
0.123
0.076
-0.078
-0.110
-0.019
0.080
0.092
0.037
0.009
-0.010
0.079
0.025
-0.017
-0.052
-0.023
0.038
0.058
-0.046
-0.040
0.047
0.091
0.079
0.080
0.027
0.047
0.022
-0.033
0.080
0.069
-0.014
0.069
0.024
0.004
0.084
-0.008
0.026
0.007
-0.045
-0.027
0.172
0.007
-0.102
0.007
0.069
0.027
0.076
-0.054
-0.109
0.122
0.019
0.008
0.092
0.019
0.001
0.027
-0.089
0.022
0.035
0.049
0.026
0.102
0.029
0.035
0.028
0.123
-0.004
-0.049
0.039
0.017
0.079
-0.000
-0.014
0.061
-0.002
0.088
-0.023
0.007
-0.064
0.050
0.128
0.045
-0.017
0.011
-0.001
-0.022
0.052
-0.043
0.119
0.050
0.002
-0.061
0.006
-0.002
0.060
0.024
0.009
0.039
-0.025
0.072
0.000
0.017
-0.006
0.062
-0.002
0.028
0.075
0.060
0.057
0.005
0.001
0.008
0.027
-0.071
-0.062
0.083
0.030
-0.088
0.032
0.046
0.041
0.048
-0.025
-0.068
0.044
0.114
0.050
-0.036
0.065
-0.082
0.074
-0.019
0.020
-0.047
-0.035
0.010
0.014
0.060
0.040
0.038
-0.003
-0.012
0.030
0.047
-0.026
0.016
0.097
0.004
-0.056
0.047
0.031
0.025
0.072
-0.019
-0.013
0.057
-0.022
0.009
-0.016
-0.005
0.029
0.047
0.032
-0.016
-0.039
0.100
0.053
-0.101
0.042
0.115
-0.031
-0.003
0.070
0.041
0.051
-0.025
-0.054
0.043
-0.051
-0.021
0.070
0.089
0.033
-0.071
-0.027
-0.057
0.040
0.010
0.002
0.001
0.015
-0.092
0.047
0.037
0.015
0.145
0.023
-0.014
0.007
0.092
-0.033
-0.002
-0.009
-0.029
0.028
-0.025
0.023
0.037
0.016
0.102
-0.024
-0.044
0.012
0.069
0.048
-0.041
-0.029
0.057
0.069
0.004
0.006
-0.078
-0.018
0.028
0.094
-0.046
0.002
0.005
0.041
0.011
0.028
0.018
-0.004
0.046
0.090
-0.027
0.026
-0.097
-0.012
0.036
0.038
0.036
-0.008
0.099
-0.087
0.007
0.037
0.040
0.008
0.051
-0.013
0.019
-0.047
-0.024
0.010
0.014
0.101
-0.004
0.025
0.039
0.018
-0.075
0.025
0.115
0.024
-0.046
-0.057
0.088
0.094
0.042
0.059
0.097
0.031
0.008
0.016
-0.031
0.071
-0.011
0.085
0.047
0.055
0.029
0.001
0.017
-0.005
-0.034
0.042
0.024
0.045
0.045
0.146
-0.030
0.013
-0.105
-0.028
0.105
-0.013
-0.013
-0.016
0.030
0.044
-0.029
-0.045
0.045
0.080
0.068
-0.001
0.014
0.014
0.045
0.102
0.039
-0.037
-0.024
0.041
0.127
0.003
-0.035
0.028
0.086
0.034
0.006
0.081
-0.021
0.011
-0.041
0.107
-0.024
-0.043
0.193
0.115
-0.052
-0.036
-0.004
-0.064
0.088
0.067
0.063
-0.065
0.028
-0.019
0.017
-0.056
0.027
-0.027
-0.049
0.105
0.032
0.046
0.045
0.029
-0.059
-0.007
0.131
-0.014
-0.062
0.017
0.064
-0.035
-0.011
0.095
0.073
-0.036
-0.010
0.015
-0.014
0.082
0.061
0.029
-0.009
0.072
0.001
0.094
-0.069
-0.037
0.083
0.122
0.041
-0.035
-0.064
-0.052
0.126
0.091
-0.033
0.039
-0.042
-0.020
0.030
-0.003
0.043
0.011
-0.077
-0.004
0.008
0.080
0.009
0.125
0.028
-0.002
0.028
-0.008
0.004
0.027
-0.011
0.090
0.028
0.009
-0.056
0.065
0.012
0.125
0.058
-0.033
0.057
-0.050
-0.066
-0.014
0.051
-0.069
0.129
0.048
0.055
-0.011
-0.078
-0.038
-0.020
0.012
-0.050
0.075
0.070
0.050
-0.028
0.025
0.025
0.051
0.028
0.100
-0.022
0.023
0.059
0.054
0.000
-0.004
0.069
0.022
0.004
-0.021
0.069
0.041
0.103
-0.044
-0.021
-0.042
0.006
0.078
0.055
0.046
0.070
0.018
-0.009
-0.045
0.007
0.078
0.071
0.007
-0.018
0.102
0.032
-0.008
-0.057
0.033
0.160
0.129
-0.012
-0.009
0.067
0.015
-0.027
-0.075
-0.054
0.017
0.017
0.115
0.022
0.083
0.085
-0.128
0.092
0.042
0.110
-0.000
-0.021
0.094
0.087
-0.043
0.006
0.055
0.057
-0.019
-0.039
0.009
0.091
0.156
-0.051
-0.011
0.058
0.000
0.002
0.003
0.144
0.020
-0.037
0.032
0.039
0.025
0.088
-0.027
-0.018
0.139
0.022
-0.039
0.026
-0.022
-0.001
0.015
-0.033
0.006
-0.024
-0.023
0.131
0.059
0.025
0.026
-0.007
-0.063
0.014
-0.042
0.109
0.043
-0.034
0.118
0.006
-0.027
-0.007
-0.020
0.071
0.051
-0.099
0.002
0.098
0.024
0.068
-0.013
-0.014
0.074
0.001
0.048
-0.019
-0.002
0.083
-0.054
0.020
0.026
0.117
-0.012
0.000
-0.008
0.029
-0.002
0.044
0.068
0.052
-0.118
0.094
0.031
0.056
0.033
-0.056
0.105
0.065
0.070
-0.057
0.009
0.059
-0.040
0.006
-0.031
0.086
0.084
-0.006
0.081
0.019
-0.024
-0.046
0.120
0.093
0.018
0.029
0.065
-0.082
0.031
-0.025
-0.016
-0.006
0.029
-0.045
0.032
0.048
0.088
0.039
-0.053
0.022
0.051
0.049
0.058
0.061
-0.074
-0.035
0.005
0.062
-0.012
0.028
-0.026
0.042
0.082
0.014
-0.071
-0.033
0.074
0.066
-0.125
-0.050
0.132
-0.076
0.017
-0.078
-0.030
0.143
-0.029
-0.040
0.093
0.181
-0.004
0.041
-0.008
0.077
0.029
0.008
0.144
-0.052
-0.006
-0.021
0.048
0.072
0.024
-0.063
-0.026
0.030
0.019
0.042
-0.048
0.088
0.028
-0.076
0.027
0.025
0.077
-0.019
-0.013
-0.052
0.060
0.027
-0.014
0.022
-0.038
0.037
0.019
0.029
0.079
0.079
-0.160
-0.083
0.007
0.117
0.081
-0.047
0.049
0.045
0.055
0.138
-0.045
-0.014
0.046
0.118
-0.012
-0.006
0.104
0.049
0.018
0.029
0.011
0.002
-0.046
0.096
0.045
0.025
0.080
-0.009
0.011
-0.063
0.014
0.147
0.081
0.021
-0.045
-0.022
0.060
-0.045
0.004
0.016
-0.024
0.028
0.059
-0.053
0.002
0.048
0.016
-0.027
-0.078
0.026
0.060
0.097
-0.012
-0.058
-0.029
0.047
0.041
-0.063
0.013
0.013
-0.007
-0.039
0.027
0.108
-0.013
0.005
0.090
0.029
-0.083
0.051
-0.027
0.121
0.018
0.038
0.005
-0.071
0.044
0.181
0.012
-0.001
0.007
-0.041
0.043
-0.058
0.001
0.083
0.063
0.060
0.056
-0.041
-0.057
0.047
0.043
0.069
-0.022
-0.018
-0.033
-0.001
-0.025
-0.033
0.095
0.018
-0.086
0.046
0.055
-0.008
0.041
0.004
0.121
-0.005
-0.074
0.118
0.083
-0.042
0.026
-0.024
0.022
-0.003
-0.004
0.075
-0.009
0.067
-0.077
0.065
0.026
-0.090
0.004
0.070
0.022
0.088
0.016
-0.056
0.048
0.046
0.072
0.078
0.024
0.033
-0.014
-0.062
0.012
0.055
0.055
-0.011
0.097
-0.098
0.011
0.043
-0.022
-0.018
0.019
0.059
0.074
-0.060
0.046
0.081
-0.005
0.013
-0.060
0.109
0.082
0.056
-0.059
-0.109
0.003
0.070
-0.020
0.011
0.034
0.087
0.055
-0.051
0.009
-0.039
-0.015
0.048
0.024
0.072
0.043
0.021
-0.022
0.048
-0.019
-0.046
0.081
0.029
0.046
0.037
-0.003
0.041
-0.005
-0.013
0.077
-0.014
0.097
0.121
-0.062
0.012
-0.071
0.020
0.002
0.014
0.092
-0.028
0.021
-0.025
0.047
-0.017
0.045
-0.019
-0.017
0.067
-0.009
0.067
0.132
0.072
0.059
-0.062
-0.048
0.019
0.113
-0.012
0.014
-0.035
0.000
-0.025
0.083
0.035
0.126
-0.001
0.009
0.017
0.081
-0.025
-0.091
0.032
0.098
-0.038
-0.001
-0.084
0.064
0.044
-0.084
0.048
-0.058
0.105
-0.024
-0.003
0.047
0.014
-0.021
0.077
0.037
0.036
0.013
0.075
0.029
0.061
-0.048
0.010
-0.011
0.120
0.002
0.018
-0.023
-0.043
0.067
-0.001
-0.028
0.081
0.067
0.050
0.058
0.047
-0.014
-0.008
0.030
0.080
-0.066
-0.056
0.035
0.082
0.012
0.057
0.028
0.056
-0.038
0.006
0.021
-0.022
0.065
0.077
0.012
0.008
0.074
-0.042
-0.003
0.111
-0.011
-0.047
0.049
0.067
-0.022
0.037
0.027
0.027
0.066
0.062
-0.022
-0.020
-0.006
0.045
-0.021
0.044
0.043
0.090
-0.054
0.010
-0.022
0.006
-0.006
-0.044
0.088
-0.018
0.053
0.065
0.083
-0.037
0.064
-0.066
0.074
-0.037
0.060
0.130
0.126
0.047
-0.027
-0.119
0.050
0.052
-0.026
0.128
-0.031
-0.020
0.082
0.142
-0.074
-0.040
-0.010
0.028
-0.010
-0.016
0.083
-0.028
0.088
-0.005
-0.059
0.047
0.007
0.039
-0.054
-0.006
0.016
0.007
-0.042
-0.010
0.008
0.083
0.013
-0.077
0.040
0.069
-0.061
0.006
0.071
0.119
0.094
0.000
0.187
-0.005
-0.083
-0.021
0.074
0.053
-0.003
0.018
0.054
0.099
0.003
-0.044
0.004
-0.008
-0.018
0.022
-0.007
0.026
-0.011
-0.056
0.051
0.011
-0.011
0.016
0.055
0.030
0.010
0.035
-0.035
0.005
0.084
-0.099
0.006
0.056
0.092
0.071
0.021
0.059
-0.020
0.055
0.094
0.008
0.016
-0.044
0.111
-0.009
-0.046
0.009
0.027
0.116
-0.044
-0.018
0.042
0.042
-0.057
0.084
0.034
-0.065
0.026
0.056
0.057
-0.060
0.018
0.061
0.094
0.010
0.048
-0.008
0.033
-0.037
0.104
0.087
-0.107
0.053
0.076
0.009
-0.009
0.064
0.098
-0.103
0.030
0.077
0.023
-0.031
0.010
-0.038
0.018
0.032
-0.025
0.034
0.039
-0.005
0.013
0.111
0.024
0.022
-0.016
0.019
0.032
0.020
0.024
-0.040
0.018
0.056
0.111
0.078
-0.001
-0.058
0.019
-0.035
0.035
0.049
-0.004
-0.000
0.071
-0.035
0.034
0.061
0.035
0.016
0.035
-0.054
0.051
-0.029
0.053
-0.047
0.071
0.040
0.054
0.026
0.007
-0.065
0.088
-0.031
0.023
0.023
-0.013
-0.003
-0.024
-0.017
-0.068
0.012
0.139
-0.099
-0.024
0.081
0.001
0.044
0.135
-0.042
0.024
0.018
0.077
0.082
0.061
-0.059
-0.029
0.031
0.061
0.045
0.009
-0.113
-0.004
0.033
0.083
-0.015
0.008
0.092
0.058
-0.026
0.089
-0.096
0.035
-0.035
0.025
0.048
-0.075
-0.002
0.097
0.047
-0.002
-0.032
-0.006
0.043
-0.018
-0.049
0.027
0.053
-0.028
0.033
0.012
0.051
0.020
0.064
-0.025
0.024
0.042
-0.033
0.007
-0.041
0.054
0.146
0.005
0.047
0.061
-0.026
0.009
0.018
0.011
-0.050
-0.045
0.044
-0.004
0.066
0.007
0.070
-0.006
-0.009
0.017
0.023
0.027
-0.006
0.099
0.056
-0.028
0.051
-0.014
-0.021
-0.003
0.043
-0.045
-0.018
-0.005
0.004
0.056
0.026
0.075
-0.031
0.003
0.047
0.057
0.004
-0.012
0.105
0.058
-0.010
0.003
0.001
-0.032
-0.007
0.110
0.069
0.047
0.027
-0.038
-0.016
0.162
0.028
0.080
-0.016
0.020
0.064
-0.066
-0.041
0.052
0.040
0.083
0.100
0.021
-0.172
-0.067
0.008
0.103
0.054
0.053
-0.051
0.054
-0.003
-0.011
0.052
0.108
-0.010
0.082
0.014
-0.008
0.050
-0.061
0.054
0.008
-0.024
0.016
0.103
-0.050
0.068
-0.022
0.046
-0.006
-0.006
0.048
-0.028
0.027
-0.015
0.018
0.083
0.056
0.009
-0.074
0.060
0.009
0.050
-0.051
0.106
0.148
0.036
-0.079
-0.050
0.014
-0.040
0.028
0.098
-0.059
-0.060
-0.025
-0.083
0.042
0.098
0.022
-0.026
-0.000
0.147
0.006
-0.025
-0.050
-0.010
0.058
-0.030
-0.033
-0.063
0.033
0.104
0.001
0.126
-0.043
-0.082
0.096
-0.011
-0.043
0.087
0.071
-0.041
-0.061
-0.048
0.074
0.092
-0.036
-0.032
-0.028
0.034
0.018
-0.023
0.018
-0.012
0.028
0.107
0.034
-0.043
0.001
-0.020
0.058
0.019
0.076
0.036
-0.059
0.061
0.024
0.037
-0.011
0.033
0.041
0.036
-0.049
0.008
0.018
-0.019
0.053
0.002
0.013
0.097
-0.044
0.017
-0.007
0.040
-0.010
0.040
-0.019
0.024
0.025
0.040
0.043
0.036
0.038
-0.069
0.024
0.037
0.009
0.074
-0.083
0.114
0.027
-0.061
0.041
0.096
0.082
-0.036
-0.068
0.048
0.023
0.002
0.111
-0.035
-0.002
0.010
-0.010
0.071
-0.008
0.035
0.032
-0.040
0.088
0.021
-0.089
-0.042
0.001
0.101
0.105
0.019
0.058
-0.066
0.045
0.062
-0.006
0.028
0.009
-0.017
-0.023
0.078
0.023
0.027
0.034
0.036
0.002
-0.012
-0.001
-0.010
-0.018
0.015
0.016
0.068
-0.007
0.031
-0.014
0.077
-0.006
-0.021
0.105
-0.024
0.096
-0.074
-0.085
0.187
-0.007
0.035
-0.011
-0.021
0.057
0.040
-0.055
-0.011
-0.076
0.110
0.033
0.080
0.080
-0.018
-0.012
0.012
-0.019
0.043
0.042
-0.054
-0.000
0.082
-0.041
-0.010
0.104
-0.040
-0.009
0.012
0.028
0.085
0.029
0.034
0.030
0.013
0.062
0.021
0.016
0.046
0.035
-0.091
0.045
0.024
-0.049
0.019
-0.024
-0.007
0.012
0.128
0.112
-0.066
0.042
-0.044
0.034
0.022
0.028
0.015
0.068
-0.031
0.045
0.017
0.042
-0.016
0.049
0.033
0.050
0.049
-0.056
0.009
0.005
0.005
-0.089
0.065
0.047
0.093
-0.126
0.042
0.066
-0.004
-0.107
0.109
0.148
0.068
0.021
0.038
-0.041
0.017
-0.049
0.001
0.033
0.035
0.041
0.014
0.067
0.020
-0.011
0.044
-0.023
0.001
0.027
0.060
0.020
-0.032
0.046
-0.018
-0.008
0.076
0.107
-0.018
-0.028
0.015
-0.008
0.104
-0.027
-0.016
-0.068
0.077
-0.040
0.031
-0.082
0.084
0.018
0.042
0.053
-0.013
-0.044
0.084
0.104
-0.031
0.076
0.089
0.015
0.023
-0.099
0.099
0.043
0.093
-0.009
0.045
-0.060
-0.034
0.085
0.020
0.014
0.093
-0.095
0.027
0.001
-0.009
0.009
0.007
0.006
0.076
-0.009
0.085
-0.029
0.051
0.078
0.068
-0.095
0.043
0.102
0.052
-0.124
0.027
0.058
0.076
0.013
0.030
-0.033
0.031
-0.003
0.090
-0.033
0.086
-0.056
0.040
-0.025
0.023
0.056
0.120
-0.018
-0.129
0.050
0.085
0.093
0.025
-0.023
-0.036
0.063
-0.034
0.027
0.030
0.088
-0.037
-0.053
0.058
0.032
0.011
0.005
0.058
0.077
0.006
-0.065
0.032
0.039
0.135
-0.039
0.010
0.028
0.001
-0.025
0.018
0.008
0.001
-0.030
0.006
-0.022
0.094
-0.012
-0.026
0.011
0.005
-0.042
0.025
0.038
-0.042
0.018
0.046
0.085
0.062
-0.050
-0.039
-0.012
-0.115
-0.020
0.006
0.097
0.055
0.085
0.076
-0.073
-0.129
0.043
0.037
0.093
0.045
0.018
-0.053
-0.017
-0.041
-0.030
-0.026
0.098
-0.061
0.065
-0.004
-0.061
0.057
-0.057
-0.017
0.019
-0.061
0.126
0.002
0.025
0.065
-0.019
-0.057
-0.013
0.082
-0.043
0.020
0.045
-0.020
0.054
-0.008
0.003
0.019
0.025
-0.116
0.118
0.050
0.103
-0.021
0.003
-0.084
0.020
0.040
0.031
0.013
0.052
0.046
0.053
-0.045
0.032
0.037
0.051
-0.018
-0.030
0.057
0.084
0.140
-0.022
0.074
-0.004
-0.018
0.046
0.024
0.148
-0.095
-0.014
-0.076
0.054
0.042
0.033
-0.016
0.014
0.145
-0.036
0.075
-0.008
-0.017
0.040
0.098
-0.043
0.040
0.032
0.072
0.076
-0.003
0.041
0.039
0.025
-0.011
-0.058
0.085
-0.016
0.127
-0.076
-0.008
0.110
0.043
0.014
0.109
-0.031
0.078
-0.009
-0.017
-0.021
0.011
0.022
0.082
-0.003
0.005
-0.007
0.056
-0.008
0.048
0.049
0.087
-0.019
-0.032
0.066
0.062
0.010
-0.026
0.047
0.056
0.058
0.039
-0.031
0.002
0.068
-0.072
0.012
0.013
-0.011
0.014
0.048
-0.021
-0.044
-0.039
0.050
0.042
-0.073
0.044
-0.040
-0.017
0.034
0.053
0.060
-0.009
0.052
0.016
-0.003
0.013
0.033
-0.076
0.015
0.003
0.096
0.026
-0.005
0.049
-0.008
-0.007
0.001
0.069
0.009
-0.011
0.033
-0.010
-0.098
-0.031
0.017
0.126
-0.024
0.088
-0.005
-0.008
0.070
-0.047
-0.007
0.035
0.059
0.034
0.040
-0.052
-0.040
0.126
0.069
-0.025
0.010
-0.113
0.080
-0.016
-0.018
0.058
0.093
-0.000
0.105
0.052
-0.011
-0.066
-0.030
0.085
0.102
0.039
0.010
0.040
-0.101
0.035
0.031
0.033
0.060
-0.072
-0.007
0.028
0.025
-0.006
-0.008
-0.021
-0.034
0.137
0.016
0.088
-0.007
0.076
-0.056
0.140
-0.078
0.032
0.048
0.099
0.062
-0.010
0.013
0.018
-0.005
-0.026
0.079
0.050
-0.042
-0.062
0.040
0.061
-0.000
0.043
0.045
0.002
0.001
-0.007
-0.030
0.085
0.024
-0.023
0.102
0.030
-0.028
0.004
-0.057
0.018
0.113
0.088
-0.026
-0.021
0.154
-0.006
-0.076
0.032
0.017
0.082
0.021
-0.020
-0.030
0.137
-0.028
0.073
-0.104
-0.016
0.034
-0.037
0.023
0.063
0.018
-0.003
0.045
-0.031
0.007
-0.012
0.031
-0.041
0.052
0.160
0.009
0.013
-0.015
0.019
-0.002
0.019
0.005
0.048
-0.006
0.023
0.056
0.004
-0.029
-0.046
-0.032
0.060
0.001
0.065
0.065
0.033
0.068
0.054
-0.013
-0.011
0.032
0.071
0.026
0.091
-0.001
-0.001
0.014
-0.011
-0.034
0.042
-0.035
0.098
0.013
-0.019
0.008
0.082
-0.044
-0.023
0.075
0.016
0.005
-0.028
0.033
-0.028
0.067
-0.009
0.079
0.018
-0.043
0.007
0.057
-0.005
-0.008
-0.011
0.094
0.079
-0.040
0.038
-0.013
0.044
0.091
0.033
-0.077
0.046
-0.011
0.001
0.049
-0.055
-0.030
0.105
0.097
-0.076
0.073
0.016
-0.038
0.011
0.027
-0.056
-0.050
-0.046
0.090
0.058
0.068
-0.021
0.044
0.066
0.046
0.013
0.018
0.030
-0.040
-0.008
0.132
0.013
-0.048
-0.037
-0.013
0.023
-0.029
0.076
-0.002
0.046
0.021
-0.039
-0.017
-0.082
-0.024
0.065
-0.038
0.059
0.046
0.037
0.085
-0.094
-0.049
-0.002
-0.043
0.075
-0.018
0.077
0.141
0.062
0.012
0.000
0.059
-0.059
0.006
0.043
0.092
0.049
-0.008
-0.048
0.024
0.101
0.047
-0.059
0.054
0.001
-0.064
0.001
0.085
0.004
0.003
-0.141
0.015
-0.029
-0.042
0.095
0.053
0.034
0.067
0.020
-0.100
-0.008
0.030
0.035
0.133
-0.060
-0.061
-0.006
0.001
0.034
0.114
-0.033
0.050
0.029
0.055
0.107
0.086
-0.016
-0.057
-0.002
-0.007
0.059
-0.031
0.097
0.045
0.013
0.044
-0.014
-0.010
0.024
-0.041
0.013
0.058
0.061
-0.049
0.017
0.017
0.052
0.070
0.037
0.026
-0.136
0.111
0.043
-0.022
0.099
-0.013
-0.055
0.063
0.036
0.144
-0.018
-0.164
-0.049
0.042
0.119
0.007
0.182
0.059
0.050
-0.051
0.023
0.033
-0.060
0.059
0.014
0.037
0.104
0.010
0.055
0.048
0.015
-0.078
0.039
0.030
-0.083
0.019
0.014
0.042
-0.044
0.134
-0.053
0.073
-0.070
-0.011
0.062
0.044
-0.018
0.002
0.027
0.037
0.019
-0.081
0.039
0.026
-0.018
0.052
0.082
-0.046
0.063
-0.046
0.061
-0.001
-0.009
0.038
0.033
0.060
-0.041
-0.007
0.012
0.059
0.025
0.077
-0.007
0.004
0.007
0.011
0.064
0.036
0.029
-0.044
0.000
0.017
0.039
0.015
-0.051
-0.015
-0.051
0.020
0.024
-0.105
0.012
0.114
0.032
-0.036
0.015
0.008
0.028
0.054
0.054
0.016
0.023
-0.022
0.146
-0.049
0.031
-0.008
0.062
-0.005
0.110
0.014
-0.008
-0.051
0.025
-0.011
0.074
-0.001
0.020
0.019
0.025
0.042
-0.080
0.064
0.044
-0.003
0.049
0.033
0.045
0.055
0.015
-0.025
0.063
-0.036
0.058
-0.041
0.112
0.083
0.065
-0.002
-0.083
-0.021
0.112
0.102
-0.056
0.026
0.096
-0.013
-0.012
0.024
0.015
0.071
0.102
-0.040
0.062
0.013
-0.074
0.022
0.069
0.054
0.052
-0.002
0.021
0.008
-0.040
0.063
0.045
0.110
0.024
0.010
0.084
-0.112
0.007
0.027
0.038
-0.010
-0.039
-0.032
0.075
-0.013
-0.010
0.012
0.113
-0.058
-0.034
0.022
-0.045
0.104
0.029
-0.028
0.073
-0.031
-0.018
0.095
-0.000
0.020
-0.022
0.038
0.110
0.056
0.065
0.014
-0.047
0.037
0.006
0.073
0.030
0.059
0.053
-0.036
-0.087
0.073
0.006
0.001
-0.006
0.035
0.003
0.039
0.028
-0.057
0.076
-0.098
-0.024
-0.061
0.114
0.032
-0.025
0.009
0.102
0.012
0.039
0.019
-0.001
0.021
-0.050
0.047
-0.008
0.036
0.062
0.015
0.074
-0.011
0.077
0.093
-0.006
-0.060
0.010
0.016
0.081
-0.022
0.029
-0.014
0.183
-0.051
-0.073
0.006
0.069
-0.020
0.065
-0.032
0.008
-0.043
0.087
0.068
0.004
0.062
0.005
0.034
0.026
0.016
-0.007
0.016
-0.015
-0.063
-0.000
0.094
-0.001
0.041
0.058
-0.016
0.060
0.079
0.026
0.024
-0.001
-0.081
0.013
0.047
0.086
-0.025
0.087
0.058
-0.133
0.023
0.078
-0.017
0.037
-0.009
0.011
0.015
-0.005
0.088
0.004
0.046
-0.114
0.006
0.060
0.031
-0.019
-0.013
0.039
0.061
0.067
0.062
0.005
-0.023
-0.025
-0.045
0.032
0.026
0.042
0.153
0.090
-0.077
-0.076
0.019
0.016
0.000
0.003
0.041
-0.014
0.045
0.011
0.032
-0.036
-0.013
0.123
-0.053
-0.001
-0.028
-0.098
0.047
0.173
-0.017
-0.077
0.031
0.041
0.042
0.012
-0.019
0.067
0.087
-0.031
0.032
0.052
0.046
-0.016
0.018
0.038
0.003
0.029
0.070
0.003
0.042
-0.011
-0.032
0.035
0.043
-0.011
0.117
-0.009
-0.003
-0.012
-0.005
-0.061
0.040
0.068
0.018
0.068
0.004
0.022
0.047
0.011
-0.004
-0.026
0.013
0.043
0.021
0.072
0.039
0.090
0.020
0.011
-0.047
0.041
0.044
-0.038
0.075
-0.053
-0.021
0.092
0.129
-0.069
0.002
-0.014
0.034
-0.042
0.035
0.027
0.034
0.067
0.034
0.056
-0.044
-0.030
0.032
0.080
-0.074
-0.039
0.114
0.059
0.064
-0.072
-0.006
0.025
-0.016
0.056
0.015
-0.012
0.045
0.040
0.067
0.016
0.028
-0.001
0.017
0.032
-0.001
0.022
-0.033
-0.060
0.033
-0.034
0.095
-0.025
-0.010
0.114
0.006
0.017
-0.060
0.093
-0.092
-0.015
0.050
0.118
0.010
0.040
-0.019
0.010
-0.013
0.056
-0.013
0.069
0.017
-0.016
-0.052
0.008
0.138
0.009
0.046
-0.062
-0.008
-0.024
0.048
-0.074
-0.035
0.015
0.094
-0.087
-0.043
0.026
0.098
-0.007
-0.016
0.026
0.039
0.068
0.030
-0.013
0.075
0.116
0.081
-0.012
-0.027
0.100
-0.013
0.002
-0.012
0.040
-0.015
-0.019
-0.031
0.089
0.007
-0.011
0.035
0.007
0.051
0.075
-0.005
0.028
0.037
0.074
0.006
-0.027
0.004
-0.024
0.140
0.031
0.002
-0.088
0.055
0.052
0.079
0.002
0.010
-0.038
-0.037
0.023
-0.023
0.044
0.122
0.058
-0.053
0.030
0.086
-0.017
0.040
0.007
-0.011
-0.051
0.128
0.059
0.050
-0.055
0.008
0.048
0.023
-0.071
0.029
0.131
0.029
0.012
0.039
0.166
-0.077
0.014
0.067
-0.049
0.002
0.026
0.110
-0.046
0.045
-0.033
0.014
0.064
-0.006
-0.069
0.018
0.116
-0.042
0.005
-0.005
-0.041
0.087
-0.022
-0.036
0.046
0.102
0.096
0.005
0.043
-0.013
-0.055
-0.023
0.005
0.021
-0.002
0.059
0.064
-0.019
-0.003
0.045
0.073
0.008
0.045
0.020
-0.073
0.077
0.026
0.088
0.061
-0.024
0.005
-0.048
-0.015
0.003
0.111
0.009
0.041
-0.029
-0.006
0.065
-0.006
0.057
-0.021
0.040
-0.188
0.035
0.121
0.044
0.060
0.054
0.058
0.029
-0.057
-0.022
0.107
0.163
-0.009
-0.044
0.023
-0.040
-0.031
0.006
0.059
0.041
0.041
-0.049
0.068
0.060
0.038
-0.013
0.020
0.081
0.006
0.040
-0.039
0.007
0.065
-0.023
0.069
0.022
0.045
0.013
0.057
0.015
0.004
0.013
0.036
0.019
-0.012
0.022
0.065
0.078
-0.057
0.069
-0.017
-0.045
0.014
0.040
0.075
-0.013
0.066
0.005
0.050
-0.019
0.007
-0.055
0.095
0.096
-0.004
0.014
-0.143
0.096
0.035
-0.001
0.072
-0.050
-0.008
0.009
0.060
0.014
0.013
-0.009
-0.047
0.015
0.051
-0.021
0.044
-0.004
0.085
-0.002
-0.002
0.076
-0.049
0.069
0.016
-0.011
0.018
0.004
-0.034
0.135
0.037
-0.023
0.050
0.022
-0.018
0.003
0.042
-0.013
-0.027
0.085
0.107
-0.008
0.046
0.119
-0.088
-0.028
0.013
-0.014
0.031
0.041
0.085
0.027
-0.075
0.116
-0.064
-0.016
0.103
0.003
-0.009
0.051
-0.121
0.061
-0.092
0.124
0.114
0.019
-0.008
-0.078
0.026
0.079
-0.001
-0.028
0.044
0.156
-0.015
-0.025
0.036
0.011
-0.008
0.104
0.058
0.079
0.079
-0.048
0.011
0.008
0.033
0.032
0.018
0.011
0.085
0.077
-0.045
-0.084
0.033
0.034
0.073
0.031
0.015
0.004
-0.050
-0.069
0.014
0.044
-0.057
-0.054
0.015
0.148
0.036
0.008
-0.079
-0.003
0.064
0.056
0.054
-0.015
0.013
0.074
-0.030
0.093
0.012
-0.069
-0.085
0.090
0.112
-0.040
-0.033
0.037
-0.016
-0.009
-0.018
-0.045
0.092
0.091
0.035
-0.054
-0.022
-0.022
0.121
0.023
0.062
0.005
0.067
0.035
0.001
-0.045
0.019
-0.007
0.109
-0.051
-0.006
0.014
-0.005
0.020
-0.017
0.014
0.078
0.004
0.027
-0.046
0.020
-0.023
0.028
-0.094
0.022
0.122
0.028
-0.046
-0.015
0.143
0.086
-0.063
-0.053
0.013
0.003
0.055
0.054
0.091
0.046
-0.018
-0.036
0.039
0.054
0.005
0.007
0.002
0.026
0.025
0.035
0.125
0.033
0.015
-0.083
0.037
-0.017
0.042
-0.029
0.094
0.020
0.075
0.038
0.003
0.006
-0.026
-0.028
0.032
-0.051
-0.016
0.021
0.031
0.051
0.034
0.070
-0.078
-0.009
-0.003
0.084
0.012
0.117
0.033
0.021
-0.005
0.005
-0.044
0.111
0.034
0.073
-0.026
0.005
0.111
-0.036
0.033
-0.126
0.025
0.026
0.089
0.028
-0.036
-0.013
0.053
0.069
-0.005
0.001
0.028
0.026
-0.004
0.060
0.117
0.052
-0.085
0.040
0.001
0.074
-0.089
-0.056
0.091
0.048
0.061
0.134
0.063
-0.097
-0.116
0.089
0.067
0.108
-0.000
-0.043
0.016
0.062
0.030
-0.042
0.089
0.046
-0.029
0.054
-0.051
0.055
0.027
-0.002
0.072
-0.003
0.015
-0.011
-0.011
0.024
-0.001
0.066
0.004
-0.009
-0.008
-0.033
-0.023
0.109
0.034
-0.017
0.022
0.054
-0.057
0.036
-0.007
0.061
0.060
-0.042
0.091
-0.056
0.087
0.026
0.109
-0.072
0.050
0.040
0.038
0.021
0.040
0.037
-0.045
0.054
0.011
-0.004
-0.072
0.045
0.006
0.056
0.013
0.040
-0.129
0.041
0.094
0.023
-0.062
0.020
0.045
-0.006
-0.065
0.071
0.033
0.044
-0.037
-0.022
-0.076
0.124
-0.013
0.007
-0.005
0.032
0.036
0.001
-0.005
-0.046
-0.029
0.109
0.092
0.058
-0.002
-0.059
0.133
0.064
0.020
-0.027
0.056
0.020
0.093
0.107
-0.056
-0.028
0.045
0.035
-0.020
0.078
-0.043
0.009
-0.015
0.017
-0.011
0.051
-0.068
0.069
0.100
0.049
-0.000
-0.015
0.033
0.085
-0.009
-0.023
0.003
0.077
-0.043
-0.018
0.012
0.091
0.043
-0.059
0.031
0.064
-0.031
-0.088
0.044
0.036
0.113
0.055
0.021
0.081
0.084
-0.108
0.010
-0.000
0.108
-0.037
0.090
0.056
-0.021
-0.089
0.020
0.063
-0.007
0.019
0.021
0.055
-0.052
-0.001
0.042
0.025
-0.048
0.140
-0.027
0.052
0.034
0.018
0.109
-0.047
0.009
-0.027
-0.079
-0.032
0.096
0.114
0.031
0.016
0.029
-0.030
0.003
-0.010
0.080
-0.056
0.021
0.071
0.025
-0.073
0.037
0.108
0.074
-0.042
-0.053
-0.008
0.027
0.062
-0.048
-0.063
0.009
-0.031
0.064
0.067
0.068
-0.017
0.009
-0.069
0.004
0.125
0.050
0.012
0.002
0.030
-0.052
0.065
0.134
-0.069
0.058
0.003
0.031
0.021
-0.052
0.021
0.104
0.045
-0.037
-0.096
0.052
0.100
0.042
-0.108
-0.030
0.046
0.037
-0.033
0.074
0.016
0.033
0.035
-0.044
-0.006
0.123
0.044
-0.002
0.043
-0.049
0.012
0.074
0.046
-0.003
0.064
0.071
-0.120
0.027
0.002
0.061
0.048
0.021
-0.042
0.011
0.006
-0.055
0.026
0.082
-0.011
0.062
-0.039
-0.002
0.013
0.051
0.002
-0.010
0.007
0.112
-0.072
0.057
-0.038
0.068
0.149
0.017
-0.011
-0.016
-0.019
0.093
0.075
0.012
0.048
0.013
0.057
-0.060
-0.029
0.066
0.068
-0.024
-0.039
0.062
0.015
0.074
0.035
-0.059
0.044
-0.053
0.043
-0.052
0.039
0.107
0.074
-0.003
-0.044
0.041
0.041
0.003
-0.007
0.131
0.026
0.019
-0.067
0.054
0.026
0.099
0.031
-0.040
0.031
-0.007
-0.062
0.091
0.023
0.020
0.138
-0.022
0.008
-0.010
0.039
0.058
0.022
0.053
-0.028
-0.030
0.137
-0.037
0.061
0.123
0.007
-0.003
-0.088
-0.068
0.175
0.045
0.055
-0.013
-0.049
-0.012
0.118
0.012
-0.036
0.021
0.136
-0.029
0.008
0.059
0.088
0.010
-0.012
-0.051
0.064
0.033
-0.012
0.031
-0.055
-0.002
0.005
0.050
-0.028
0.081
0.041
-0.072
0.052
0.036
0.005
-0.009
0.001
0.071
0.088
0.010
0.046
-0.021
-0.041
0.026
0.025
0.027
0.026
-0.006
-0.042
0.044
0.058
0.059
0.020
-0.070
0.063
0.063
0.024
-0.031
-0.001
-0.009
0.057
0.052
-0.009
0.052
0.026
-0.021
0.013
-0.036
0.095
0.073
-0.024
-0.001
-0.025
0.029
0.086
0.051
0.000
-0.076
-0.054
0.061
0.035
0.025
0.023
-0.015
0.094
0.023
-0.104
0.007
0.031
0.053
0.062
-0.028
0.030
0.018
-0.004
0.020
-0.035
0.046
-0.004
0.075
0.057
0.033
0.009
0.118
-0.026
-0.010
-0.039
0.060
0.003
0.029
0.071
0.015
0.050
0.014
0.001
0.013
0.018
0.007
-0.011
0.015
0.104
0.006
-0.014
0.009
-0.025
0.039
-0.005
-0.021
0.028
0.126
-0.067
0.025
-0.077
0.028
0.002
0.062
-0.015
-0.012
-0.009
0.021
0.040
0.011
0.030
-0.032
-0.013
-0.057
0.083
0.082
0.047
-0.022
0.058
-0.083
0.052
0.108
0.089
0.021
-0.079
0.056
0.022
0.057
-0.037
-0.031
-0.064
-0.039
0.080
0.082
-0.039
-0.059
0.070
0.043
0.031
0.026
-0.054
0.019
0.052
-0.012
-0.047
0.030
0.011
0.041
0.035
0.008
0.072
0.011
0.052
0.013
0.032
0.029
-0.004
0.052
-0.013
0.020
-0.033
0.041
-0.094
0.086
-0.045
0.039
0.076
-0.061
0.129
0.041
-0.015
-0.012
-0.053
-0.003
0.136
0.096
0.092
-0.102
-0.018
0.074
0.045
-0.062
0.029
0.123
0.061
0.036
-0.072
0.078
0.068
-0.007
-0.006
0.035
-0.088
0.046
0.016
-0.030
0.132
-0.028
0.000
0.016
0.014
0.082
0.089
-0.041
-0.005
0.059
0.018
0.011
-0.004
0.056
0.018
0.062
0.046
0.048
-0.047
0.047
0.052
0.065
-0.033
-0.091
0.027
0.028
0.034
0.024
0.039
0.011
0.008
-0.018
0.033
0.021
0.051
-0.006
-0.039
-0.016
0.005
0.112
0.042
0.047
0.007
-0.028
-0.045
-0.073
0.020
0.033
0.121
0.077
-0.136
-0.029
0.044
0.004
0.010
0.012
0.073
-0.007
0.058
0.007
0.001
0.059
0.067
-0.002
-0.109
0.018
0.163
-0.131
-0.033
0.109
0.077
-0.057
0.077
0.025
-0.007
0.003
0.039
-0.064
0.016
0.020
0.016
-0.009
0.009
-0.035
-0.035
0.030
0.064
0.073
-0.028
-0.044
-0.024
0.005
-0.009
0.069
0.063
-0.047
0.024
0.030
-0.070
0.058
0.058
0.071
-0.004
-0.027
0.000
0.020
-0.031
0.074
0.073
0.066
-0.049
0.078
-0.060
0.014
0.105
-0.005
-0.016
-0.005
0.033
0.025
-0.028
0.039
0.036
0.024
-0.031
-0.085
0.069
0.058
-0.024
0.103
0.023
0.061
0.065
0.033
-0.032
0.018
0.013
0.025
0.048
-0.065
0.045
0.017
0.063
0.043
-0.086
0.058
-0.163
0.064
0.049
0.162
0.042
-0.097
0.084
-0.036
-0.009
0.010
0.064
0.058
0.029
-0.048
0.013
-0.050
0.103
0.037
0.108
-0.010
0.023
-0.052
-0.027
0.054
0.028
0.064
-0.068
0.054
0.019
0.041
-0.033
-0.054
0.021
0.079
0.068
0.073
-0.032
0.038
-0.065
-0.039
0.117
0.077
-0.036
-0.076
0.045
0.074
0.035
0.032
0.019
-0.005
0.004
0.005
0.091
0.000
0.028
-0.064
0.048
0.113
0.031
0.042
-0.017
-0.053
0.052
0.053
-0.064
0.099
0.078
0.015
0.055
-0.005
-0.000
-0.099
0.055
0.088
0.091
0.052
0.080
0.020
-0.142
0.029
-0.012
0.018
0.043
-0.001
-0.032
-0.025
0.042
0.103
0.013
-0.048
-0.039
0.131
-0.009
0.050
0.001
0.100
0.068
0.046
0.108
-0.003
-0.056
0.126
-0.016
-0.036
-0.002
0.060
-0.030
-0.001
0.071
0.070
-0.028
0.006
0.029
-0.027
-0.015
0.033
0.096
0.034
-0.108
0.052
0.092
-0.007
-0.009
-0.006
0.055
0.072
-0.054
0.000
-0.016
0.134
0.066
0.050
0.007
0.017
-0.043
0.005
0.009
0.012
0.067
-0.037
0.033
0.081
0.032
-0.057
0.003
-0.022
-0.094
0.009
0.078
0.057
-0.021
-0.017
-0.035
-0.001
-0.031
0.130
0.066
0.050
-0.034
-0.075
-0.066
-0.003
0.152
0.052
0.010
0.032
-0.008
0.071
0.044
-0.039
-0.004
-0.056
-0.001
0.024
0.066
0.013
0.033
0.092
-0.021
0.085
-0.039
-0.029
-0.030
0.050
0.103
0.061
0.055
0.036
-0.026
0.037
0.009
-0.054
0.080
0.002
-0.033
0.058
-0.007
0.046
0.017
0.093
0.030
0.003
0.042
0.020
0.078
-0.026
-0.007
0.044
-0.079
-0.006
-0.033
0.075
0.030
0.021
0.006
0.021
0.105
-0.032
-0.079
0.009
0.033
0.066
0.018
-0.002
-0.009
-0.052
-0.000
-0.013
0.001
0.098
-0.061
0.081
0.037
0.059
0.011
0.080
0.032
-0.012
-0.001
0.039
0.063
-0.037
-0.053
0.077
0.002
0.008
0.009
-0.039
0.069
0.025
0.040
0.019
0.002
0.000
0.046
0.007
-0.023
-0.021
0.027
0.051
-0.058
-0.004
0.001
0.079
-0.052
0.065
0.149
-0.060
-0.071
-0.005
0.015
0.122
0.072
0.019
-0.004
-0.062
-0.057
-0.025
0.010
-0.018
0.006
0.067
0.032
-0.020
-0.069
-0.003
0.077
0.074
0.008
-0.060
0.009
0.111
0.092
0.078
-0.001
0.022
0.002
0.034
-0.007
0.033
0.094
0.104
-0.038
0.012
-0.046
0.019
0.160
0.045
0.079
-0.082
-0.096
0.093
0.092
0.004
-0.103
0.024
0.065
0.029
0.095
-0.009
0.070
-0.028
0.005
-0.014
0.077
0.019
0.032
0.019
0.018
0.123
0.000
-0.029
-0.069
0.061
-0.034
0.012
0.072
0.006
0.032
0.051
-0.003
-0.063
0.046
-0.030
0.121
-0.040
0.093
0.067
-0.027
0.005
-0.003
-0.038
0.116
0.072
-0.097
0.081
-0.028
0.057
-0.052
0.036
0.036
0.082
-0.022
-0.028
0.044
0.085
-0.074
0.009
0.027
-0.018
-0.035
0.052
0.133
-0.029
-0.011
-0.010
0.032
0.014
-0.009
-0.020
0.027
0.080
0.043
-0.072
0.015
-0.014
0.011
0.094
0.007
0.052
0.026
0.028
0.032
0.061
-0.089
0.029
0.049
-0.047
0.039
0.071
0.033
-0.010
-0.008
-0.004
0.032
0.061
-0.033
-0.073
0.103
0.056
-0.051
0.083
0.046
0.043
-0.019
0.008
0.027
0.001
-0.002
0.041
0.093
0.044
0.013
0.030
0.010
0.123
0.005
-0.019
-0.013
-0.014
0.060
-0.020
0.088
0.014
-0.011
-0.002
0.098
-0.037
0.032
0.064
0.043
-0.061
0.007
-0.036
-0.003
-0.012
0.115
0.013
0.019
0.002
-0.083
0.065
-0.051
0.066
0.056
0.068
-0.029
0.030
0.055
0.011
0.090
0.060
0.106
-0.019
-0.003
0.049
-0.022
0.071
0.019
-0.019
0.007
0.021
-0.032
-0.026
0.002
0.115
0.021
-0.102
0.008
0.095
-0.042
-0.031
0.047
-0.042
0.050
0.066
0.085
-0.076
-0.009
0.038
-0.039
0.106
0.092
0.030
-0.032
-0.115
0.106
0.074
-0.014
-0.010
-0.064
0.081
-0.026
0.024
-0.069
-0.024
0.049
-0.010
0.089
0.065
0.015
0.021
0.013
-0.002
0.079
0.073
0.058
-0.044
0.023
0.020
-0.084
0.035
0.025
0.084
-0.030
0.015
-0.044
0.102
0.065
0.011
-0.042
-0.062
0.090
0.048
0.055
-0.140
-0.017
0.090
0.013
0.048
0.028
-0.035
0.054
-0.048
0.064
0.097
0.023
-0.039
0.005
0.044
-0.024
-0.004
0.035
0.062
0.092
0.044
-0.055
0.048
0.038
0.040
-0.069
-0.058
0.015
0.031
-0.031
0.008
0.073
0.002
-0.015
0.016
0.002
0.103
0.003
0.134
0.065
-0.047
0.031
-0.020
0.001
0.013
0.155
0.033
0.021
0.037
-0.053
-0.008
0.013
0.077
-0.043
0.073
0.029
-0.020
-0.055
0.004
0.045
0.070
0.026
-0.007
0.001
0.036
-0.062
0.071
0.021
0.061
-0.003
0.026
0.078
-0.002
-0.037
-0.023
0.130
0.035
-0.020
-0.069
-0.068
0.043
0.071
-0.002
0.082
0.090
-0.001
0.024
0.030
-0.038
0.021
0.059
0.040
-0.048
-0.048
-0.030
0.038
-0.052
-0.069
0.069
0.082
0.017
0.067
0.007
-0.039
0.043
0.094
0.056
0.081
0.025
-0.079
0.008
0.023
0.028
0.016
-0.008
0.055
0.007
0.024
0.054
0.048
-0.157
0.071
0.077
-0.066
-0.037
0.043
-0.007
0.101
-0.058
-0.044
0.024
-0.013
0.070
0.013
0.015
-0.033
0.084
0.058
0.003
0.080
-0.044
-0.015
-0.012
0.020
0.115
-0.038
0.062
-0.011
0.046
-0.013
0.007
0.034
-0.039
-0.013
0.009
0.036
0.082
-0.095
0.008
0.110
0.006
0.012
-0.070
0.028
0.008
0.106
0.012
0.027
0.088
-0.085
0.024
0.051
-0.108
0.018
0.049
0.003
0.065
0.029
0.017
0.014
0.002
0.055
0.029
-0.015
0.012
0.064
-0.001
-0.022
0.061
-0.045
0.021
0.029
0.052
0.085
-0.019
0.034
0.008
0.000
-0.018
0.019
0.093
-0.067
-0.025
0.009
0.030
-0.023
-0.045
-0.061
0.116
0.077
0.017
0.041
0.020
-0.019
0.010
0.001
0.035
-0.043
0.043
0.144
0.012
-0.002
0.021
-0.099
-0.014
0.033
0.104
-0.032
0.064
-0.022
0.039
-0.009
-0.039
0.073
0.096
-0.019
0.017
0.040
-0.067
0.077
0.099
0.088
0.019
0.019
-0.102
0.100
0.043
-0.044
0.006
0.017
0.058
-0.014
0.070
-0.052
0.054
-0.061
0.001
0.021
-0.004
0.112
0.026
-0.048
0.037
0.043
0.040
0.015
0.051
0.029
-0.076
-0.021
0.054
0.074
0.083
-0.083
-0.000
0.016
-0.065
0.021
0.067
0.052
-0.016
-0.014
0.064
0.116
0.043
-0.017
-0.118
-0.052
-0.013
0.090
0.079
0.005
-0.037
0.035
0.079
0.006
0.083
0.009
-0.091
0.155
0.018
0.011
0.059
-0.103
0.008
0.079
-0.002
-0.149
-0.001
0.056
0.055
0.037
0.044
0.035
0.009
-0.023
0.086
-0.015
-0.041
-0.033
0.071
-0.044
0.025
-0.005
0.036
-0.021
0.016
0.085
0.020
-0.046
-0.021
0.014
-0.041
-0.012
0.021
0.087
0.062
0.066
0.034
0.027
-0.069
0.056
-0.009
-0.022
0.052
0.012
0.016
0.065
-0.010
0.047
-0.007
0.064
-0.051
0.069
-0.057
-0.046
0.009
-0.063
0.075
0.060
0.023
0.052
0.030
-0.007
0.011
0.034
0.052
0.104
0.136
0.000
-0.042
-0.049
-0.010
0.025
0.019
0.045
0.075
-0.013
0.015
-0.005
0.042
0.049
-0.050
-0.009
-0.022
0.071
0.017
0.009
0.083
0.046
-0.011
-0.018
-0.025
0.073
0.084
0.067
-0.008
-0.051
-0.059
0.052
0.100
0.035
0.034
0.033
-0.021
-0.069
0.095
0.077
-0.118
0.096
-0.000
0.055
0.039
0.016
0.026
-0.017
0.034
0.056
0.010
-0.012
0.025
0.071
0.002
-0.026
-0.010
0.057
-0.012
0.037
-0.008
-0.050
0.044
-0.019
0.074
-0.011
0.078
-0.053
-0.035
0.005
0.056
0.081
-0.053
0.011
-0.001
0.085
-0.012
0.020
0.129
0.054
-0.042
-0.016
0.021
-0.030
-0.019
0.068
0.112
-0.058
-0.086
-0.042
0.037
-0.056
0.055
0.028
-0.028
0.029
0.054
0.002
0.088
0.030
0.020
0.039
0.000
0.041
-0.073
0.005
0.025
-0.047
0.116
-0.054
-0.023
0.083
0.124
0.029
-0.111
-0.008
0.004
0.052
0.080
0.002
-0.033
0.060
0.042
-0.010
-0.076
-0.036
0.075
0.031
0.008
0.036
-0.007
-0.048
0.050
0.074
0.040
0.070
-0.005
-0.031
-0.001
0.015
0.031
-0.003
0.058
0.013
-0.056
0.026
0.051
0.017
0.050
-0.047
0.018
0.053
0.000
0.049
-0.039
0.004
0.006
0.105
0.001
0.009
-0.006
-0.010
0.063
0.118
0.038
-0.009
-0.026
0.001
-0.082
0.101
0.091
-0.066
-0.062
0.076
0.092
0.001
0.056
0.034
0.020
-0.095
0.005
0.026
0.017
0.020
0.001
-0.016
0.049
0.055
-0.062
-0.030
0.043
0.080
-0.015
-0.006
0.026
-0.001
0.158
0.023
-0.005
-0.075
0.042
-0.050
0.078
-0.025
0.083
0.068
-0.005
0.009
0.068
-0.032
-0.001
0.072
0.099
0.121
0.013
-0.092
-0.023
0.006
0.067
-0.033
-0.041
0.003
-0.004
0.071
0.013
-0.035
0.020
0.032
-0.007
-0.049
0.055
0.012
0.069
-0.038
0.052
-0.006
0.105
0.025
0.015
-0.081
0.010
0.028
0.007
0.002
-0.025
0.004
0.065
0.080
0.026
0.016
0.049
0.105
-0.052
0.013
0.092
0.075
-0.029
0.030
-0.035
-0.020
0.036
-0.016
0.092
0.004
-0.006
0.001
0.025
0.039
0.027
0.054
0.009
-0.066
0.020
-0.028
0.029
-0.069
0.071
-0.030
0.094
0.030
0.031
0.031
0.005
0.089
-0.075
0.063
0.008
0.077
-0.022
0.016
0.034
0.003
0.092
0.019
0.011
-0.035
0.063
0.011
-0.050
0.094
0.060
-0.072
0.092
-0.007
0.007
0.072
0.004
-0.132
0.108
0.036
0.037
0.039
-0.038
0.051
0.058
0.004
0.056
0.062
-0.016
-0.004
0.004
0.023
0.077
0.079
-0.024
0.037
-0.097
0.008
0.033
0.108
0.041
-0.008
-0.055
-0.045
0.016
0.077
0.087
0.060
-0.070
0.028
0.012
0.011
0.043
-0.082
0.016
-0.001
0.009
0.031
-0.026
0.027
0.116
-0.026
0.048
0.089
-0.014
-0.092
-0.030
0.008
0.100
0.136
-0.012
0.018
-0.032
0.032
0.115
-0.023
0.009
0.016
0.004
-0.019
0.060
0.090
0.000
-0.050
-0.002
0.029
-0.052
0.009
0.103
0.024
-0.040
0.072
-0.045
-0.036
0.007
0.182
-0.014
-0.032
0.084
-0.004
0.061
-0.002
-0.049
0.019
0.020
0.042
-0.030
-0.039
-0.002
0.073
0.089
-0.030
-0.032
0.099
0.014
-0.126
0.058
0.028
-0.069
0.139
0.008
-0.072
0.024
0.119
-0.030
0.053
0.016
-0.027
0.087
-0.058
-0.058
0.155
-0.016
0.017
0.127
-0.007
-0.043
0.078
-0.006
0.014
0.076
0.033
-0.049
-0.008
-0.013
0.020
0.092
-0.005
0.006
-0.072
0.024
-0.012
-0.012
0.082
-0.031
-0.003
0.005
0.042
0.035
0.020
0.016
0.090
-0.046
-0.012
-0.003
0.005
0.007
0.063
0.008
0.049
0.056
-0.049
-0.001
-0.048
0.037
0.013
0.069
0.038
-0.006
0.071
-0.014
0.146
-0.126
0.008
0.019
-0.044
0.094
0.048
0.040
0.045
-0.066
0.016
0.038
0.072
0.029
-0.022
-0.050
0.068
-0.016
0.039
-0.006
-0.030
0.074
-0.006
0.002
-0.012
0.038
0.060
-0.027
0.079
0.062
-0.029
-0.022
-0.013
0.058
0.064
0.014
-0.037
-0.037
0.032
0.092
0.054
-0.074
-0.069
-0.010
0.030
0.025
-0.041
0.042
0.081
0.019
-0.002
-0.022
0.073
-0.099
0.053
0.011
0.051
0.057
-0.029
0.020
-0.023
0.040
0.054
-0.008
0.004
0.012
0.057
0.026
-0.082
-0.002
-0.056
0.157
0.050
0.009
-0.071
-0.061
0.074
-0.026
-0.015
-0.026
-0.043
0.015
0.051
-0.001
-0.018
-0.024
-0.005
0.091
-0.006
0.017
0.005
-0.028
0.059
-0.003
-0.014
-0.016
0.016
0.005
0.063
0.040
-0.004
-0.011
0.018
-0.009
0.010
0.112
0.038
0.014
0.009
-0.006
-0.007
0.095
0.093
0.034
-0.110
0.022
0.060
0.002
0.009
0.017
0.026
0.033
0.059
-0.074
0.038
0.048
0.033
0.020
0.038
0.008
0.041
0.052
0.003
-0.120
0.083
0.061
-0.000
0.052
-0.050
0.004
0.030
0.037
0.085
0.040
-0.041
0.128
0.075
0.030
0.024
-0.055
-0.031
0.089
-0.009
-0.076
0.058
0.086
0.056
-0.068
-0.034
0.013
-0.008
0.004
0.146
-0.032
0.058
0.051
-0.018
-0.058
0.028
0.132
0.017
0.021
-0.017
-0.007
0.061
0.036
0.110
-0.074
-0.001
0.084
0.056
-0.022
0.040
0.025
0.083
-0.047
-0.062
0.045
0.118
0.012
0.005
0.002
-0.029
-0.014
-0.022
-0.012
-0.035
0.023
0.010
-0.017
0.029
0.075
0.054
-0.016
-0.053
0.027
-0.063
0.017
-0.046
0.078
0.028
0.030
0.063
-0.023
-0.027
-0.007
0.020
0.003
0.051
0.070
-0.053
-0.025
0.055
0.039
0.093
-0.050
0.030
0.029
0.029
-0.030
0.024
0.009
0.015
0.073
-0.046
-0.016
-0.038
0.047
0.042
-0.052
-0.006
0.110
0.092
-0.033
-0.062
-0.020
-0.002
0.107
-0.003
-0.065
0.065
0.029
0.035
-0.009
-0.025
0.150
-0.047
-0.006
0.000
-0.042
0.009
0.020
0.028
0.027
-0.006
0.012
0.096
0.071
-0.101
0.085
0.056
0.080
-0.007
-0.018
0.116
0.004
-0.045
0.040
0.030
-0.043
-0.096
-0.025
0.014
0.112
-0.041
0.045
0.020
-0.007
0.084
0.029
0.054
0.039
0.018
-0.024
-0.100
0.118
0.012
0.016
0.064
-0.006
-0.059
0.099
0.021
0.035
0.058
0.089
-0.073
0.004
0.059
0.001
0.050
0.100
-0.055
0.016
0.042
0.072
0.061
0.097
-0.021
-0.008
-0.055
0.076
0.156
-0.039
0.002
0.072
-0.054
0.018
0.043
0.102
0.009
0.042
0.114
-0.061
-0.028
0.033
0.043
-0.022
0.067
-0.020
0.087
-0.023
0.083
0.022
-0.161
0.066
0.051
0.146
0.049
-0.002
0.050
-0.025
-0.024
-0.024
-0.008
0.031
-0.071
0.127
-0.011
0.124
0.047
0.019
0.005
0.047
-0.029
0.030
0.056
0.132
0.018
0.011
-0.066
0.056
0.017
-0.042
-0.036
0.087
0.027
0.120
-0.076
0.023
0.030
0.061
0.042
0.008
-0.022
0.029
-0.038
-0.029
0.078
0.049
-0.004
-0.075
0.023
0.106
-0.018
0.029
0.053
-0.031
0.043
0.031
0.121
0.127
0.009
-0.063
0.028
-0.008
0.025
0.035
0.059
-0.048
0.030
-0.026
0.021
0.045
-0.033
0.065
-0.099
-0.034
0.142
-0.010
0.062
-0.088
0.035
0.050
0.049
0.037
-0.038
-0.017
0.059
0.007
0.026
0.003
0.006
0.152
0.034
-0.052
0.039
0.068
-0.038
-0.077
0.016
0.089
-0.024
0.058
0.107
-0.036
-0.005
0.063
0.039
-0.050
0.049
0.051
-0.047
0.027
0.185
0.016
-0.084
-0.039
-0.033
0.018
0.080
0.002
0.010
0.050
-0.035
0.022
0.090
-0.077
0.023
0.068
0.034
0.070
-0.112
-0.052
-0.008
0.068
0.093
-0.063
0.030
0.005
0.012
-0.023
0.017
0.101
0.008
0.051
-0.007
-0.062
0.006
-0.029
0.040
0.093
0.013
0.004
-0.029
0.106
-0.001
-0.031
0.064
0.089
-0.000
0.025
0.054
-0.095
0.071
0.012
-0.053
-0.041
-0.007
0.036
0.012
-0.007
0.027
0.042
-0.038
0.046
0.003
0.059
-0.025
0.048
0.012
0.033
0.031
-0.037
0.049
-0.041
-0.068
0.114
0.007
0.069
0.010
0.058
0.011
0.103
0.006
-0.023
-0.019
-0.003
0.145
0.061
-0.061
-0.074
0.178
-0.041
-0.008
-0.020
0.018
-0.080
-0.004
0.090
-0.059
0.055
0.055
-0.008
-0.081
-0.075
0.098
0.065
-0.006
0.078
0.007
-0.056
0.155
0.029
-0.010
0.025
0.043
0.005
0.072
-0.046
-0.038
-0.074
0.041
0.053
0.022
0.016
0.078
-0.021
-0.046
0.021
-0.030
0.060
-0.016
0.043
0.044
0.086
0.012
-0.044
-0.006
0.031
0.048
-0.057
0.022
0.095
0.016
0.039
0.056
-0.013
-0.033
0.018
0.023
0.070
-0.006
-0.015
0.051
-0.008
0.017
0.009
-0.019
0.001
-0.026
0.094
0.053
-0.014
-0.046
-0.031
0.077
0.052
0.003
0.038
-0.031
0.132
0.046
-0.068
-0.024
0.063
0.039
0.029
-0.017
0.122
-0.046
-0.008
-0.019
-0.019
-0.003
0.087
0.021
0.014
0.032
-0.057
-0.014
0.083
0.040
0.023
0.052
0.060
0.046
-0.026
0.046
-0.030
-0.032
0.002
0.062
-0.014
0.099
0.057
0.014
-0.006
0.010
0.020
0.042
-0.036
0.074
0.011
-0.041
0.050
-0.026
0.034
-0.014
0.019
-0.003
0.060
0.028
-0.007
0.084
-0.018
0.056
-0.024
0.055
-0.078
0.036
0.039
0.050
-0.003
-0.059
-0.005
0.036
0.004
0.037
0.005
0.000
0.077
0.021
0.018
0.091
-0.049
0.039
-0.009
0.003
0.046
0.065
0.106
-0.073
0.073
0.029
0.029
-0.028
-0.054
0.005
0.035
-0.037
0.067
0.004
0.051
0.117
0.019
-0.030
0.032
0.014
-0.043
-0.011
0.094
0.076
0.017
-0.035
0.018
0.113
0.025
-0.026
-0.014
0.053
-0.019
0.072
-0.011
0.056
-0.042
0.049
0.092
0.038
0.015
0.059
0.084
0.075
-0.050
-0.051
0.060
0.012
0.090
0.043
0.057
0.001
-0.006
0.029
0.126
0.031
-0.034
0.004
-0.044
0.131
0.024
0.080
-0.045
0.104
-0.042
-0.031
0.014
0.089
-0.025
-0.042
0.027
0.092
0.053
0.023
0.001
0.066
-0.018
0.052
0.128
0.077
0.029
-0.021
0.016
0.121
0.019
-0.057
0.036
0.036
0.020
-0.017
0.006
-0.011
0.078
-0.002
0.014
0.107
0.027
-0.059
0.066
-0.014
0.049
0.013
0.011
0.101
0.048
-0.044
-0.048
0.105
0.011
0.016
0.008
0.032
0.001
0.082
0.010
-0.024
-0.032
0.057
0.002
-0.019
0.079
0.039
0.006
0.006
-0.038
0.104
-0.048
0.068
0.023
-0.041
-0.022
0.053
0.020
0.145
-0.093
-0.064
-0.035
0.081
0.103
0.104
0.039
-0.064
0.020
0.043
0.041
0.043
0.064
0.031
0.009
-0.000
0.003
-0.002
0.061
0.025
-0.010
0.007
0.047
-0.019
0.037
-0.006
0.077
0.059
-0.009
-0.052
0.057
-0.058
0.016
0.024
0.079
0.047
-0.020
0.030
0.058
-0.005
0.053
0.057
0.104
0.035
-0.043
0.070
-0.015
0.008
0.030
-0.039
0.036
0.014
0.048
-0.001
-0.017
-0.027
0.157
-0.004
-0.017
0.028
-0.037
-0.032
0.066
0.002
0.054
0.011
0.062
-0.015
0.058
-0.003
-0.024
-0.005
-0.013
0.070
0.041
0.016
-0.063
0.032
0.106
0.050
0.053
-0.008
-0.014
0.028
0.014
0.068
0.062
-0.013
0.068
-0.054
0.066
-0.021
-0.034
-0.027
0.018
0.096
0.001
-0.003
-0.019
0.034
-0.007
0.036
0.140
-0.035
-0.063
0.043
0.001
-0.075
-0.012
0.070
0.104
-0.028
0.032
0.006
-0.010
0.016
0.058
0.053
0.049
0.046
-0.026
-0.018
0.062
0.061
0.015
0.052
-0.099
0.047
-0.029
0.076
0.091
0.053
-0.017
-0.025
0.002
-0.036
0.056
0.127
-0.004
-0.016
0.026
-0.023
-0.009
0.043
0.021
0.066
0.037
0.044
0.005
-0.031
-0.038
-0.022
0.146
0.072
-0.012
0.138
-0.006
0.009
0.081
-0.052
0.001
0.054
0.078
0.044
0.038
0.052
0.021
0.006
-0.025
0.084
0.066
-0.025
0.049
0.031
-0.071
0.045
-0.038
0.024
0.015
0.070
0.032
-0.016
0.067
-0.024
-0.036
0.035
0.101
0.075
-0.007
0.056
-0.010
-0.021
0.018
0.023
0.097
0.054
-0.013
-0.089
0.001
0.115
0.049
0.014
0.015
0.059
-0.008
0.045
0.041
-0.007
0.075
0.060
0.055
0.012
-0.007
0.090
-0.033
-0.014
0.014
0.130
0.054
-0.092
-0.037
0.041
0.080
0.018
-0.036
-0.025
-0.001
0.076
0.088
0.030
0.079
0.053
-0.053
-0.071
0.044
0.005
0.036
-0.022
0.116
0.018
-0.004
0.064
0.023
0.035
0.037
-0.041
0.108
0.073
0.062
0.089
-0.058
0.013
-0.034
0.061
0.003
0.054
0.003
0.067
0.002
0.079
-0.029
0.008
-0.016
-0.086
0.051
0.107
-0.022
-0.018
-0.061
0.058
0.059
0.075
0.079
-0.009
-0.092
-0.005
0.014
0.046
0.053
-0.024
0.035
0.038
0.058
0.047
0.016
0.003
0.022
0.118
0.071
-0.044
0.003
0.161
-0.055
0.000
-0.018
-0.042
0.094
0.050
0.030
-0.002
0.011
-0.005
0.070
-0.000
0.005
-0.021
0.038
0.016
0.035
0.033
0.098
-0.083
-0.066
0.007
0.063
0.025
-0.006
0.054
-0.099
-0.021
0.026
0.029
0.053
0.030
-0.023
-0.039
0.089
0.081
0.075
-0.022
-0.010
0.010
0.050
0.038
-0.096
0.113
-0.004
-0.001
0.124
-0.013
0.015
0.059
0.078
-0.002
-0.011
0.039
-0.015
-0.014
0.032
0.027
0.049
0.003
-0.111
0.025
0.098
0.011
0.056
0.017
-0.063
-0.002
0.015
0.039
0.029
0.003
0.093
0.041
0.042
0.025
-0.151
0.066
0.102
0.088
0.144
-0.069
-0.035
-0.075
0.071
0.067
0.018
0.060
-0.016
0.077
-0.021
0.080
-0.027
-0.061
0.053
0.133
-0.034
0.017
0.011
0.038
0.096
0.028
0.020
0.050
0.023
-0.141
0.042
0.042
0.033
-0.036
0.024
0.039
0.054
0.038
0.065
-0.000
0.050
-0.035
0.068
-0.037
-0.033
-0.023
0.030
0.010
0.043
-0.052
0.011
0.039
0.042
0.139
-0.037
0.078
-0.023
-0.029
0.056
0.024
0.034
0.035
-0.060
0.030
0.093
0.003
-0.027
-0.019
0.080
0.063
0.025
0.006
0.044
0.037
0.046
-0.028
-0.046
-0.008
0.061
-0.027
-0.014
-0.026
0.043
0.063
0.052
-0.060
-0.005
-0.030
0.010
0.050
0.086
0.028
-0.021
-0.013
0.028
-0.034
0.156
-0.016
0.037
-0.032
0.037
-0.079
0.008
0.121
-0.003
-0.019
0.065
-0.004
0.081
0.075
-0.008
-0.060
0.011
0.059
0.022
-0.040
0.077
0.007
0.059
-0.063
0.034
0.070
0.029
0.009
0.032
0.017
0.006
0.047
0.004
-0.047
0.100
0.054
0.075
0.042
-0.016
-0.037
0.045
0.002
-0.042
-0.063
0.087
0.005
0.032
0.085
0.060
-0.071
0.045
0.050
0.058
0.047
0.012
0.029
0.010
-0.029
0.026
0.053
-0.029
-0.022
-0.012
0.036
0.056
0.038
0.014
0.044
0.037
-0.004
-0.043
0.135
-0.033
0.006
0.035
0.026
-0.071
0.110
0.014
-0.038
-0.027
-0.026
0.130
0.080
0.077
-0.026
-0.034
0.026
-0.005
0.050
-0.021
0.026
-0.018
-0.001
-0.030
0.010
0.072
0.077
-0.049
0.011
-0.045
-0.000
0.052
0.044
-0.004
0.019
0.032
-0.018
0.059
0.017
0.039
0.001
0.013
-0.002
-0.029
0.110
-0.062
0.030
0.008
-0.004
0.051
-0.010
-0.025
-0.029
0.027
0.005
0.044
0.039
0.024
0.019
-0.081
0.038
0.025
-0.024
0.055
0.047
0.028
-0.112
0.037
0.012
0.016
0.077
-0.053
0.005
0.071
0.030
0.002
0.058
-0.071
-0.012
0.037
0.072
0.061
-0.099
-0.074
0.046
0.030
-0.021
0.033
0.056
-0.003
0.026
0.061
-0.058
-0.013
0.104
0.044
-0.004
-0.012
-0.030
0.084
-0.039
0.008
0.031
0.013
0.010
0.044
0.078
-0.088
-0.022
0.087
0.063
-0.039
0.049
-0.034
-0.012
0.019
-0.002
0.008
0.067
0.042
0.034
0.031
-0.006
0.019
-0.051
0.048
-0.014
-0.018
-0.021
0.062
0.205
0.114
-0.080
-0.047
-0.029
-0.062
0.012
0.090
0.051
-0.035
0.009
0.093
0.059
0.010
0.089
-0.023
-0.068
0.067
0.039
0.048
-0.055
0.042
-0.037
0.019
0.036
0.019
0.094
-0.053
0.010
-0.006
-0.072
0.055
0.122
-0.001
-0.078
-0.035
0.039
-0.083
0.039
0.015
0.025
0.021
0.055
0.028
-0.005
-0.013
0.015
0.025
0.078
-0.019
-0.009
0.027
-0.058
0.069
-0.011
0.047
0.057
0.043
0.013
-0.024
-0.014
0.039
-0.018
0.058
0.034
-0.056
0.087
-0.006
0.064
0.115
0.048
-0.053
-0.025
-0.017
0.049
0.078
-0.063
-0.035
-0.003
0.043
-0.012
-0.010
-0.060
0.095
0.072
-0.012
-0.028
-0.051
0.027
0.059
0.016
-0.020
0.026
-0.067
0.051
0.072
0.065
-0.068
-0.021
-0.066
-0.016
0.054
0.022
0.038
-0.049
-0.033
0.046
0.045
0.033
0.053
0.087
-0.062
0.056
0.059
0.004
0.088
0.002
0.091
0.015
0.017
0.046
0.056
0.049
0.079
0.010
-0.104
-0.052
0.011
0.074
0.040
-0.041
0.052
0.065
-0.084
0.008
0.097
-0.087
0.059
0.021
-0.022
0.004
0.004
0.047
0.119
0.008
-0.024
0.010
0.080
-0.008
0.039
-0.009
0.002
0.006
-0.059
-0.010
0.034
-0.010
0.083
0.005
0.050
0.029
-0.070
0.006
0.049
0.092
-0.023
-0.077
0.135
0.087
-0.045
0.042
0.026
0.013
0.043
0.005
0.016
-0.000
0.010
0.060
0.055
0.007
0.061
0.042
0.044
0.018
-0.048
0.001
-0.024
0.061
0.028
0.022
0.084
0.021
-0.008
-0.062
0.045
-0.014
-0.062
0.015
0.039
-0.002
-0.067
0.104
0.135
-0.049
-0.070
-0.019
0.066
0.026
0.032
0.011
-0.079
-0.032
0.023
0.088
-0.016
0.060
0.077
0.007
-0.047
-0.099
0.087
0.080
0.095
-0.053
-0.014
0.016
0.038
0.015
-0.033
0.095
0.013
0.064
0.077
0.030
-0.124
0.037
-0.007
0.063
-0.015
0.085
-0.009
0.013
-0.018
0.086
-0.070
0.001
0.071
-0.043
0.111
-0.073
-0.059
-0.069
0.043
0.055
-0.005
-0.025
0.043
0.078
0.003
0.031
-0.007
0.075
0.061
0.050
-0.021
0.014
0.076
-0.026
0.024
0.098
-0.054
0.078
0.092
0.019
0.083
0.019
-0.036
-0.022
-0.029
0.017
0.058
-0.054
0.094
0.064
0.085
-0.082
-0.031
-0.032
-0.011
0.090
0.054
0.080
-0.093
-0.106
0.068
0.010
0.062
-0.027
0.026
0.074
0.040
0.035
0.017
-0.034
0.078
0.023
-0.023
-0.051
0.097
0.013
-0.073
0.069
-0.010
-0.042
0.009
0.068
0.150
-0.010
-0.020
-0.003
0.047
0.016
0.061
0.037
0.029
0.025
0.009
0.072
-0.018
-0.004
-0.025
0.049
0.091
0.058
0.025
-0.106
-0.012
0.066
0.049
0.052
-0.028
0.024
0.037
0.007
-0.024
-0.029
0.066
0.089
-0.098
-0.007
-0.043
0.061
0.044
-0.070
0.025
0.036
0.025
-0.010
-0.051
0.142
0.016
-0.015
0.040
0.040
-0.054
-0.047
0.110
0.097
-0.001
-0.085
-0.017
-0.024
0.111
-0.022
0.048
0.009
0.039
-0.019
-0.007
0.009
-0.039
0.088
-0.044
0.080
0.005
0.019
0.017
0.010
0.089
-0.028
0.073
0.080
-0.013
0.030
0.001
0.005
0.096
-0.115
-0.003
0.028
0.064
-0.040
0.133
-0.128
-0.033
-0.032
0.049
0.030
0.046
-0.075
-0.092
0.036
0.057
-0.049
0.019
0.033
0.049
0.055
0.016
0.035
0.031
-0.001
0.047
-0.050
0.074
-0.040
0.059
0.133
-0.072
0.004
-0.001
0.099
0.039
-0.064
0.110
0.019
-0.024
-0.013
0.021
0.052
0.004
0.008
0.031
-0.011
0.056
0.066
0.011
0.001
0.005
0.060
0.056
0.002
0.007
-0.049
0.037
0.012
0.053
-0.035
0.006
-0.027
0.014
0.084
0.031
-0.041
0.073
0.091
0.051
0.003
0.006
0.046
-0.056
0.057
-0.027
0.045
0.089
-0.084
0.038
0.162
0.057
-0.008
0.032
0.034
0.034
0.020
-0.021
-0.048
-0.013
0.015
0.067
0.074
-0.057
-0.032
0.025
0.054
-0.047
-0.033
0.034
0.009
-0.050
0.016
0.054
-0.006
0.042
0.090
0.021
0.085
0.000
-0.039
-0.019
-0.053
0.121
-0.034
0.040
0.093
-0.012
0.033
0.002
-0.016
-0.029
0.052
0.048
0.102
-0.023
0.031
-0.088
0.049
0.018
0.119
0.049
-0.049
-0.089
0.042
0.095
-0.083
0.004
-0.027
-0.013
0.137
0.049
0.038
-0.115
-0.044
0.017
0.054
0.126
0.058
-0.091
0.070
0.067
-0.041
-0.004
0.007
-0.040
0.000
0.020
0.079
-0.034
-0.025
0.003
0.081
-0.003
0.030
0.002
0.121
0.067
0.007
-0.108
-0.034
0.024
0.010
0.111
0.059
0.071
-0.008
-0.023
-0.014
0.041
0.045
0.124
0.000
0.004
-0.060
-0.045
-0.008
0.068
0.086
0.020
-0.020
-0.126
-0.088
0.076
0.122
0.055
0.027
0.069
0.020
0.028
-0.042
0.035
0.065
0.013
0.006
0.056
-0.024
-0.007
0.039
0.012
0.074
0.040
0.009
-0.006
-0.059
0.089
-0.006
-0.001
0.078
0.032
-0.064
0.051
0.087
0.034
0.066
0.024
-0.156
0.020
0.082
0.099
0.004
0.016
0.005
-0.098
0.035
0.067
-0.004
0.029
0.054
-0.025
-0.045
0.027
0.084
0.048
0.028
0.009
-0.115
0.089
0.044
0.144
-0.022
-0.067
-0.009
0.048
0.014
0.098
-0.118
-0.036
0.053
-0.020
0.085
-0.012
0.024
-0.056
0.054
0.088
0.123
0.076
-0.086
-0.073
0.026
0.043
0.021
0.032
-0.064
0.184
0.027
-0.091
-0.026
0.023
0.137
0.006
-0.010
0.086
-0.125
-0.002
-0.045
0.100
0.049
0.018
0.022
-0.039
-0.063
0.090
-0.023
-0.025
-0.006
0.049
0.064
-0.042
-0.098
-0.012
0.013
-0.007
0.018
0.052
0.042
0.001
0.031
0.019
0.002
0.003
0.083
0.060
-0.108
-0.012
0.061
0.016
0.027
-0.008
0.035
-0.018
0.095
0.007
0.009
0.019
-0.037
-0.017
0.109
-0.023
0.109
0.063
0.061
-0.015
-0.066
0.020
0.122
-0.061
0.007
-0.006
0.026
0.017
0.085
0.008
-0.000
-0.056
0.049
0.039
0.045
-0.050
-0.060
0.101
0.054
0.006
0.057
0.039
0.060
-0.046
0.004
0.016
0.053
0.008
0.056
0.016
-0.003
0.006
-0.047
0.027
0.158
0.068
-0.013
0.066
0.045
-0.062
0.030
-0.035
0.010
0.058
-0.033
0.005
0.004
-0.061
0.063
0.193
-0.011
0.009
0.019
-0.018
0.024
-0.015
-0.029
0.101
0.060
0.071
0.080
-0.060
-0.014
0.036
0.001
-0.018
0.074
0.054
0.090
-0.017
0.051
-0.049
0.018
0.042
0.184
-0.032
0.001
0.065
-0.045
0.039
-0.059
0.089
0.084
0.058
0.004
-0.074
-0.027
0.073
0.003
-0.051
0.073
0.104
0.039
-0.012
-0.042
0.120
0.002
-0.033
-0.010
-0.056
0.040
0.128
0.056
0.063
0.040
-0.094
-0.028
0.002
0.059
0.021
0.031
-0.022
-0.034
0.015
0.008
0.005
-0.016
0.108
0.025
0.111
-0.072
-0.035
0.097
-0.001
0.016
-0.009
-0.055
0.041
0.064
0.144
0.015
0.017
-0.006
0.111
0.007
-0.027
0.029
-0.036
0.075
-0.015
-0.026
0.108
0.033
-0.073
0.027
0.051
0.029
0.015
-0.001
-0.062
0.091
0.090
-0.044
-0.018
0.052
0.074
-0.019
0.019
-0.025
0.005
0.045
0.051
0.004
0.004
0.039
-0.092
0.073
0.040
-0.005
-0.029
0.044
0.088
-0.103
-0.056
0.103
0.049
0.011
-0.034
0.099
0.070
0.031
0.059
-0.095
-0.000
0.065
0.066
0.028
-0.130
0.025
0.026
0.097
0.143
-0.084
-0.037
0.073
0.049
-0.019
0.051
0.014
0.084
0.040
0.019
-0.030
0.091
-0.015
0.069
0.026
0.047
0.003
0.018
0.048
0.032
-0.004
0.015
-0.054
0.078
-0.075
0.028
0.033
0.053
-0.014
-0.006
0.032
0.030
0.024
0.020
0.054
-0.038
0.004
0.049
-0.032
-0.015
0.080
0.036
0.033
0.035
0.085
0.035
-0.011
0.060
0.053
-0.001
0.052
-0.009
0.057
-0.010
0.048
-0.019
-0.052
-0.110
0.065
0.113
0.012
0.005
-0.061
0.033
0.043
-0.066
0.010
0.108
-0.017
-0.036
0.036
0.047
0.055
0.004
-0.127
0.113
-0.017
0.101
0.082
-0.043
0.058
0.023
0.038
0.044
0.011
-0.062
0.074
0.097
-0.019
0.040
0.004
-0.051
0.016
0.112
-0.025
0.013
-0.061
0.032
-0.003
0.063
-0.085
-0.033
0.046
0.029
0.008
0.017
0.027
-0.062
0.051
0.145
-0.100
-0.043
0.023
0.066
0.022
0.072
0.003
-0.011
-0.054
0.148
-0.029
0.018
-0.021
-0.029
0.040
-0.049
0.019
0.005
0.055
0.034
-0.001
0.059
-0.016
-0.075
0.149
0.001
0.061
-0.001
-0.002
-0.037
-0.020
-0.006
0.038
0.011
-0.002
0.062
-0.039
0.060
0.045
0.031
0.074
-0.013
0.042
-0.037
-0.063
0.049
0.064
0.009
-0.055
0.057
0.049
-0.042
-0.032
-0.018
0.126
0.039
0.006
0.057
-0.020
0.056
-0.049
0.064
-0.074
0.100
-0.026
0.003
-0.011
0.047
0.067
-0.025
0.098
0.115
0.000
-0.092
0.077
-0.022
0.110
0.028
-0.075
-0.001
0.047
0.082
0.005
-0.026
0.007
0.106
-0.003
-0.005
0.065
-0.034
0.055
-0.011
-0.032
0.081
-0.029
0.115
-0.005
0.079
0.098
0.023
-0.013
-0.108
0.073
-0.000
0.052
0.021
0.099
0.068
-0.034
-0.018
0.008
-0.003
0.134
0.024
-0.037
0.116
-0.039
0.073
0.002
0.057
-0.026
0.050
0.018
-0.016
0.081
0.023
-0.099
0.045
0.023
-0.076
0.014
-0.038
0.063
0.069
-0.049
0.035
0.055
0.042
0.077
0.019
0.137
0.076
0.015
0.098
0.016
0.030
0.036
0.062
-0.063
-0.063
0.084
0.057
0.054
0.011
0.004
-0.034
0.101
-0.052
-0.062
0.089
0.039
-0.082
0.024
0.067
-0.010
0.010
0.035
0.013
0.095
0.089
-0.035
0.038
0.028
-0.061
0.053
-0.088
-0.002
0.137
0.036
0.063
0.017
-0.053
0.028
0.040
0.066
-0.081
0.133
0.047
0.016
-0.018
-0.058
0.065
0.107
0.036
0.111
0.006
-0.100
0.007
-0.059
0.035
0.146
-0.002
0.015
0.038
0.038
0.051
0.048
-0.015
0.002
-0.023
0.022
0.036
-0.060
0.068
0.023
0.008
-0.012
-0.036
0.028
0.071
0.001
0.012
0.035
0.076
0.076
-0.063
-0.052
0.006
0.068
0.026
0.019
0.009
0.080
0.001
0.013
-0.034
0.023
0.029
0.060
0.116
-0.057
0.012
0.044
0.144
0.058
-0.099
-0.027
0.054
0.096
0.038
-0.006
-0.023
0.082
-0.002
0.075
-0.080
0.029
0.089
0.002
-0.015
0.081
0.059
0.082
0.012
-0.030
0.030
0.031
-0.070
0.042
0.131
-0.018
-0.022
0.024
-0.009
0.099
0.031
0.038
-0.017
0.047
0.076
0.075
0.027
0.055
-0.011
0.002
-0.004
0.069
0.047
0.017
0.003
-0.015
0.001
0.028
-0.054
-0.002
0.053
0.039
0.113
-0.017
0.021
0.011
0.021
0.129
0.041
0.048
-0.070
-0.006
0.022
0.147
-0.062
0.020
0.109
0.006
-0.039
-0.059
0.042
0.091
-0.041
-0.056
0.010
-0.028
-0.035
0.133
0.069
-0.028
0.004
0.112
-0.036
0.053
-0.111
0.072
-0.007
-0.029
0.093
-0.036
-0.038
0.032
0.007
-0.005
0.023
0.030
-0.100
0.001
-0.017
0.099
0.030
-0.056
0.091
0.043
-0.006
-0.069
0.086
0.034
0.061
-0.018
0.009
0.028
-0.033
0.052
0.002
-0.022
-0.008
0.058
-0.017
0.034
-0.008
-0.012
0.023
0.006
0.019
-0.041
0.033
0.064
0.028
-0.030
-0.002
0.002
0.029
0.134
0.015
-0.070
0.017
0.048
-0.007
-0.032
0.118
-0.070
0.092
0.044
-0.017
-0.092
0.033
0.010
0.012
0.056
-0.019
-0.023
-0.013
-0.001
0.035
-0.006
-0.006
0.036
0.086
0.003
-0.087
0.042
0.012
0.061
0.019
0.057
0.032
-0.051
0.082
-0.055
0.022
0.016
0.091
0.055
-0.064
-0.115
0.083
0.015
0.101
0.026
0.062
-0.049
-0.036
-0.040
0.024
0.085
0.070
0.016
0.022
-0.025
-0.014
-0.068
0.078
-0.018
0.086
0.103
0.042
-0.058
-0.113
0.074
-0.034
0.047
0.007
0.021
0.052
0.025
0.106
-0.107
0.063
0.023
-0.097
-0.088
0.042
0.108
0.051
-0.000
-0.046
-0.051
0.167
0.026
0.063
0.035
-0.039
0.026
0.059
-0.030
0.002
0.038
0.035
0.077
-0.050
0.082
0.080
-0.050
0.047
-0.025
0.068
0.094
-0.075
0.038
-0.014
0.079
0.019
0.042
0.018
-0.049
-0.062
0.012
0.018
0.119
-0.001
0.055
0.066
0.099
-0.121
-0.086
0.049
0.001
0.057
0.073
-0.022
0.011
0.059
-0.084
-0.017
0.007
0.046
0.027
-0.034
0.052
-0.010
0.007
0.056
-0.009
-0.040
0.065
0.095
0.030
0.025
-0.041
-0.071
0.084
0.127
0.014
0.047
-0.023
-0.081
0.051
-0.026
0.024
0.027
0.010
0.035
-0.039
0.029
0.040
-0.061
0.101
0.013
-0.011
0.044
-0.074
-0.009
0.023
-0.077
0.083
0.038
-0.003
-0.001
-0.041
-0.040
-0.003
0.071
0.006
0.029
0.044
-0.010
0.035
0.029
0.054
0.064
-0.115
-0.051
-0.019
0.083
-0.003
-0.045
0.029
-0.005
0.080
0.085
0.068
0.030
-0.058
0.089
-0.017
-0.010
-0.005
-0.022
0.091
0.033
-0.090
-0.012
0.065
0.028
-0.006
0.005
-0.041
0.018
-0.068
0.079
0.115
0.019
0.040
-0.151
0.041
0.024
0.058
0.076
-0.059
0.024
0.008
0.014
0.023
-0.075
-0.059
0.009
0.131
0.044
0.027
0.078
-0.088
-0.056
-0.024
0.056
0.070
0.035
0.022
0.020
0.049
0.026
-0.082
0.005
0.044
-0.035
0.036
0.038
0.045
-0.050
0.020
0.002
-0.011
-0.023
0.004
0.019
0.059
0.074
-0.077
-0.070
0.007
0.022
-0.016
-0.027
0.105
0.024
0.021
-0.010
-0.024
0.017
0.097
-0.051
-0.000
-0.012
0.119
0.011
0.083
0.063
0.017
-0.016
-0.023
0.068
0.057
0.035
-0.013
-0.007
-0.015
0.025
0.026
0.024
-0.010
0.028
-0.002
0.000
-0.032
-0.003
0.023
0.036
0.029
0.014
-0.003
0.029
-0.078
0.097
0.040
-0.072
-0.048
0.024
0.053
-0.069
0.065
0.058
0.021
-0.004
0.065
-0.022
0.011
0.058
-0.061
-0.041
0.116
0.042
0.021
0.037
0.095
-0.121
0.070
0.091
-0.098
0.060
-0.013
0.086
-0.048
0.033
0.047
0.007
0.014
0.113
-0.010
-0.007
0.059
-0.020
0.018
-0.017
0.011
-0.037
0.056
0.105
0.013
0.037
0.012
-0.013
-0.092
0.115
-0.076
0.051
0.023
0.024
-0.086
-0.005
0.040
0.049
-0.058
0.045
-0.097
0.104
0.091
0.111
-0.012
0.006
0.115
-0.025
0.049
-0.095
-0.072
0.108
0.105
0.098
-0.023
-0.054
0.056
0.044
0.036
-0.061
0.047
0.096
-0.120
0.081
0.149
-0.019
0.044
0.020
0.067
-0.029
-0.058
0.009
0.083
0.051
0.024
0.019
0.033
0.047
0.004
-0.043
0.038
0.002
0.042
-0.090
0.013
0.040
0.068
-0.055
0.004
0.052
0.133
-0.041
0.074
0.015
-0.015
0.072
0.006
0.028
-0.066
0.073
0.018
-0.011
-0.024
0.046
-0.011
0.160
-0.034
-0.007
-0.032
0.053
-0.051
0.009
0.016
-0.010
0.020
-0.045
0.047
0.052
-0.057
-0.047
0.074
0.039
0.013
0.020
0.060
0.048
0.009
0.061
-0.031
0.056
-0.023
0.038
0.045
-0.005
0.015
0.017
-0.015
0.032
-0.027
0.153
0.002
-0.095
-0.022
0.024
0.064
0.071
0.063
0.073
-0.001
0.014
0.036
-0.070
0.017
0.022
0.023
0.018
0.036
0.014
-0.006
0.045
-0.009
0.046
0.027
0.069
0.052
-0.039
0.029
0.010
0.074
0.033
0.043
-0.005
-0.021
-0.005
0.067
0.090
0.053
0.091
-0.031
0.030
0.047
0.053
-0.084
0.068
0.050
-0.046
0.045
0.057
-0.032
-0.027
0.272
-0.014
0.005
-0.054
-0.083
0.037
0.120
-0.003
0.022
0.030
0.025
0.103
0.034
-0.065
0.048
0.048
0.024
0.066
-0.050
0.040
0.005
-0.013
0.052
0.131
0.037
-0.043
0.023
0.067
-0.003
0.039
-0.083
0.053
0.007
0.062
0.112
0.016
-0.102
0.037
0.003
0.015
-0.042
0.047
-0.025
0.023
-0.061
0.041
0.051
0.051
-0.039
0.059
-0.012
0.066
0.021
0.024
-0.045
-0.003
0.049
0.036
-0.047
0.072
-0.015
0.025
0.036
0.030
0.112
-0.024
0.057
0.005
-0.014
0.037
0.058
0.002
-0.031
-0.019
0.020
-0.118
0.058
0.076
0.033
-0.008
-0.011
0.093
0.048
-0.052
-0.073
0.105
0.045
0.062
-0.040
-0.034
0.031
0.034
-0.061
0.063
0.082
0.023
0.022
-0.037
0.005
-0.062
0.043
0.068
0.052
0.047
0.054
-0.050
0.095
-0.039
0.063
0.045
-0.052
-0.009
-0.006
0.058
0.021
-0.031
0.003
-0.004
0.065
0.037
0.067
0.015
0.015
-0.031
0.109
0.011
0.072
-0.018
-0.026
0.003
-0.000
0.063
0.006
-0.015
0.078
0.026
0.065
0.055
-0.087
0.103
-0.000
-0.058
0.027
0.050
0.048
0.065
0.074
-0.091
-0.011
0.102
-0.049
0.031
-0.066
0.028
-0.029
0.032
0.073
0.089
0.020
-0.008
-0.084
-0.034
0.057
0.050
-0.017
0.046
-0.004
0.092
0.024
-0.062
0.042
0.153
0.055
-0.126
-0.012
-0.023
-0.004
0.127
-0.003
0.044
-0.034
-0.048
0.019
0.003
0.044
0.046
-0.020
0.056
-0.004
-0.089
0.025
0.102
-0.028
0.064
-0.094
0.049
0.054
0.098
0.020
-0.013
0.032
-0.016
0.019
-0.031
0.007
-0.078
-0.040
0.025
0.077
0.123
-0.055
-0.060
0.043
-0.088
-0.016
0.057
-0.027
0.055
0.063
0.026
0.044
0.001
-0.001
0.099
-0.096
0.119
0.005
-0.001
-0.006
0.020
-0.001
0.032
0.039
0.006
-0.030
0.014
-0.010
0.020
-0.013
0.121
0.099
0.046
-0.037
0.022
0.003
-0.011
0.079
0.038
-0.019
0.041
0.038
-0.015
0.065
-0.012
0.114
-0.011
-0.067
0.065
-0.044
0.044
0.053
0.127
0.073
0.003
0.033
-0.036
-0.023
0.070
0.011
-0.038
0.050
0.053
-0.010
0.042
-0.037
0.002
0.011
-0.061
0.014
0.022
-0.043
-0.025
0.129
0.056
-0.020
0.031
0.051
0.069
-0.049
0.046
-0.019
0.005
0.066
0.081
-0.041
0.013
-0.020
-0.016
0.014
0.022
-0.016
-0.009
0.133
0.073
0.089
-0.044
-0.045
0.055
0.053
-0.003
0.011
0.070
0.083
-0.075
-0.016
0.031
-0.014
-0.010
0.051
-0.020
-0.030
0.063
0.010
0.097
-0.078
0.005
0.021
0.034
0.010
0.040
-0.085
0.074
0.051
-0.016
0.049
0.039
-0.006
-0.091
0.041
-0.026
-0.026
0.093
0.029
0.102
-0.056
-0.051
0.009
-0.038
0.019
0.050
0.018
0.057
0.033
0.033
0.006
0.161
0.055
0.040
0.009
0.008
0.123
0.062
-0.004
-0.022
0.013
0.014
0.066
0.086
0.001
0.022
-0.089
0.059
0.035
-0.059
-0.045
0.096
-0.012
0.014
-0.017
-0.002
-0.019
0.136
0.055
-0.072
0.012
0.030
-0.004
-0.013
0.073
0.090
0.073
0.002
0.003
0.029
-0.060
0.116
0.053
0.040
-0.000
0.011
0.012
-0.083
0.010
-0.014
0.031
0.017
0.052
-0.033
-0.051
0.000
-0.062
0.022
-0.018
0.031
0.079
-0.001
-0.005
0.010
0.021
0.116
-0.115
-0.026
0.038
-0.018
-0.017
-0.072
0.106
-0.026
-0.023
0.118
0.019
0.074
-0.044
0.042
0.090
-0.049
-0.012
-0.017
0.009
0.024
0.065
0.042
0.000
-0.016
-0.016
-0.009
0.058
-0.079
-0.060
0.006
-0.021
0.057
0.017
-0.073
0.013
0.125
-0.022
-0.091
0.001
0.010
-0.009
-0.022
0.065
0.049
-0.013
0.039
0.028
-0.028
-0.001
-0.008
0.048
-0.057
0.070
-0.013
-0.009
0.055
-0.006
0.011
-0.085
0.095
0.008
-0.034
0.043
-0.002
0.037
0.015
0.018
0.035
-0.027
0.043
0.048
0.012
0.049
0.031
0.068
0.056
-0.002
-0.003
0.023
0.012
0.023
-0.047
0.025
-0.023
-0.005
0.055
0.016
0.074
0.085
-0.094
0.056
-0.037
0.009
-0.047
0.095
0.097
-0.001
-0.065
-0.078
0.059
-0.064
0.096
0.038
0.070
0.026
-0.052
0.007
0.074
0.024
-0.007
-0.009
0.108
0.011
-0.118
0.050
-0.022
0.046
-0.019
0.014
0.102
0.053
-0.077
0.006
0.038
0.032
0.064
-0.041
0.128
0.015
0.122
-0.006
-0.042
0.053
0.021
-0.001
0.004
0.020
-0.026
0.006
0.066
0.013
0.036
-0.043
0.050
-0.052
-0.044
0.042
0.046
0.119
0.051
-0.056
0.045
-0.061
0.062
-0.028
0.005
0.003
0.098
0.098
-0.081
-0.036
0.041
0.086
0.022
0.035
-0.051
-0.019
0.094
-0.008
-0.011
0.016
0.040
0.023
-0.008
0.090
0.073
-0.035
0.053
0.095
-0.032
0.001
0.057
-0.022
0.014
0.002
0.018
0.070
0.012
-0.010
-0.087
0.047
-0.022
-0.018
0.058
0.041
0.085
-0.005
0.058
0.003
0.046
-0.049
0.009
0.057
-0.012
0.094
0.053
-0.028
0.111
0.017
0.007
-0.007
0.018
0.031
0.050
0.054
0.012
0.017
0.067
-0.089
-0.008
-0.018
0.140
0.025
-0.056
-0.098
-0.061
0.140
0.041
0.051
-0.066
0.012
0.038
0.030
-0.008
0.082
0.060
-0.005
0.050
-0.009
0.052
0.012
0.029
0.120
-0.069
-0.029
0.098
0.066
-0.023
0.031
0.025
0.067
-0.115
-0.023
0.037
0.068
0.110
0.018
-0.045
0.006
0.029
-0.025
-0.007
-0.016
0.076
0.000
0.008
0.013
-0.028
0.103
-0.064
0.038
0.047
-0.023
0.119
0.054
0.069
0.069
0.040
0.046
-0.055
-0.045
0.088
0.104
0.011
-0.079
-0.061
0.030
-0.001
-0.027
0.051
0.046
0.031
0.046
-0.024
-0.033
0.035
-0.029
0.011
0.016
0.019
0.092
-0.041
0.046
0.054
-0.001
-0.027
0.024
0.038
0.012
0.091
0.015
0.070
-0.025
-0.054
0.037
0.040
0.036
0.085
0.049
-0.032
0.000
-0.000
-0.110
0.063
0.054
-0.010
0.056
0.062
0.038
-0.034
-0.064
0.019
0.043
-0.001
-0.010
0.008
-0.042
0.012
0.065
-0.005
0.134
-0.028
-0.084
0.044
-0.006
0.024
-0.077
0.088
0.015
0.024
0.044
0.057
-0.082
-0.039
0.093
0.027
-0.023
0.042
0.022
0.003
0.131
0.006
0.013
-0.045
-0.005
0.030
0.042
-0.010
-0.044
0.059
0.052
0.040
0.006
-0.052
-0.029
0.029
-0.038
0.045
0.089
-0.020
0.083
0.035
0.046
-0.098
0.028
0.072
0.082
-0.041
0.014
-0.017
0.029
0.062
-0.036
0.017
-0.026
0.020
-0.052
-0.076
0.121
0.092
-0.035
0.038
0.007
-0.037
0.051
0.012
0.027
0.022
-0.010
-0.037
-0.022
0.073
0.049
0.011
0.002
0.038
0.039
0.021
0.001
0.002
0.127
-0.018
-0.016
0.005
0.026
0.015
0.031
0.048
0.044
-0.049
-0.027
-0.017
0.075
-0.006
-0.020
0.049
0.039
0.035
-0.068
-0.043
0.008
0.039
-0.023
0.001
0.052
0.076
-0.067
0.000
0.035
-0.017
0.076
-0.005
0.034
-0.004
0.061
0.090
-0.020
0.014
-0.100
-0.024
0.005
0.057
0.059
-0.017
0.091
-0.053
-0.025
0.017
-0.074
0.026
0.056
0.073
0.088
0.118
-0.003
0.007
-0.051
-0.004
0.025
-0.026
0.010
0.059
0.024
0.050
-0.012
0.001
0.024
-0.021
0.053
0.128
0.005
-0.074
0.092
0.041
0.001
0.015
-0.022
-0.004
0.016
0.053
0.088
0.108
-0.011
-0.125
0.134
0.032
-0.003
0.013
-0.021
0.098
-0.046
0.155
0.064
0.042
-0.010
-0.077
-0.062
0.038
0.005
0.026
0.009
0.007
-0.035
-0.019
0.075
0.176
-0.064
0.020
0.014
0.031
0.009
-0.024
0.046
0.032
-0.003
-0.059
0.014
0.095
0.023
-0.108
0.021
0.089
0.081
0.110
-0.015
-0.024
-0.030
0.055
0.152
0.045
0.008
-0.060
-0.066
0.010
0.068
-0.014
0.043
0.027
-0.038
0.019
0.027
0.057
-0.022
-0.017
-0.023
-0.015
0.068
0.031
-0.066
0.069
0.022
0.060
-0.011
-0.019
0.075
0.014
-0.049
0.041
-0.021
0.019
-0.062
0.110
-0.060
0.109
-0.068
-0.040
0.001
0.086
0.043
-0.001
0.033
0.016
0.042
-0.011
-0.007
0.017
-0.045
0.082
-0.008
0.004
0.038
0.020
-0.024
-0.011
0.121
0.041
0.007
0.107
-0.041
0.043
0.019
-0.019
0.078
0.062
-0.092
0.080
0.028
-0.028
-0.005
0.118
0.040
0.061
-0.040
-0.003
-0.024
-0.002
0.047
-0.064
0.066
0.040
0.107
0.013
0.043
0.023
-0.058
-0.059
0.015
0.046
0.126
0.019
-0.030
0.021
0.051
-0.038
-0.010
0.066
0.011
-0.007
-0.009
0.096
-0.018
-0.031
0.016
0.062
0.005
0.058
-0.033
-0.063
0.096
0.067
0.066
0.021
-0.000
0.001
-0.020
0.029
0.045
0.053
0.074
-0.018
0.066
0.027
-0.053
0.034
0.007
0.110
0.025
0.047
0.050
0.037
-0.062
0.068
0.093
-0.050
0.018
-0.075
0.010
0.117
0.028
0.043
-0.032
-0.052
0.026
0.045
0.046
0.055
0.062
-0.030
-0.049
0.063
0.014
0.013
0.067
0.076
0.069
0.030
-0.066
0.053
-0.024
-0.067
-0.038
0.014
0.083
0.037
0.111
-0.053
-0.057
0.034
-0.052
0.026
0.060
0.010
-0.042
0.036
0.028
0.012
0.080
0.035
0.007
-0.061
0.050
0.017
0.088
0.108
-0.013
0.056
-0.117
0.060
0.036
0.051
0.011
0.003
-0.013
-0.027
0.014
0.006
-0.003
0.064
0.051
-0.067
0.032
0.003
0.026
-0.014
0.034
-0.038
-0.047
0.078
0.034
0.022
0.001
0.058
0.054
-0.047
0.036
0.080
-0.039
-0.007
0.034
0.038
-0.096
0.062
-0.038
-0.011
0.136
0.053
-0.083
-0.011
-0.080
-0.012
0.156
-0.073
0.094
0.010
0.033
0.019
-0.051
0.065
0.011
0.011
0.029
-0.009
0.032
0.047
0.036
0.047
-0.026
0.052
-0.001
-0.021
0.002
-0.010
0.001
-0.004
0.099
0.002
-0.071
0.084
0.100
0.017
-0.047
0.090
-0.031
-0.056
0.010
0.086
0.040
0.020
0.036
0.010
0.055
0.014
-0.064
-0.026
0.095
0.043
-0.006
-0.078
-0.029
-0.022
0.016
-0.003
0.014
-0.045
0.070
0.106
0.020
-0.083
0.027
-0.054
0.011
0.042
-0.029
0.000
0.041
-0.020
0.009
-0.022
0.008
-0.034
-0.001
0.117
0.025
0.120
-0.074
-0.000
-0.005
0.024
-0.030
0.018
0.010
0.017
0.046
0.073
-0.100
0.040
0.068
-0.006
-0.060
0.045
0.113
0.067
-0.112
-0.067
0.001
0.140
0.022
0.053
-0.030
-0.019
-0.002
0.079
-0.061
0.019
-0.018
0.037
0.035
-0.004
0.072
0.020
-0.063
0.043
0.095
-0.071
-0.038
0.114
0.004
0.001
0.040
0.004
0.012
0.007
0.034
0.005
0.072
-0.034
-0.074
0.097
-0.008
-0.010
0.026
0.084
0.071
0.036
-0.018
0.029
0.011
0.027
0.061
0.015
0.019
0.026
0.004
0.030
0.070
0.007
-0.018
0.008
0.076
-0.031
-0.008
-0.061
-0.006
0.030
0.097
-0.002
0.002
-0.061
0.054
-0.072
0.068
0.042
-0.005
0.006
0.089
0.027
-0.066
0.060
0.013
0.045
-0.066
-0.032
0.074
0.130
0.003
-0.081
0.024
-0.001
0.014
0.015
0.068
-0.047
-0.064
0.037
-0.019
0.104
0.043
0.045
0.011
-0.072
0.067
-0.010
0.001
0.070
-0.037
-0.078
0.028
0.003
0.024
0.045
-0.001
0.039
-0.017
0.081
0.020
-0.012
0.019
0.039
0.052
-0.009
0.009
0.071
-0.067
0.036
0.074
0.055
-0.030
-0.063
-0.001
-0.032
0.013
0.023
0.015
0.075
0.061
-0.004
0.012
0.103
-0.005
0.063
-0.053
0.005
0.002
0.014
0.029
-0.034
-0.007
0.060
0.039
-0.023
0.023
0.064
0.006
0.056
0.042
-0.042
0.083
0.051
0.041
0.019
-0.052
0.025
-0.012
0.031
0.081
-0.084
0.101
0.007
-0.017
-0.060
0.086
0.106
0.098
-0.005
-0.041
-0.049
0.045
0.046
0.024
0.011
-0.013
-0.003
0.016
-0.022
-0.016
0.020
0.013
0.016
-0.040
0.061
0.104
-0.059
-0.067
0.016
0.116
0.008
-0.061
0.064
0.111
0.013
-0.034
0.025
0.018
0.043
0.095
-0.091
0.039
0.055
-0.026
0.058
-0.087
0.091
-0.027
0.047
-0.042
-0.108
0.066
-0.026
0.094
-0.067
-0.019
0.014
0.027
0.020
0.010
0.069
-0.036
-0.013
-0.012
0.114
0.003
0.025
-0.008
-0.046
0.099
0.033
-0.003
-0.024
0.015
0.036
0.049
-0.059
-0.028
0.016
-0.036
0.041
