0.110
0.005
0.116
-0.069
-0.059
0.102
0.029
0.093
0.051
-0.004
-0.134
-0.014
0.055
0.020
0.115
-0.002
-0.075
0.087
-0.057
0.024
-0.013
0.052
-0.053
0.027
0.104
0.016
0.010
0.079
-0.075
0.026
0.018
-0.011
0.052
-0.048
0.118
0.071
0.106
0.013
0.000
-0.007
-0.007
0.024
0.023
0.088
0.099
-0.017
0.003
-0.002
0.165
-0.027
-0.079
-0.001
0.102
0.053
0.065
0.117
0.011
-0.089
0.002
-0.021
-0.055
0.082
0.061
0.081
0.022
-0.044
0.025
-0.076
0.146
0.068
-0.069
-0.004
0.126
0.042
0.009
-0.005
-0.026
-0.015
0.070
-0.006
0.121
-0.095
-0.029
0.059
-0.020
-0.042
0.013
-0.045
0.106
0.082
-0.004
-0.002
0.009
-0.119
0.085
-0.016
0.121
0.017
-0.038
-0.100
0.002
0.082
0.078
-0.040
0.101
0.029
-0.108
0.014
0.025
0.190
-0.089
0.032
0.166
0.111
-0.133
-0.052
-0.074
0.090
0.061
0.010
0.019
-0.081
-0.082
0.125
-0.017
0.000
-0.017
0.031
0.015
-0.004
0.047
-0.039
0.143
0.137
-0.203
0.057
0.141
0.091
0.071
0.127
0.116
0.032
0.056
-0.127
0.032
0.082
0.071
0.059
-0.049
-0.016
-0.100
0.100
-0.092
0.126
0.035
-0.139
0.091
0.021
-0.016
-0.034
0.107
0.108
0.007
-0.052
0.026
-0.010
-0.043
0.061
0.038
0.195
0.031
-0.007
0.040
0.182
0.049
0.031
0.036
-0.011
0.105
-0.007
-0.003
-0.001
-0.073
0.079
0.113
0.012
0.089
0.061
-0.291
-0.191
-0.124
-0.119
0.251
0.093
0.145
0.126
-0.025
-0.051
-0.127
-0.057
0.035
0.114
0.071
0.106
0.171
0.068
0.014
0.050
0.006
-0.021
0.092
-0.044
-0.129
0.003
-0.040
-0.014
-0.097
0.071
0.023
-0.007
0.045
-0.109
0.015
-0.014
0.144
-0.043
-0.108
-0.016
0.114
0.075
-0.048
-0.137
0.002
0.155
0.055
0.067
-0.020
0.049
0.026
0.038
0.057
0.035
0.019
0.033
0.074
0.004
0.166
0.054
-0.129
0.047
0.032
-0.138
0.068
-0.134
0.043
0.065
0.047
0.015
0.015
0.007
-0.009
-0.138
0.075
0.042
0.065
0.000
-1.422
-2.010
-3.677
-1.160
3.076
4.277
4.063
1.724
-2.336
-3.954
-3.997
-2.017
0.941
3.415
4.298
4.427
4.333
4.164
3.680
2.390
1.041
-0.480
-1.577
-2.242
-2.513
-2.544
-2.270
-1.933
-1.397
-1.053
-0.572
-0.141
0.085
0.246
0.449
0.556
0.454
0.388
0.372
0.399
0.216
0.232
0.246
0.313
0.275
0.312
0.453
0.478
0.473
0.601
0.500
0.478
0.553
0.520
0.438
0.464
0.345
0.534
0.484
0.433
0.396
0.256
0.325
0.314
0.243
0.304
0.089
0.227
0.201
0.051
0.244
-0.042
-0.010
0.008
0.009
-0.065
-0.085
-0.107
-0.187
-0.196
-0.270
-0.246
-0.108
-0.144
-0.392
-0.307
-0.263
-0.569
-0.026
-0.171
-0.089
-0.146
-0.223
-0.152
-0.163
-0.308
-0.254
-0.064
-0.109
-0.056
0.020
-0.156
-0.144
-0.123
-0.123
-0.041
-0.183
-0.160
-0.109
-0.111
-0.198
-3.227
1.156
3.598
4.243
2.758
-1.700
-3.826
-4.295
-2.930
-0.665
1.638
3.447
4.243
4.376
4.153
3.153
2.261
1.058
0.070
-0.718
-1.293
-1.613
-1.658
-1.674
-1.414
-1.096
-0.753
-0.440
-0.008
0.148
0.259
0.260
0.414
0.425
0.520
0.392
0.398
0.291
0.272
0.226
0.393
0.456
0.423
0.371
0.531
0.349
0.532
0.438
0.602
0.500
0.387
0.514
0.448
0.528
0.416
0.399
0.332
0.289
0.376
0.336
0.319
0.223
0.130
0.119
0.140
0.174
0.079
-0.005
0.097
0.072
-0.051
0.099
-0.058
-0.142
-0.132
0.020
-0.048
0.006
-0.089
-0.227
-0.183
-0.185
-0.147
-0.259
-0.235
-0.137
-0.086
-0.291
-0.246
-0.297
-0.166
-0.235
-0.207
-0.219
-0.228
-0.102
-0.156
-0.039
-0.167
-0.180
-0.226
-0.193
0.021
-0.006
-0.029
-0.012
-0.117
-0.146
-0.149
-0.132
-0.077
0.006
-0.034
0.022
0.042
-0.044
0.005
-0.082
-0.060
-0.012
0.048
0.158
0.166
0.097
0.000
-0.064
0.024
0.303
0.146
0.100
0.052
0.220
0.143
0.164
0.205
-0.007
0.049
0.131
-0.038
0.216
0.214
0.025
0.004
0.096
0.145
0.123
0.108
0.175
0.099
0.122
0.106
0.074
-0.090
0.188
0.063
0.076
0.154
0.058
-0.028
0.073
-0.008
0.113
0.062
-0.010
0.078
-0.003
0.108
0.058
-0.110
-0.033
0.005
0.014
0.102
0.026
-0.002
-0.029
0.004
-0.002
0.059
0.020
-0.027
-0.008
-0.014
-0.132
-0.081
0.131
0.035
0.081
-0.082
-0.048
-0.023
0.007
-0.040
0.015
-0.102
0.033
0.051
-0.074
-0.040
0.064
-0.032
-0.037
-0.091
0.029
0.003
-0.085
0.012
0.002
0.021
-0.130
-0.115
0.055
0.064
-0.003
-0.081
-0.091
0.109
-0.052
-0.073
-0.012
0.106
0.049
-0.039
-0.050
0.054
-0.006
0.058
-0.119
0.014
0.058
0.005
0.047
0.019
0.106
-0.017
0.071
0.115
0.132
0.093
0.154
0.036
-0.064
0.119
0.134
0.001
-0.002
0.030
0.064
0.081
0.131
0.053
0.078
0.117
-0.058
0.145
0.029
0.042
0.046
0.092
0.018
0.053
-0.009
0.209
0.054
0.049
0.042
-0.059
-0.001
0.009
0.214
0.043
0.045
-0.057
-0.093
0.016
0.008
-0.045
-0.025
-0.065
0.072
0.010
0.082
0.096
-0.150
-0.173
0.088
-0.036
-0.087
-0.010
-0.035
0.012
-0.002
-0.014
-0.061
-0.065
-0.041
-0.018
0.038
-0.007
-0.062
0.082
0.100
-0.056
-0.004
-0.124
0.044
0.013
0.109
0.039
-0.033
-0.080
0.042
-0.067
0.077
0.047
0.049
0.019
-0.035
-0.019
0.072
0.047
0.012
-0.017
0.001
-0.018
0.144
-0.049
0.076
0.074
-0.065
0.033
0.077
0.007
0.007
0.115
-0.012
0.116
-0.004
0.102
-0.009
0.005
0.084
-0.002
0.045
0.029
0.007
0.006
0.064
0.026
0.070
0.014
0.091
-0.097
0.046
0.176
-0.036
0.070
-0.067
-0.060
0.060
-0.043
0.025
0.011
0.042
0.071
-0.111
-0.020
-0.049
-0.107
-0.008
0.090
0.063
-0.049
-0.052
0.035
0.053
0.108
-0.009
-0.073
-0.089
-0.019
0.073
0.000
0.008
0.083
-0.079
-0.023
0.129
0.001
0.082
0.072
-0.200
-0.034
0.000
0.043
0.178
-0.047
-0.050
0.017
-0.016
-0.136
-0.021
0.077
0.061
0.077
0.061
-0.038
-0.151
0.076
0.059
-0.017
0.162
0.048
-0.029
-0.033
0.003
0.027
-0.039
0.105
0.006
0.041
0.079
-0.002
-0.048
0.052
0.088
0.049
0.022
-0.059
-0.027
0.184
0.160
-0.092
0.024
0.038
-0.002
0.099
0.022
-0.052
0.041
0.114
0.020
-0.055
-0.020
-0.018
-0.102
-0.018
0.026
0.055
0.068
0.071
-0.098
0.001
-0.061
0.046
-0.086
-0.028
0.049
-0.003
-0.062
0.072
-0.123
0.053
0.066
0.198
0.034
-0.037
-0.085
-0.025
-0.035
0.089
0.026
0.010
0.018
-0.017
-0.030
0.014
0.136
0.016
0.037
-0.099
0.005
0.008
0.102
0.120
-0.066
-0.195
0.071
0.013
-0.093
0.045
-0.008
-0.073
-0.072
0.059
0.074
0.049
-0.210
-0.062
0.144
0.107
-0.096
-0.037
0.043
0.078
0.010
-0.045
-0.052
0.092
0.012
-0.059
-0.031
0.048
-0.038
0.060
0.132
-0.025
0.087
-0.031
0.005
-0.013
-0.075
0.057
0.114
0.005
-0.010
0.016
0.211
-0.074
-0.147
0.013
0.170
0.130
0.023
-0.029
-0.032
0.057
-0.100
0.055
-0.018
-0.005
0.083
0.141
-0.084
0.054
-0.011
0.052
0.022
-0.027
-0.108
0.082
0.083
0.035
0.027
0.009
-0.003
0.132
0.015
-0.015
0.016
0.087
-0.001
0.049
0.012
-0.071
-0.020
0.013
-0.069
0.161
-0.041
-0.067
0.069
-0.035
-0.054
0.085
0.022
0.033
-0.021
-0.042
0.082
0.213
0.033
-0.066
0.110
-0.006
0.076
0.014
-0.024
0.093
-0.022
0.129
-0.057
0.041
-0.001
-0.064
-0.085
0.098
0.073
0.020
-0.057
0.012
-0.002
0.003
0.013
-0.112
0.123
0.029
-0.057
0.052
-0.038
0.005
0.151
-0.042
0.095
0.013
0.040
0.030
0.029
0.019
-0.020
0.072
-0.053
-0.012
0.027
0.080
0.034
0.049
0.078
0.003
0.005
0.057
0.094
0.158
-0.037
0.012
-0.048
0.023
0.060
0.109
0.005
-0.049
0.011
-0.033
0.099
-0.093
0.041
0.015
0.047
0.001
0.051
0.078
-0.016
-0.035
0.073
-0.066
0.098
-0.009
-0.063
-0.091
0.099
0.022
0.002
0.066
0.165
-0.113
0.055
-0.013
0.035
-0.128
0.001
0.027
-0.039
0.045
0.078
0.054
0.053
0.068
0.042
0.017
0.021
-0.030
-0.045
0.034
0.049
-0.005
0.049
0.057
0.020
-0.043
-0.036
0.046
0.116
-0.004
0.001
0.036
-0.002
0.114
-0.058
-0.042
-0.091
0.102
0.018
-0.047
0.126
0.087
-0.116
-0.058
-0.063
-0.019
0.097
0.219
0.023
-0.061
-0.005
0.056
-0.048
-0.118
0.083
0.075
0.057
0.025
0.097
-0.146
0.113
-0.040
0.175
0.022
0.059
-0.104
-0.035
0.082
-0.036
-0.032
0.149
0.053
0.057
-0.082
0.108
-0.166
-0.108
0.059
0.127
0.088
0.055
-0.024
0.007
0.050
-0.125
0.014
0.090
0.105
-0.066
0.157
0.123
-0.015
-0.017
0.052
0.168
0.006
-0.047
0.031
0.024
0.038
0.069
0.021
0.008
0.012
-0.011
0.053
0.133
0.005
-0.011
0.119
0.080
-0.004
-0.079
0.005
0.108
0.006
-0.083
-0.005
0.018
0.102
0.083
0.046
-0.102
-0.117
0.183
-0.133
0.114
0.023
-0.037
0.003
0.079
-0.031
0.073
-0.017
0.113
0.104
-0.082
0.014
0.070
0.007
0.105
0.031
-0.116
0.188
0.075
-0.003
0.011
-0.042
0.047
-0.015
0.042
-0.047
0.151
0.040
-0.074
-0.077
0.153
0.014
-0.021
0.061
-0.071
0.066
0.039
0.048
0.091
0.007
-0.057
0.144
0.030
0.084
0.090
0.016
-0.017
-0.023
0.040
-0.108
-0.037
0.008
0.107
0.091
0.063
0.025
-0.113
-0.150
-0.439
-0.812
-1.409
-0.398
0.268
0.372
0.212
0.131
0.285
0.267
0.083
0.145
0.151
0.114
0.326
0.493
0.668
0.574
0.528
0.456
0.373
0.050
-0.040
-0.033
-0.147
-0.125
-0.431
-0.361
-0.343
-0.202
-0.249
-0.116
-0.093
0.045
-0.041
-0.253
-0.070
0.043
0.087
0.024
-0.006
-0.019
0.035
0.038
-0.027
0.125
-0.033
0.079
0.084
0.058
0.029
0.069
0.136
-0.014
0.089
0.128
0.104
0.084
0.075
0.088
0.111
0.089
0.013
0.209
0.112
0.079
-0.016
0.158
0.001
0.152
0.082
0.059
0.031
0.120
0.023
0.023
0.106
0.120
0.011
-0.096
-0.029
0.087
0.104
-0.033
0.017
-0.043
0.026
-0.113
-0.009
0.169
-0.035
-0.096
-0.014
0.126
-0.003
-0.137
-0.007
0.035
0.002
0.048
0.006
-0.102
0.077
-0.005
-0.011
-0.150
0.056
-0.075
0.044
-0.045
0.070
0.047
0.069
0.095
0.018
-0.138
0.055
-0.055
0.179
0.022
-0.098
0.026
0.062
-0.001
-0.019
0.046
0.019
0.012
0.035
0.004
0.015
0.130
0.071
-0.026
-0.023
-0.021
0.028
0.201
0.039
-0.037
0.053
-0.019
0.027
0.026
-0.112
0.023
0.033
0.049
-0.107
-0.054
0.083
-0.040
0.018
-0.086
0.001
0.105
0.044
0.091
-0.048
0.013
-0.007
-0.101
0.085
0.041
0.103
-0.091
0.001
-0.089
-0.243
-0.586
-0.014
0.399
0.288
0.148
0.010
-0.150
-0.161
-0.049
0.036
0.024
0.165
0.159
0.037
0.118
0.035
0.009
0.034
-0.005
-0.137
0.098
-0.064
-0.062
0.025
0.041
-0.005
-0.075
-0.007
0.048
0.109
0.082
0.173
0.018
-0.143
-0.111
0.028
-0.047
0.018
-0.041
0.023
0.148
0.092
-0.070
0.104
-0.088
-0.422
-0.520
-0.182
0.338
0.455
0.251
0.095
-0.061
-0.223
0.026
0.007
0.183
-0.011
0.270
0.113
0.154
0.200
0.122
0.063
-0.047
-0.110
-0.083
-0.123
-0.035
-0.155
0.105
0.038
0.022
0.050
0.030
0.112
-0.080
-0.068
-0.041
0.043
0.008
0.071
-0.058
0.037
0.033
0.001
-0.061
0.099
-0.013
0.049
0.117
0.063
-0.029
-0.024
-0.021
0.059
0.101
0.064
0.055
0.040
-0.138
-0.036
0.097
0.268
0.059
-0.014
0.091
0.081
0.040
0.005
-0.012
0.016
-0.087
0.052
0.045
0.066
0.056
0.103
-0.030
-0.091
0.114
-0.041
0.023
0.004
-0.189
0.108
0.035
-0.002
-0.079
0.024
-0.033
0.003
0.095
-0.013
0.088
-0.031
-0.051
0.034
0.001
-0.034
0.123
0.082
-0.095
-0.117
0.086
-0.039
0.026
0.143
0.046
-0.059
-0.009
0.042
-0.124
0.001
0.114
0.082
0.001
-0.042
0.093
-0.060
0.192
0.071
-0.095
0.014
0.051
-0.048
0.100
0.140
-0.082
-0.123
-0.024
0.040
0.113
0.082
-0.005
-0.039
0.002
0.014
0.083
0.059
0.048
0.089
-0.030
-0.064
0.071
-0.105
0.053
0.138
0.084
-0.022
-0.070
0.038
-0.125
-0.129
0.076
0.104
0.106
0.110
0.081
0.006
-0.178
0.037
0.116
-0.177
0.005
0.071
0.150
0.171
-0.002
-0.011
0.055
-0.011
-0.021
0.008
0.046
-0.003
0.007
0.196
0.089
-0.068
0.039
0.008
0.084
-0.087
-0.081
-0.151
-0.079
0.007
0.097
0.094
0.142
0.049
-0.138
0.053
0.045
-0.025
-0.039
0.062
0.121
0.196
-0.007
-0.055
0.028
0.012
-0.040
0.074
-0.010
0.041
-0.011
0.015
-0.073
0.062
-0.003
0.098
0.058
0.010
0.031
0.109
0.169
-0.133
-0.118
0.040
0.116
0.027
0.106
-0.032
0.059
-0.003
-0.112
0.016
0.076
0.099
0.014
0.160
-0.118
-0.101
-0.029
0.041
0.019
0.034
0.040
-0.129
0.057
-0.036
0.196
0.098
-0.036
-0.073
-0.012
0.067
-0.074
0.044
0.004
0.028
0.025
-0.151
-0.126
-0.105
-0.004
0.031
0.049
0.056
0.090
-0.003
-0.073
-0.023
0.080
-0.063
0.024
0.100
0.136
0.157
0.116
0.088
-0.014
0.065
0.034
-0.024
-0.044
-0.034
0.004
-0.073
0.091
0.142
0.049
-0.024
-0.059
-0.020
0.082
0.054
0.007
0.054
0.044
0.065
0.029
-0.022
-0.123
-0.602
-1.455
-3.565
-1.095
3.021
4.216
3.444
0.338
-2.176
-2.988
-2.171
-0.764
0.641
1.929
2.752
2.882
2.725
2.373
1.623
0.915
0.056
-0.416
-0.794
-1.041
-1.263
-1.224
-0.917
-0.821
-0.598
-0.381
-0.134
-0.042
0.070
0.271
0.289
0.212
0.106
0.160
0.225
0.319
0.239
0.128
0.163
0.244
0.335
0.188
0.319
0.381
0.250
0.401
0.214
0.313
0.329
0.307
0.342
0.327
0.303
0.187
0.181
0.350
0.270
0.284
0.161
0.189
0.163
0.182
0.155
-0.002
0.151
0.150
0.005
0.108
0.022
-0.021
0.023
-0.034
-0.046
-0.101
-0.038
0.004
-0.243
-0.048
-0.072
-0.138
-0.101
-0.029
-0.109
-0.242
-0.155
-0.141
-0.151
-0.062
-0.086
-0.045
-0.048
-0.164
-0.206
-0.077
-0.113
-0.054
-0.097
-0.024
-0.060
-0.057
-0.053
-0.015
-0.138
0.045
-0.112
-0.012
-0.008
0.053
0.071
-0.027
-0.049
-0.024
0.076
0.086
0.044
0.002
0.044
0.100
0.006
-0.027
0.135
-0.028
-0.011
0.038
0.123
0.004
0.124
0.017
-0.026
0.113
0.133
0.123
0.017
0.062
0.032
0.091
0.034
0.134
0.128
0.063
0.116
0.122
-0.040
-0.037
-0.072
0.009
0.050
0.009
-0.007
-0.005
0.060
0.029
0.089
-0.024
-0.036
-0.026
0.113
0.072
0.106
0.067
-0.033
0.087
-0.007
0.022
0.098
-0.185
0.003
-0.016
0.102
0.077
0.091
0.021
0.021
-0.020
0.076
0.084
0.123
-0.005
0.071
0.013
0.089
0.006
0.000
0.018
-0.055
0.050
-0.101
0.025
0.031
0.111
0.051
0.046
0.042
-0.033
0.137
0.030
-0.026
0.133
-0.119
-0.030
0.029
-0.105
0.040
0.152
-0.132
-0.015
-0.071
-0.006
-0.033
0.053
0.036
0.017
0.004
0.045
-0.022
-0.081
-0.187
-0.048
0.076
0.017
-0.016
-0.041
-0.031
0.043
0.016
-0.060
-0.019
0.061
-0.013
0.119
-0.079
-0.054
0.007
0.087
0.045
0.030
-0.020
0.046
0.065
0.048
0.025
0.008
0.012
0.140
-0.030
0.086
0.041
0.104
0.078
-0.036
0.262
0.010
0.022
0.029
0.018
0.019
-0.073
0.107
0.103
0.003
0.169
0.065
-0.035
-0.087
0.047
0.079
0.199
-0.059
-0.068
0.009
0.025
-0.042
0.049
0.010
-0.002
0.185
-0.018
0.070
-0.087
0.012
0.012
-0.068
-0.035
0.036
0.151
0.008
-0.100
0.122
0.081
-0.037
-0.028
0.035
0.181
-0.085
-0.028
-0.092
-0.059
-0.010
0.074
-0.000
-0.189
0.012
0.061
0.056
-0.012
-0.157
0.093
0.050
0.086
0.025
0.056
-0.058
0.100
0.009
-0.026
0.058
0.037
0.056
0.050
0.014
0.101
0.098
-0.151
0.081
-0.020
0.059
0.063
0.067
-0.008
0.202
0.160
-0.008
-0.083
-0.059
0.084
0.053
0.040
0.106
0.007
0.000
-0.019
-0.024
-0.022
0.050
-0.121
0.056
0.047
0.095
-0.021
-0.051
0.022
0.043
0.004
0.078
0.023
0.089
-0.036
0.031
-0.016
0.005
-0.047
0.145
0.139
-0.051
-0.012
-0.031
0.108
-0.085
0.065
0.032
0.052
-0.019
0.003
-0.008
0.019
0.030
0.079
0.068
-0.141
0.022
-0.035
0.033
0.012
-0.069
0.002
0.163
-0.056
-0.042
0.131
0.073
0.064
-0.099
0.080
0.019
0.107
0.032
0.030
0.021
-0.011
0.022
-0.129
-0.026
0.024
0.109
0.036
0.049
0.032
0.011
-0.090
-0.050
0.012
0.089
0.094
0.041
-0.007
0.011
0.043
-0.062
-0.028
0.115
0.003
0.058
-0.092
0.092
0.051
0.006
-0.003
0.011
0.021
0.059
0.103
0.034
-0.025
0.025
0.153
-0.051
0.066
-0.037
0.128
0.109
0.016
0.082
-0.095
-0.030
-0.015
0.002
0.057
0.076
0.004
0.056
-0.016
-0.024
0.034
0.034
0.076
0.056
-0.046
-0.097
0.039
-0.001
0.029
0.084
0.053
0.103
0.065
-0.061
0.013
-0.093
0.022
0.134
0.041
-0.105
-0.059
0.150
0.017
0.107
0.030
0.011
0.023
0.048
-0.053
0.003
0.115
0.003
-0.027
0.142
-0.000
-0.003
0.030
0.119
0.069
-0.039
-0.032
-0.044
0.106
-0.033
0.098
-0.081
0.010
0.011
0.026
0.119
-0.037
0.027
0.020
-0.068
0.065
0.103
-0.064
-0.057
0.060
0.044
0.106
-0.187
0.113
-0.005
0.033
0.189
-0.071
0.042
-0.020
0.101
-0.052
0.057
0.026
-0.079
-0.020
0.038
0.139
-0.140
0.086
0.105
-0.012
0.031
0.025
0.277
-0.063
-0.022
-0.023
0.070
0.013
0.074
-0.008
-0.014
-0.029
-0.032
0.067
0.067
-0.122
0.044
0.047
0.053
0.109
0.027
-0.100
0.083
-0.034
0.030
-0.043
0.035
-0.018
-0.027
0.099
0.061
-0.040
-0.069
0.030
0.013
0.018
-0.027
0.032
-0.063
0.208
0.006
0.018
0.130
0.061
-0.128
-0.080
-0.068
0.119
0.003
-0.002
0.074
-0.025
0.161
-0.059
-0.011
0.021
0.012
0.056
-0.030
-0.012
-0.075
0.023
0.013
-0.122
0.049
0.151
0.068
-0.014
-0.013
0.075
-0.033
-0.107
0.078
-0.003
-0.058
0.095
0.127
0.022
0.069
-0.012
-0.068
0.029
-0.054
0.008
0.146
0.082
-0.001
-0.037
0.056
0.115
0.055
0.011
-0.007
0.017
0.029
-0.028
-0.038
0.091
0.084
-0.473
-0.205
0.239
0.176
0.152
-0.099
-0.104
-0.058
0.026
0.118
0.042
0.084
0.165
0.057
0.053
0.142
-0.038
0.090
0.067
0.012
0.094
-0.059
-0.098
-0.114
-0.122
0.010
0.112
-0.018
0.136
0.086
-0.065
-0.085
0.048
0.087
-0.015
-0.091
0.161
0.161
-0.003
0.033
-0.060
0.038
-0.024
0.043
0.035
0.093
0.143
0.045
-0.097
0.066
0.056
0.045
0.003
0.149
0.011
0.005
-0.086
-0.014
-0.071
0.007
-0.003
0.019
-0.043
0.113
-0.086
0.074
0.032
0.085
0.065
0.017
-0.019
0.024
0.016
0.059
0.049
-0.078
0.060
0.086
0.002
0.087
0.064
0.049
-0.161
-0.016
0.027
-0.030
0.010
0.137
-0.056
0.062
-0.099
-0.054
0.153
0.022
0.006
0.137
-0.065
-0.091
0.007
-0.033
0.001
0.029
0.077
0.040
-0.008
0.005
0.153
-0.001
-0.038
-0.026
0.070
-0.034
-0.007
0.064
-0.067
0.026
-0.131
0.024
0.052
0.211
0.039
-0.046
-0.086
-0.021
-0.046
0.073
0.016
0.135
-0.024
-0.083
0.058
0.003
0.072
0.055
-0.126
0.069
-0.007
-0.005
0.028
-0.048
0.091
-0.032
0.104
0.031
-0.012
0.006
-0.133
0.033
0.107
0.029
-0.035
-0.096
-0.435
-0.918
-1.353
-0.570
0.571
0.629
0.396
0.316
0.178
0.060
0.074
-0.043
0.037
0.180
0.465
0.591
0.577
0.509
0.478
0.230
0.230
0.071
0.057
-0.238
-0.433
-0.270
-0.305
-0.255
-0.207
-0.148
-0.123
0.092
-0.038
-0.113
-0.051
0.041
0.014
0.017
0.030
0.026
-0.020
0.019
0.063
0.103
-0.066
0.037
0.047
-0.016
0.175
0.140
-0.038
0.171
0.105
0.078
0.074
0.179
0.077
0.005
0.072
-0.030
0.181
0.113
0.145
0.061
0.010
0.073
0.040
0.094
0.060
0.103
0.095
-0.058
-0.058
0.091
0.111
0.032
0.011
0.061
-0.001
0.089
0.164
-0.042
-0.009
0.048
-0.029
-0.042
0.078
0.054
-0.026
-0.081
0.048
-0.095
0.086
0.038
-0.062
-0.141
-0.123
-0.043
0.006
-0.085
-0.121
0.023
0.010
-0.112
-0.059
-0.007
-0.016
0.057
-0.116
0.004
-0.050
-0.069
-0.004
0.013
-0.004
0.028
0.067
0.112
0.042
-0.064
-0.076
0.047
0.048
-0.065
0.059
-0.012
-0.056
0.069
0.211
0.224
0.079
-0.048
0.071
0.050
0.041
0.082
0.154
0.125
0.143
0.062
0.026
0.040
-0.014
-0.032
-0.028
-0.003
-0.114
0.001
-0.045
-0.024
-0.180
0.061
0.035
0.056
-0.043
0.020
0.060
-0.115
0.093
-0.014
0.072
0.003
0.115
0.046
-0.027
0.049
0.248
-0.054
-0.023
0.013
0.092
0.075
0.097
0.144
-0.062
0.084
0.015
0.098
0.015
0.097
0.144
0.024
0.008
0.068
0.012
0.140
-0.004
-0.024
0.066
0.049
0.021
0.121
-0.017
0.059
-0.020
0.095
-0.021
0.074
-0.011
0.069
-0.060
0.145
-0.120
-0.044
0.025
0.117
-0.076
0.010
-0.039
0.064
0.122
-0.008
-0.085
-0.074
0.016
0.049
0.037
-0.084
0.003
0.010
-0.012
-0.036
0.048
-0.090
-0.025
0.113
0.007
0.025
-0.051
0.006
0.014
0.039
-0.067
-0.026
0.103
0.070
0.017
0.013
-0.007
-0.038
0.052
-0.048
0.076
0.017
0.107
0.028
0.041
0.000
0.052
-0.002
0.149
-0.031
0.015
0.076
0.086
-0.073
0.159
-0.060
0.091
0.103
0.043
0.066
-0.025
0.026
0.048
-0.032
0.047
0.096
0.080
-0.065
0.118
-0.041
-0.079
0.043
0.021
0.082
0.006
0.050
-0.016
0.007
0.033
-0.033
-0.019
-0.054
0.010
0.044
0.105
-0.029
-0.063
0.067
0.122
0.061
0.057
0.141
0.033
-0.059
0.003
0.079
0.109
0.049
0.063
0.027
0.046
0.041
-0.072
0.037
-0.002
0.153
-0.072
0.013
-0.054
0.017
0.081
-0.120
-0.349
-0.403
-0.465
-0.943
-1.379
-0.963
0.020
0.727
-0.473
-3.194
-3.922
-2.052
2.950
4.385
4.702
-0.234
-3.211
-4.072
-4.198
-0.366
3.340
4.398
4.587
4.482
4.310
4.078
3.877
3.219
0.665
-2.119
-4.068
-4.969
-5.153
-4.919
-4.090
-3.084
-1.999
-1.119
-0.237
0.318
0.782
0.891
0.914
0.808
0.686
0.632
0.469
0.121
0.047
-0.082
0.061
0.103
0.185
0.330
0.337
0.345
0.188
0.276
0.385
0.260
0.317
0.272
0.250
0.125
0.067
0.120
0.172
-0.017
-0.914
-3.412
1.923
3.814
4.293
1.716
-1.970
-3.738
-3.522
-2.261
-0.457
1.350
2.532
3.368
3.355
2.956
2.065
1.290
0.441
-0.291
-0.861
-1.311
-1.528
-1.520
-1.356
-1.287
-0.984
-0.629
-0.315
-0.243
-0.109
0.157
0.283
0.184
0.123
0.239
0.309
0.125
0.153
0.199
0.283
0.333
0.253
0.277
0.330
0.310
0.471
0.409
0.388
0.388
0.535
0.476
0.364
0.261
0.413
0.429
0.377
0.236
0.335
0.398
0.161
0.210
0.299
0.121
0.097
0.099
0.023
0.009
-0.020
0.043
0.062
-0.058
-0.054
-0.186
-0.081
-0.162
-0.110
-0.206
-0.207
-0.175
-0.173
-0.043
-0.158
-0.316
-0.387
-0.130
-0.134
-0.111
-0.152
-0.264
-0.131
-0.159
-0.133
-0.167
-0.123
-0.124
-0.199
-0.221
-0.217
-0.131
-0.031
-0.155
-0.157
-0.040
-0.113
-0.006
-0.084
-0.077
-0.082
-0.067
-0.005
0.042
0.028
0.062
0.008
0.020
-0.067
0.082
0.053
0.028
0.035
0.082
0.018
0.132
0.167
0.085
0.107
-0.104
-0.048
0.171
0.206
0.200
0.117
0.126
0.061
-0.062
0.211
-0.059
0.049
0.238
0.122
-0.166
0.067
0.014
0.018
0.011
0.012
0.037
0.006
0.066
0.081
-0.057
-0.077
0.093
0.055
0.029
-0.001
0.087
-0.013
-0.002
-0.046
-0.111
0.114
0.165
0.042
-0.006
0.166
0.080
-0.030
-0.037
0.089
0.123
0.057
0.075
0.020
0.103
0.096
0.153
0.121
-0.057
-0.090
0.114
-0.046
-0.073
0.088
-0.003
0.000
-0.071
0.021
0.020
0.007
-0.055
0.039
0.146
-0.021
0.004
0.056
0.046
0.077
0.037
0.059
0.008
0.139
0.044
-0.011
-0.030
0.097
0.018
0.068
-0.062
-0.021
-0.071
-0.040
-0.112
0.014
-0.005
0.022
-0.075
-0.039
-0.059
-0.036
-0.035
-0.052
-0.073
0.024
0.028
0.027
-0.031
0.009
0.073
0.012
-0.018
-0.074
0.047
0.002
0.069
0.007
-0.015
0.016
-0.042
-0.086
0.166
-0.100
0.026
0.117
0.108
-0.030
0.165
-0.016
0.077
0.023
0.090
0.278
0.033
-0.029
0.021
0.034
0.022
-0.010
0.064
0.065
-0.007
0.132
0.092
-0.005
0.041
0.050
0.052
0.002
0.140
0.041
-0.018
0.053
0.144
0.069
0.056
-0.066
0.048
0.079
-0.014
-0.004
-0.043
-0.063
0.065
0.102
-0.156
-0.029
-0.058
-0.036
-0.019
-0.013
0.044
-0.096
-0.049
0.018
0.231
-0.080
-0.034
0.019
-0.023
-0.086
0.065
0.011
0.042
-0.043
-0.044
-0.071
0.122
-0.027
-0.070
0.015
-0.002
0.051
0.105
-0.037
0.073
-0.025
-0.028
0.075
0.136
0.118
0.192
0.064
-0.078
0.092
0.036
0.029
0.002
0.068
0.081
0.058
0.051
0.136
0.011
0.067
0.082
-0.005
0.041
0.075
-0.076
0.000
0.045
0.101
0.101
-0.071
-0.013
-0.003
0.228
0.017
0.125
0.005
-0.045
0.105
0.199
0.048
-0.014
0.105
0.060
-0.134
0.079
0.032
0.085
-0.008
0.133
0.053
-0.008
0.093
-0.149
0.046
0.114
0.022
-0.029
0.044
0.083
0.159
-0.097
-0.046
0.039
0.090
-0.029
0.075
-0.018
0.042
0.128
-0.060
-0.034
-0.015
0.021
0.073
0.015
-0.048
-0.107
-0.031
0.014
0.019
0.077
-0.012
0.048
-0.067
-0.045
-0.058
0.196
0.064
0.033
-0.019
0.100
0.036
0.052
-0.103
0.152
0.071
-0.009
0.083
-0.106
-0.028
0.140
-0.093
-0.019
0.077
-0.020
0.026
0.067
-0.031
-0.088
-0.036
0.125
0.114
0.082
-0.023
0.092
0.060
-0.063
0.047
0.075
-0.002
0.012
-0.090
0.023
0.104
0.156
0.014
-0.021
0.120
0.090
-0.131
-0.127
-0.048
0.022
0.154
-0.004
0.023
0.086
0.186
-0.051
0.071
-0.013
0.032
0.005
0.101
-0.093
0.013
0.007
0.011
0.022
-0.063
0.107
-0.013
-0.012
0.004
-0.005
0.087
0.076
0.068
-0.112
-0.147
0.011
0.183
0.122
0.079
0.034
0.010
0.022
-0.075
0.065
0.119
0.052
-0.100
-0.013
0.019
0.076
0.049
-0.036
-0.007
-0.063
0.102
-0.083
-0.014
-0.031
-0.051
0.128
0.021
0.116
-0.087
-0.110
0.070
-0.030
0.069
0.035
0.005
0.127
0.026
-0.038
-0.019
0.030
-0.009
0.024
0.069
-0.000
0.058
0.009
-0.008
0.058
-0.034
0.135
-0.046
0.094
-0.035
0.031
0.048
0.038
-0.017
0.100
0.029
-0.002
0.115
0.041
0.002
-0.048
0.010
0.109
0.044
0.074
0.004
-0.045
-0.118
0.129
0.037
0.017
0.060
0.068
-0.041
-0.026
-0.009
0.056
0.014
0.101
-0.094
0.080
0.130
-0.073
0.050
0.041
0.079
-0.064
0.077
-0.045
-0.009
-0.024
0.008
-0.041
0.070
0.138
0.081
-0.045
0.052
0.122
-0.062
0.144
0.107
-0.134
0.172
0.009
-0.010
0.097
0.069
-0.092
0.031
-0.022
0.066
-0.020
-0.005
0.009
0.137
0.042
0.098
-0.093
0.025
-0.110
-0.019
0.027
-0.070
0.050
0.191
-0.088
0.051
-0.015
-0.022
0.070
0.085
-0.009
0.013
-0.014
0.074
-0.003
0.083
0.067
0.066
0.096
-0.064
0.111
0.145
0.016
-0.068
0.039
0.016
-0.078
0.034
-0.045
-0.081
0.071
0.141
0.152
-0.069
0.019
-0.081
0.117
-0.017
0.034
0.015
-0.077
0.004
-0.065
-0.020
0.087
-0.053
-0.009
0.019
0.065
0.013
-0.019
0.062
0.088
0.061
0.063
0.103
0.015
0.018
-0.029
0.046
0.130
-0.042
-0.019
0.054
0.031
-0.033
0.076
0.030
0.081
-0.117
0.039
-0.006
-0.049
0.006
-0.033
0.136
0.063
0.068
-0.091
0.084
0.021
-0.102
-0.013
-0.019
0.047
0.054
0.081
-0.081
-0.017
-0.022
0.114
0.014
0.026
-0.039
0.068
0.077
-0.024
0.012
-0.083
0.053
0.033
0.166
0.082
0.005
-0.045
-0.094
0.054
-0.074
0.058
0.008
-0.074
-0.102
-0.141
0.004
0.053
0.188
-0.024
0.060
0.013
0.037
-0.057
0.085
0.224
0.034
0.115
0.005
0.119
-0.169
-0.088
0.181
0.423
0.246
0.106
-0.012
-0.083
0.043
0.006
0.081
-0.007
0.169
0.132
0.069
0.090
-0.062
-0.133
0.047
0.094
-0.119
0.022
-0.080
-0.402
-0.832
-0.530
-0.041
0.418
0.756
0.281
0.020
-0.109
-0.080
-0.066
0.046
0.240
0.336
0.365
0.269
0.187
0.060
0.179
0.126
0.067
0.026
-0.078
-0.033
-0.171
-0.035
-0.110
-0.096
0.004
-0.010
0.078
0.002
0.072
-0.069
-0.017
0.077
0.136
-0.020
0.008
0.055
-0.030
0.040
0.095
0.061
-0.003
-0.031
0.032
0.122
0.056
0.061
0.095
0.076
-0.081
0.048
-0.021
0.028
0.095
-0.007
0.006
-0.036
0.072
0.047
-0.031
-0.068
0.054
0.027
-0.024
-0.056
0.009
0.062
0.050
0.066
-0.009
-0.079
0.087
0.076
0.090
0.012
-0.030
-0.096
0.092
0.122
0.036
-0.161
0.084
0.120
-0.063
0.108
0.072
0.007
-0.087
-0.038
0.082
0.067
-0.033
0.010
0.023
0.018
0.080
-0.014
-0.010
0.067
0.053
-0.126
0.076
0.084
-0.055
-0.011
0.018
0.076
0.053
-0.046
-0.068
-0.004
0.135
0.075
-0.161
0.100
0.016
0.010
0.019
0.047
0.077
0.019
-0.056
0.132
-0.010
0.060
0.021
0.001
-0.059
0.061
-0.069
0.083
-0.037
-0.008
-0.106
0.000
0.079
-0.007
0.115
-0.057
-0.038
0.130
0.011
0.045
0.005
-0.012
0.160
0.099
0.051
0.005
-0.048
-0.085
-0.063
0.002
0.079
0.119
-0.008
-0.052
0.024
0.047
-0.086
0.008
-0.057
0.083
0.058
0.020
-0.017
0.056
-0.024
-0.063
-0.005
0.032
0.010
0.112
-0.066
0.111
-0.049
0.007
0.086
0.015
0.041
-0.068
0.062
0.079
-0.007
-0.112
-0.131
0.050
0.127
0.085
-0.015
-0.078
0.116
0.007
-0.030
0.084
0.032
-0.045
-0.085
0.112
0.081
0.045
-0.048
0.056
-0.009
0.079
0.053
0.124
-0.090
-0.057
0.018
0.059
-0.056
0.024
0.067
-0.005
0.033
0.021
0.084
0.015
0.044
-0.049
0.025
0.119
-0.008
-0.089
0.007
0.005
-0.103
0.136
0.085
-0.043
0.117
-0.025
0.042
-0.013
-0.042
0.052
0.046
0.002
0.094
0.064
-0.083
-0.003
-0.058
0.109
-0.033
-0.014
-0.119
0.109
-0.016
0.018
0.125
-0.022
-0.021
-0.039
0.084
0.097
0.005
0.050
-0.095
-0.010
-0.024
0.055
0.117
0.078
-0.040
0.024
0.064
0.045
-0.033
-0.063
0.072
0.045
0.016
0.047
0.060
0.069
-0.056
0.100
-0.067
0.062
-0.018
-0.049
-0.004
-0.022
0.039
-0.113
0.219
-0.021
-0.143
0.028
0.090
-0.092
0.074
0.003
0.096
-0.005
-0.011
-0.044
0.017
-0.064
0.072
0.076
-0.038
0.073
0.130
-0.009
0.039
-0.038
0.014
0.057
0.121
0.075
-0.020
-0.087
0.017
0.049
0.081
0.085
0.105
-0.065
0.015
-0.068
0.135
0.029
-0.012
0.104
0.138
-0.060
-0.012
0.041
0.099
-0.120
-0.032
0.024
0.110
0.028
-0.050
0.063
0.009
0.030
0.067
-0.043
0.037
0.067
-0.020
0.085
0.066
-0.006
0.088
0.016
-0.084
0.065
0.116
0.026
0.050
-0.104
0.066
0.044
-0.110
0.065
0.025
0.034
0.087
-0.038
-0.128
-0.003
0.028
0.043
-0.005
0.057
0.042
0.114
0.004
0.098
0.023
-0.025
0.066
0.066
0.080
-0.051
-0.120
0.018
0.102
-0.097
0.101
0.005
-0.026
0.090
0.125
-0.080
0.024
0.034
-0.013
0.004
0.129
0.140
-0.013
-0.067
0.132
-0.040
-0.011
0.013
-0.060
0.117
0.036
0.083
-0.049
-0.003
-0.099
0.026
0.074
0.071
0.052
-0.018
0.104
0.015
-0.003
0.088
0.154
0.020
-0.005
0.023
0.034
-0.064
0.081
0.005
-0.024
0.051
-0.010
0.093
-0.095
0.058
0.059
0.016
0.058
-0.001
0.057
0.042
-0.110
-0.091
0.121
0.043
0.011
0.060
0.045
-0.003
-0.045
-0.017
0.172
-0.017
-0.122
0.134
0.100
0.101
0.037
0.069
0.035
-0.023
0.070
-0.100
0.148
0.019
0.013
0.052
-0.015
-0.015
0.044
0.154
0.022
-0.130
0.038
-0.015
-0.008
0.001
0.052
0.031
-0.023
0.033
0.089
-0.028
0.005
0.030
-0.018
0.136
0.001
0.004
0.057
0.139
0.047
-0.058
-0.005
0.171
0.086
-0.042
-0.055
0.020
0.074
-0.073
0.033
-0.022
-0.008
-0.023
0.013
0.031
0.067
0.010
0.019
-0.053
0.102
0.006
0.098
0.014
-0.114
0.112
-0.034
0.092
-0.067
-0.042
0.064
0.084
-0.007
-0.049
-0.030
0.052
0.088
-0.022
-0.002
-0.001
0.093
0.174
-0.019
-0.007
0.024
-0.026
0.066
-0.025
0.075
0.109
0.091
-0.023
0.024
-0.031
-0.016
0.053
-0.017
-0.028
0.106
0.063
0.032
-0.036
0.033
0.090
0.105
-0.127
-0.105
0.014
0.069
0.089
0.030
0.012
-0.102
-0.022
-0.012
0.136
0.026
-0.136
0.050
0.113
-0.077
0.079
0.013
-0.007
-0.044
-0.004
0.021
-0.040
0.025
0.048
0.026
0.030
0.081
0.043
0.006
0.097
-0.004
0.034
-0.063
0.057
0.012
0.133
0.033
-0.038
-0.358
-3.240
-4.052
-4.070
-0.064
-2.167
-0.804
3.382
4.561
4.808
1.350
-2.712
-3.942
-0.521
3.179
4.204
4.368
4.299
4.095
3.917
3.701
3.513
2.366
-0.994
-4.216
-5.329
-5.507
-5.372
-5.153
-4.833
-4.066
-2.771
-1.427
-0.060
0.809
1.300
1.465
1.512
1.296
1.114
0.731
0.417
-0.093
0.104
-0.271
0.056
0.261
-1.779
0.239
1.279
1.275
-1.421
-1.008
3.238
4.440
1.031
-2.777
-3.383
2.171
3.949
4.355
2.225
-0.642
-1.608
-0.231
2.344
3.507
3.727
3.672
3.529
3.362
3.186
3.055
2.236
0.764
-0.891
-2.074
-2.933
-3.038
-3.126
-2.948
-2.199
-1.618
-0.956
-0.541
-0.061
0.252
0.478
0.654
1.144
2.345
2.540
1.650
1.089
0.769
0.979
1.044
1.096
1.340
1.531
1.402
1.586
1.302
1.071
0.846
0.762
0.677
0.747
0.544
0.647
0.677
0.908
0.859
0.967
0.918
0.979
0.905
0.876
0.737
0.747
0.809
0.806
0.591
0.487
0.355
0.547
0.258
0.172
0.161
0.127
0.049
0.014
-0.028
-0.138
-0.166
-0.134
-0.141
-0.393
-0.540
-0.281
-0.186
-0.257
-0.494
-0.613
-0.584
-0.549
-0.602
-0.587
-0.602
-0.353
-0.591
-0.519
-0.595
-0.553
-0.472
-0.683
-0.551
-0.421
-0.438
-0.336
-0.584
-0.399
-0.418
-0.320
-0.288
-0.413
-0.267
-0.251
-0.161
-0.112
-0.132
-0.208
-0.012
-0.025
-0.143
0.219
0.041
-0.004
0.076
0.238
0.159
0.259
0.105
0.271
0.064
0.107
0.270
0.079
0.174
0.157
0.134
0.159
0.088
0.178
0.014
0.151
-0.098
0.065
0.030
0.060
0.075
0.259
0.096
0.066
0.045
-0.055
-0.101
0.162
0.044
0.059
0.039
0.072
0.067
0.153
-0.021
0.047
0.130
0.037
0.081
0.079
0.058
0.026
-0.007
0.118
0.128
0.083
0.127
0.010
0.095
0.099
0.180
0.014
0.113
0.098
0.093
0.137
0.056
0.061
-0.030
0.090
0.088
0.055
0.001
0.013
0.061
0.079
-0.023
0.071
0.030
0.015
-0.050
-0.060
-0.104
0.031
0.037
0.075
-0.090
0.068
-0.102
-0.115
-0.105
-0.229
-0.138
0.004
-0.118
-0.042
-0.160
-0.142
-0.199
-0.297
-0.072
-0.106
-0.150
-0.043
-0.183
-0.254
-0.119
-0.172
-0.061
-0.131
-0.067
-0.079
-0.041
-0.192
-0.051
-0.166
-0.009
-0.027
-0.088
0.044
0.061
-0.069
-0.161
0.027
0.106
0.113
-0.031
0.098
0.101
0.102
0.074
0.068
0.105
0.006
0.106
0.274
0.116
0.049
0.261
0.105
0.125
0.158
0.185
0.084
0.197
0.277
0.190
0.019
0.031
0.157
0.118
0.042
0.170
0.211
0.107
0.054
0.047
0.110
0.140
-0.023
-0.009
0.081
-0.062
0.050
0.295
0.077
-0.016
0.024
-0.124
-0.146
-0.028
-0.084
0.083
0.070
0.020
-0.208
0.014
-0.013
0.005
-0.113
-0.163
-0.041
0.066
-0.207
-0.113
-0.136
-0.031
-0.108
-0.045
-0.073
-0.231
-0.082
-0.027
-0.035
-0.043
-0.138
-0.105
-0.088
-0.067
0.024
-0.148
-0.068
-0.087
-0.022
-0.062
0.056
0.052
0.101
-0.127
-0.008
-0.042
0.040
0.123
0.070
0.010
0.127
0.084
-0.084
-0.032
-0.014
0.137
0.171
0.038
0.018
-0.075
-0.237
-0.098
0.000
0.199
0.122
0.174
-0.016
0.088
-0.038
-0.035
0.023
0.089
0.050
0.127
0.156
0.135
0.160
0.262
0.033
0.030
0.020
0.042
-0.184
-0.226
0.228
0.082
0.133
0.168
0.068
0.076
0.001
-0.067
-0.015
0.032
-0.008
-0.007
0.063
0.102
0.026
0.006
-0.065
-0.060
-0.169
-0.070
-0.031
0.046
-0.199
0.074
0.013
-0.022
-0.042
0.006
-0.094
0.064
0.050
0.050
0.039
0.073
-0.003
0.081
-0.050
0.096
-0.060
0.025
-0.016
0.099
-0.143
0.003
0.139
0.004
0.068
0.020
-0.142
0.052
-0.041
0.065
0.033
-0.057
0.035
0.065
0.066
0.174
0.017
0.028
0.041
-0.066
0.149
0.093
-0.041
0.052
-0.006
0.012
0.111
-0.009
-0.012
-0.061
-0.038
-0.010
0.027
0.023
-0.001
-0.020
0.061
-0.009
0.090
0.164
-0.117
0.091
0.029
0.098
-0.013
0.031
0.070
0.094
0.030
0.058
-0.107
-0.036
0.047
-0.035
0.111
-0.057
0.004
0.053
0.129
0.055
0.069
-0.165
-0.088
-0.033
0.132
-0.019
-0.050
0.225
0.072
-0.043
0.007
-0.076
-0.104
0.093
0.082
-0.020
0.054
0.018
0.076
-0.063
0.066
0.092
0.008
-0.053
-0.053
0.006
0.143
0.060
0.087
-0.048
-0.031
0.021
0.025
0.108
0.080
-0.083
0.021
0.019
-0.001
0.057
0.106
-0.048
0.010
-0.019
0.075
-0.034
0.010
-0.087
0.037
0.090
-0.137
0.048
0.056
0.018
0.054
0.016
0.069
-0.016
-0.046
0.029
-0.003
-0.020
0.001
0.014
0.025
0.087
0.002
0.081
-0.092
0.087
-0.006
0.063
-0.085
0.052
0.077
-0.087
0.164
0.106
-0.076
0.025
-0.081
0.089
0.018
0.035
-0.064
0.045
-0.080
0.137
-0.039
0.030
0.011
-0.021
-0.024
0.070
0.030
0.034
0.003
0.002
0.000
-0.012
-0.080
-0.017
0.135
0.012
0.051
-0.173
0.108
-0.035
0.051
0.073
-0.031
-0.070
0.002
-0.002
0.029
0.072
-0.033
0.124
-0.088
0.034
-0.048
0.118
0.007
-0.069
0.024
-0.025
-0.033
-0.041
0.007
0.019
-0.045
0.029
0.100
-0.026
-0.113
-0.020
0.064
-0.022
0.131
0.009
-0.030
0.204
0.003
-0.110
-0.012
0.087
-0.045
0.200
0.033
-0.026
-0.028
0.036
-0.111
0.048
0.110
0.112
0.103
0.094
0.057
0.026
-0.133
-0.113
0.041
0.071
0.109
0.008
0.085
0.059
-0.020
0.017
0.029
0.121
0.020
0.020
-0.064
0.026
0.089
0.049
0.096
0.165
-0.082
-0.102
-0.059
0.083
0.076
0.053
-0.013
-0.031
-0.040
-0.048
-0.063
0.190
0.055
0.038
0.054
0.028
0.081
0.046
0.000
0.024
0.005
-0.113
0.025
0.097
-0.085
-0.009
0.064
-0.033
0.110
-0.056
-0.082
-0.024
0.011
0.081
0.033
0.022
0.016
0.021
-0.094
0.048
0.050
0.026
0.083
-0.018
-0.045
-0.028
0.089
0.019
0.075
0.091
0.048
0.069
-0.011
0.084
0.072
0.061
0.068
-0.059
-0.079
0.070
0.050
-0.020
0.109
0.078
0.035
-0.004
-0.031
-0.031
0.038
0.028
-0.048
-0.087
-0.145
0.126
0.057
0.043
0.116
-0.089
-0.017
-0.012
0.091
0.003
-0.071
-0.105
0.140
0.058
-0.080
-0.019
0.115
0.094
-0.056
-0.075
0.085
0.078
0.075
-0.023
0.068
0.099
-0.018
0.041
0.006
0.040
0.124
-0.055
0.037
-0.069
-0.036
0.137
0.077
0.050
0.082
-0.049
0.121
-0.034
-0.043
0.028
0.035
-0.143
0.029
-0.030
0.125
0.027
0.022
-0.049
-0.006
-0.020
0.070
0.054
0.105
-0.054
0.167
-0.094
0.001
0.045
-0.074
0.126
-0.094
0.110
-0.036
-0.068
0.053
-0.041
-0.055
0.065
-0.005
0.050
0.046
0.015
0.115
-0.021
-0.040
0.136
0.074
0.026
0.044
0.042
-0.085
0.004
0.043
0.011
-0.000
0.201
-0.029
-0.133
0.055
0.030
0.020
0.097
-0.046
0.041
0.136
-0.066
-0.008
0.063
0.052
-0.061
-0.013
0.078
0.037
0.004
0.063
-0.059
0.088
-0.032
-0.054
0.011
0.073
0.005
0.012
0.024
-0.005
-0.018
0.072
-0.075
-0.007
0.092
0.070
0.040
-0.102
0.112
0.042
0.084
-0.031
-0.105
-0.087
-0.171
0.039
-0.069
0.016
-0.166
-0.070
-0.008
0.029
0.180
0.153
0.124
0.089
0.033
-0.018
-0.042
0.087
0.203
0.147
0.088
0.162
-0.005
-0.015
-0.034
0.086
-0.072
0.017
-0.033
-0.085
-0.263
0.015
0.047
0.028
0.040
0.024
-0.016
-0.028
-0.018
0.019
0.083
-0.045
-0.190
-0.177
-0.068
0.080
0.089
0.006
0.131
0.207
-0.008
0.069
0.072
0.130
0.006
-0.013
0.091
-0.009
0.092
0.167
0.246
0.029
-0.090
-0.081
0.137
-0.025
0.037
-0.034
-0.017
-0.048
0.029
0.080
-0.018
0.013
0.001
0.134
0.023
-0.082
0.045
-0.030
0.071
0.003
0.124
-0.068
-0.047
0.072
-0.116
0.136
0.062
-0.039
0.047
0.034
0.113
0.007
-0.013
0.111
-0.038
0.002
0.006
0.049
-0.014
-0.068
0.048
0.074
0.112
0.126
-0.123
-0.042
0.088
0.039
-0.111
0.162
-0.011
0.018
-0.035
0.072
-0.024
-0.041
0.049
-0.073
0.162
-0.085
-0.065
-0.056
0.154
-0.017
0.008
0.009
0.003
0.110
-0.076
-0.054
0.022
0.039
0.100
-0.012
-0.002
0.089
-0.021
-0.083
-0.094
0.084
0.058
0.043
-0.161
-0.053
-0.071
0.029
-0.012
0.038
0.096
-0.038
0.060
-0.069
-0.030
0.059
0.095
0.018
0.035
0.100
0.024
0.056
0.016
-0.021
0.041
0.014
0.086
0.035
-0.070
-0.081
0.082
0.166
0.096
-0.105
-0.075
-0.131
-0.054
-0.115
0.093
0.014
-0.063
0.090
0.133
-0.050
-0.001
0.019
-0.015
-0.005
0.049
0.047
0.043
0.018
0.075
-0.049
0.010
0.039
0.038
0.046
-0.001
0.134
0.000
-0.004
0.056
0.071
0.068
0.001
0.049
0.062
-0.002
0.016
0.147
-0.075
-0.098
-0.061
0.103
0.066
0.054
0.014
0.045
-0.063
-0.030
-0.018
-0.120
0.028
0.010
-0.003
0.066
0.070
-0.034
-0.036
0.110
0.138
0.007
-0.031
-0.319
-0.596
-0.486
0.036
0.506
0.560
0.292
0.032
-0.439
-0.557
-0.436
0.171
0.390
0.516
0.322
0.317
0.111
0.056
-0.268
-0.126
0.030
0.043
0.047
0.199
0.108
0.129
0.029
-0.076
-0.111
-0.078
0.036
0.030
0.119
0.005
0.066
-0.022
0.138
-0.111
0.050
0.015
-0.043
0.018
-0.078
-0.102
-0.141
-0.168
-0.032
-0.093
-0.030
0.206
0.049
0.003
-0.055
-0.070
0.097
0.040
0.050
-2.439
-3.804
0.974
3.673
4.398
2.754
-2.194
-3.906
-4.322
-3.259
-0.136
3.005
4.295
4.568
4.502
4.362
4.059
3.057
1.493
-0.090
-1.042
-1.989
-2.522
-2.543
-2.363
-2.078
-1.535
-1.070
-0.413
-0.286
0.276
0.295
0.394
0.371
0.324
0.472
0.407
0.261
0.287
0.380
0.238
0.035
0.215
0.362
0.475
0.237
0.344
0.439
0.336
0.419
0.545
0.410
0.452
0.469
0.415
0.373
0.381
0.388
0.285
0.410
0.343
0.180
0.153
0.150
0.294
0.110
0.191
0.217
0.217
-0.018
-0.051
0.123
0.098
-0.117
-0.161
-0.180
-1.885
0.297
1.089
0.789
0.049
-0.262
-0.528
-0.368
-0.376
-0.312
-0.217
0.015
0.029
0.208
0.085
-0.061
-0.086
-0.026
-0.156
-0.309
-0.285
-0.279
-0.301
-0.341
-0.146
-0.089
-0.100
-0.118
-0.154
-0.151
0.065
-0.015
0.024
-0.028
0.066
-0.028
0.079
-0.010
0.033
0.099
0.133
0.061
-0.031
0.085
-0.004
0.115
0.082
0.225
0.167
0.127
0.104
0.044
0.158
0.113
0.166
0.164
0.106
0.067
0.037
0.117
0.114
-0.026
-0.115
0.034
-0.066
0.083
0.065
0.149
-0.024
-0.200
0.025
-0.108
0.001
0.154
0.076
0.013
-0.092
0.072
-0.076
0.051
0.034
0.123
0.015
0.017
0.107
-0.066
-0.069
-0.067
0.021
-0.035
-0.100
-0.120
-0.090
0.062
-0.067
0.005
-0.110
-0.025
0.081
-0.035
-0.040
-0.079
-0.072
0.015
0.048
0.068
0.383
0.199
0.137
-0.024
0.113
0.043
0.043
0.018
0.179
0.200
0.050
0.016
-0.078
0.048
-0.093
-0.097
-0.203
-0.065
-0.127
0.011
-0.099
-0.170
-0.006
-0.043
0.023
0.079
-0.037
-0.091
-0.025
0.054
0.017
-0.013
0.024
-0.055
0.075
0.156
0.031
0.070
0.065
-0.029
-0.067
0.058
0.046
-0.069
0.138
0.107
0.061
0.141
0.029
-0.055
-0.082
0.050
0.047
0.073
0.025
0.106
-0.063
0.109
0.108
-0.056
0.005
0.057
0.074
-0.013
-0.022
0.040
0.224
0.083
-0.031
-0.040
0.111
-0.066
-0.046
0.109
0.197
0.054
-0.034
0.083
0.056
-0.013
-0.011
0.105
0.130
0.027
0.029
0.068
-0.054
0.036
0.055
0.113
0.064
-0.080
0.017
0.104
0.005
-0.009
-0.150
0.155
-0.001
0.003
-0.090
-0.096
-0.145
0.043
0.072
-0.003
-0.015
-0.133
-0.029
0.008
-0.113
-0.049
-0.058
0.036
0.089
-0.033
-0.111
0.083
-0.090
-0.015
-0.079
-0.019
0.119
-0.011
-0.062
-0.094
0.054
-0.095
-0.011
0.009
-0.014
0.127
-0.125
0.103
-0.019
-0.189
-0.017
0.076
0.051
0.023
-0.002
0.132
0.102
0.034
-0.003
-0.022
0.064
0.134
-0.078
0.027
-0.012
0.054
-0.035
0.072
0.028
0.012
0.051
-0.070
0.055
0.180
-0.050
0.001
0.104
-0.053
0.061
-0.005
-0.002
-0.078
-0.098
0.107
0.023
0.057
0.001
-0.053
-0.059
0.020
0.071
0.005
-0.031
0.010
0.026
0.135
-0.005
0.056
0.075
-0.017
-0.079
0.035
-0.018
0.054
-0.025
-0.057
0.079
-0.009
-0.022
-0.031
-0.065
-0.078
0.096
0.026
0.006
-0.085
-0.013
-0.032
0.073
-0.012
0.031
0.161
0.062
-0.085
0.014
-0.009
0.030
0.105
-0.015
0.018
0.049
-0.012
-0.010
0.136
-0.065
-0.145
0.037
0.110
0.008
-0.062
-0.089
0.131
0.077
0.047
-0.140
0.036
-0.020
0.020
0.027
-0.035
0.181
0.080
-0.025
-0.026
0.044
0.175
-0.008
-0.001
0.071
0.146
0.029
0.004
-0.016
0.080
0.171
0.041
0.027
0.025
0.047
0.040
-0.060
0.129
-0.036
-0.012
0.059
0.116
-0.015
-0.047
-0.069
0.092
0.065
0.058
-0.068
-0.095
0.004
0.034
0.105
-0.049
0.016
0.086
-0.040
0.019
-0.133
0.064
-0.066
0.039
0.011
0.089
0.120
0.014
0.084
0.173
-0.020
-0.095
-0.029
0.037
-0.123
0.138
0.094
0.035
0.033
0.027
-0.041
0.005
0.061
0.009
0.055
0.015
0.077
-0.030
0.022
-0.026
0.072
0.046
0.071
0.008
-0.019
0.004
-0.016
-0.050
0.079
-0.040
0.030
0.018
-0.033
0.159
0.094
-0.067
0.009
0.123
-0.038
0.001
0.081
-0.023
-0.005
0.011
0.005
0.030
0.036
0.034
-0.076
0.066
-0.044
0.175
0.062
0.011
-0.097
0.039
0.070
0.016
0.027
0.053
0.137
-0.007
-0.010
-0.068
0.133
-0.006
0.121
0.115
0.001
-0.121
0.036
0.095
0.054
-0.009
-0.025
0.049
0.055
0.073
-0.045
-0.005
0.133
0.022
0.031
0.005
-0.038
0.046
0.007
0.106
-0.063
0.095
0.069
0.027
0.018
-0.081
0.021
0.040
0.104
0.092
0.016
0.057
-0.056
-0.078
0.042
0.096
-0.008
0.059
0.034
-0.108
0.036
0.031
0.104
0.026
0.227
0.014
-0.052
0.043
0.074
0.021
0.128
0.125
-0.005
-0.016
0.071
0.014
0.031
0.066
-0.026
-0.072
0.087
0.003
0.056
0.109
0.089
0.075
0.002
-0.148
0.016
0.055
0.031
0.000
0.179
0.009
-0.110
0.011
0.128
0.089
0.117
-0.120
0.032
0.117
-0.070
0.103
0.081
0.046
-0.034
-0.037
-0.040
-0.022
0.045
0.015
0.073
0.013
0.007
0.017
0.073
0.103
0.032
0.096
0.003
0.039
0.005
-0.034
-0.021
-0.020
0.009
0.079
-0.037
0.071
0.048
0.003
-0.022
0.088
-0.079
0.077
0.095
0.080
-0.093
-0.095
-0.099
0.136
0.030
0.153
0.021
0.049
-0.023
-0.062
-0.093
0.115
0.116
0.078
-0.022
-0.095
0.047
-0.029
0.172
0.108
-0.077
-0.010
-0.053
0.121
0.049
0.020
0.015
0.043
0.064
-0.070
-0.031
0.038
0.068
0.019
0.018
-0.049
-0.027
0.020
-0.018
0.063
0.032
0.151
-0.021
-0.088
0.102
0.019
0.081
0.037
0.098
-0.016
0.018
0.049
0.048
0.079
0.051
0.057
0.008
-0.057
-0.011
0.114
-0.059
0.057
-0.024
0.070
-0.023
-0.016
-0.083
0.026
0.107
-0.010
0.063
0.065
0.044
0.061
-0.091
-0.027
0.073
0.009
0.016
-0.017
-0.046
0.096
-0.089
0.095
0.040
-0.038
-0.063
0.020
-0.028
0.039
0.056
0.062
0.048
0.001
0.089
-0.174
0.227
-0.114
-0.008
0.122
-0.063
0.013
0.047
0.073
-0.093
-0.066
-1.001
-0.283
0.485
0.584
0.210
-0.100
-0.166
-0.175
-0.078
-0.103
0.080
0.100
0.137
0.093
0.159
0.244
0.051
0.073
0.126
0.147
-0.002
-0.080
-0.035
-0.078
-0.112
-0.035
0.110
0.095
0.085
-0.042
-0.013
-0.090
-0.028
0.112
-0.054
0.028
0.091
0.171
-0.062
-0.087
0.010
-0.023
0.040
-0.037
-0.029
-0.021
0.186
0.012
-0.016
-0.084
0.122
-0.001
0.132
0.024
0.025
-0.003
0.106
-0.031
0.008
0.084
0.022
0.069
-0.046
-0.106
0.147
0.158
0.015
-0.005
0.061
0.103
0.130
-0.023
-0.030
0.047
0.058
0.036
0.106
0.079
0.117
0.051
0.010
0.092
0.072
-0.065
0.016
0.063
0.005
0.073
-0.023
0.024
0.011
-0.106
-1.113
-3.406
-4.088
-4.180
-4.078
-3.722
-3.004
2.920
4.683
4.521
-0.969
-3.141
-3.752
-2.595
2.175
4.286
4.781
4.747
4.559
4.320
4.073
3.828
3.596
2.561
0.078
-2.417
-4.259
-5.011
-5.049
-4.596
-3.728
-2.808
-1.880
-0.994
-0.019
0.406
0.748
0.730
0.633
0.589
0.573
0.700
1.506
1.445
0.596
0.079
-0.074
-0.068
0.185
0.338
0.682
0.664
0.644
0.546
0.342
0.140
0.056
0.056
0.093
-0.226
-0.198
-0.165
-0.002
0.246
0.186
0.172
0.265
0.397
0.504
0.444
0.404
0.462
0.539
0.387
0.470
0.404
0.353
0.332
0.375
0.244
0.319
0.372
0.234
0.188
0.311
0.154
0.094
0.111
0.242
0.046
-0.034
-0.000
0.008
-0.037
-0.136
-0.036
-0.125
-0.027
-0.115
-0.142
-0.200
-0.311
-0.284
-0.149
-0.181
-0.317
-0.124
-0.253
-0.198
-0.257
-0.265
-0.152
-0.281
-0.184
-0.210
-0.233
-0.254
-0.214
-0.078
-0.053
-0.044
-0.317
-0.159
-0.287
-0.081
-0.076
-0.076
-0.079
-0.078
-0.041
-0.071
-0.041
-0.060
-0.060
0.018
0.055
-0.067
-0.002
-0.030
-0.006
0.010
-0.001
0.011
0.012
0.051
-0.120
0.023
-0.037
0.043
0.062
0.056
-0.022
0.052
0.094
0.052
-0.034
0.123
-0.082
-0.128
0.005
0.039
-0.000
-0.003
0.042
-0.023
0.048
0.002
-0.034
0.015
-0.007
0.176
-0.003
-0.054
0.114
0.038
0.043
0.016
0.184
0.068
0.008
0.013
-0.024
-0.032
0.084
0.057
0.136
0.171
0.067
-0.011
0.002
-0.060
0.071
0.136
0.077
0.046
0.088
0.087
0.023
0.116
0.046
0.023
0.086
-0.073
0.136
0.104
-0.012
0.011
-0.081
0.133
0.020
0.005
0.043
0.021
0.075
-0.005
-0.149
-0.085
0.137
-0.119
-0.085
-0.009
0.114
-0.100
-0.140
-0.042
0.001
0.001
-0.060
0.011
-0.132
0.003
0.030
-0.052
0.026
-0.192
-0.069
-0.064
-0.027
-0.076
-0.059
-0.056
-0.082
-0.143
0.121
-0.081
0.039
-0.087
-0.057
-0.034
-0.026
-0.042
0.078
0.014
0.034
-0.050
0.007
0.014
0.006
-0.012
0.036
-0.109
0.088
0.224
-0.071
0.090
0.089
0.018
0.012
0.024
0.047
0.143
0.018
0.097
0.083
0.138
0.052
0.027
0.070
0.242
0.080
0.097
-0.013
0.088
0.206
0.024
0.006
0.035
0.104
-0.006
-0.066
-0.028
-0.048
0.038
0.081
0.038
-0.069
-0.029
0.082
0.122
0.005
-0.063
0.146
-0.101
-0.035
0.111
-0.098
-0.094
-0.021
-0.071
-0.091
-0.051
0.033
-0.011
-0.157
-0.026
0.019
0.044
0.109
0.039
0.030
-0.149
-0.084
-0.055
0.035
-0.014
-0.005
0.056
-0.064
0.092
0.000
-0.134
-0.058
0.034
-0.124
0.019
0.147
0.009
-0.004
-0.008
-0.067
-0.072
-0.016
0.018
0.038
0.069
0.074
0.005
0.020
-0.021
0.019
0.090
0.053
0.007
0.093
0.059
-0.146
-0.123
-0.034
0.103
-0.825
-1.507
-2.464
-0.966
2.328
2.403
1.322
0.140
-0.513
-0.652
-0.492
0.139
0.428
0.713
0.933
0.822
0.672
0.532
0.428
0.347
-0.004
-0.136
-0.256
-0.553
-0.360
-0.522
-0.339
-2.278
-1.032
2.862
3.997
2.936
-1.699
-2.592
2.236
3.680
3.676
0.330
-2.627
-0.491
0.873
0.649
-0.898
-3.682
0.243
3.155
4.003
3.043
0.761
-3.227
-4.339
-4.529
-4.412
-0.918
3.255
4.507
4.614
3.948
1.306
-0.232
-0.166
0.038
0.961
2.324
3.470
3.798
3.555
2.950
2.161
1.335
0.576
0.036
-0.331
-0.738
-0.888
-0.771
-0.556
-0.215
-0.181
-0.129
0.006
0.301
0.635
0.521
0.546
0.328
1.058
1.450
1.291
0.821
0.571
0.616
0.718
0.865
1.008
0.873
0.806
0.845
0.684
0.748
0.549
0.349
0.262
0.210
0.220
0.358
0.256
0.341
0.250
0.321
0.246
0.399
0.352
0.319
0.284
0.093
0.224
0.142
0.138
0.220
0.037
0.116
0.065
0.003
-0.002
-0.030
-0.128
-0.122
-0.164
-0.280
-0.050
-0.100
-0.134
-0.130
-0.222
-0.314
-0.317
-0.194
-0.092
-0.222
-0.237
-0.321
-0.311
-0.296
-0.324
-0.342
-0.179
-0.346
-0.173
-0.091
-0.370
-0.255
-0.194
-0.238
-0.209
-0.174
-0.272
-0.168
-0.051
-0.199
-0.236
-0.017
-0.047
-0.214
-0.034
-0.102
0.069
-0.075
0.006
-0.049
-0.013
0.189
0.134
0.025
0.105
0.051
0.094
-0.125
0.117
0.034
0.120
0.088
0.158
-0.007
-0.005
0.016
0.025
0.076
0.277
0.127
0.106
0.131
0.027
0.096
0.059
0.087
0.111
0.153
0.044
0.159
0.143
0.099
0.008
0.078
0.151
0.055
0.092
0.054
-0.008
0.182
0.122
0.033
0.155
-0.007
-0.054
0.022
0.095
0.043
0.073
-0.024
-0.032
-0.069
0.115
-0.026
0.022
-0.038
-0.045
0.131
0.156
-0.067
0.016
-0.037
0.084
0.008
0.033
-0.079
-0.026
-0.184
-0.077
0.075
0.005
-0.021
0.037
-0.059
-0.062
-0.172
-0.030
-0.089
0.116
0.070
0.038
-0.168
-0.071
0.047
0.036
-0.212
-0.020
-0.059
-0.094
-0.036
-0.207
-0.696
-0.314
-2.149
-2.240
-0.659
1.467
2.198
1.136
0.205
-0.456
-0.645
-0.355
0.061
0.324
0.625
0.899
0.969
0.883
0.520
0.414
0.096
0.079
-0.115
-0.399
-0.363
-0.373
-0.287
-0.309
-0.340
-0.250
-0.158
-0.014
-0.048
0.068
-0.022
0.117
0.111
-0.062
-0.052
0.074
0.030
-0.001
0.013
0.075
-0.025
0.005
0.090
0.151
0.076
0.149
0.021
0.183
0.029
0.113
0.145
0.202
0.167
0.110
-0.015
0.208
0.142
0.118
0.133
0.146
0.044
0.118
0.039
0.238
0.017
0.028
-0.060
0.018
0.129
0.027
0.065
0.019
0.026
0.032
0.054
-0.129
-0.083
-0.046
-0.031
0.048
0.042
-0.073
-0.088
-0.081
-0.005
-0.125
-0.048
-0.040
-0.024
-0.125
0.009
-0.014
-0.115
-0.160
0.076
0.072
-0.042
-0.101
-0.101
-0.114
0.059
-0.096
0.039
-0.014
-0.049
-0.042
0.057
-0.091
0.043
0.100
0.029
0.032
0.089
-0.040
0.075
0.147
0.002
0.048
0.017
0.064
0.060
0.151
0.042
0.094
-0.000
0.061
0.056
0.006
-0.017
0.004
0.064
0.100
0.035
0.001
0.004
0.043
-0.057
0.080
0.074
0.059
0.087
-0.020
0.115
0.044
0.027
0.054
-0.130
0.119
0.096
0.015
-0.001
0.062
0.044
-0.012
0.123
-0.043
-0.066
0.049
-0.155
-0.049
0.002
-0.010
0.122
0.059
0.081
0.014
0.005
-0.046
-0.039
0.018
0.085
-0.056
0.052
0.077
0.073
-0.093
0.030
-0.125
0.003
0.175
0.022
-0.066
0.005
0.203
-0.040
0.074
-0.065
0.085
-0.099
0.086
-0.008
0.065
-0.053
0.084
0.129
-0.037
0.059
0.003
-0.080
0.001
-0.046
0.008
-0.057
0.054
0.099
-0.009
0.104
0.001
-0.026
-0.038
-0.058
0.015
-0.012
-0.012
0.170
0.044
-0.043
-0.101
0.033
0.063
0.136
-0.150
0.007
-0.162
0.015
0.087
-0.067
0.102
0.072
-0.054
0.040
-0.067
0.040
-0.073
0.030
0.199
-0.066
0.011
0.005
0.008
0.049
0.026
0.125
-0.020
0.109
0.043
0.028
-0.031
-0.092
-0.077
0.053
0.183
0.034
0.022
-0.080
-0.050
0.078
0.031
0.045
0.028
0.001
0.076
-0.015
-0.094
-0.010
0.090
0.020
0.039
-0.007
-0.012
-0.062
0.084
0.116
-0.001
-0.023
-0.003
0.015
0.072
0.102
-0.033
-0.010
0.077
0.037
0.037
0.021
0.076
0.042
0.130
-0.060
0.119
-0.057
0.008
0.064
0.105
-0.001
-0.087
0.030
0.181
-0.151
-0.004
-0.058
0.011
-0.010
0.022
-0.029
0.121
0.007
-0.043
0.093
-0.056
0.102
0.079
-0.036
0.018
0.010
-0.014
0.014
-0.147
0.036
0.123
0.154
-0.019
0.029
0.035
0.111
-0.086
-0.012
0.054
0.094
-0.009
0.186
0.005
0.098
0.021
-0.046
0.059
-0.025
-0.058
-0.055
0.084
0.126
0.005
-0.106
0.073
0.074
0.042
0.089
-0.127
0.096
0.141
0.024
0.014
-0.056
-0.011
-0.048
0.136
0.113
0.097
-0.120
-0.119
0.128
0.073
0.007
0.111
0.063
0.016
-0.085
-0.021
0.019
0.072
0.102
0.030
0.004
0.034
0.010
0.106
-0.115
0.008
0.026
0.034
0.023
0.034
-0.027
-0.033
0.039
0.125
-0.002
0.065
-0.164
0.041
0.022
0.077
0.091
0.021
-0.010
0.058
0.004
-0.005
0.007
0.071
-0.041
0.036
-0.052
0.025
0.131
0.074
0.001
0.101
-0.088
-0.067
-0.069
0.068
0.027
0.003
0.078
0.059
0.022
0.076
-0.047
-0.056
-0.049
0.061
0.133
0.002
-0.049
0.032
0.025
0.031
-0.059
-0.003
-0.014
0.097
-0.014
0.013
0.086
-0.025
0.083
0.028
-0.052
-0.004
0.045
0.012
0.039
-0.009
0.078
0.041
-0.012
0.028
-0.010
0.015
0.006
0.016
0.000
0.007
0.086
0.004
0.131
-0.078
0.035
-0.012
0.020
-0.009
-0.061
-0.026
0.103
0.002
0.012
0.124
0.053
-0.077
-0.130
0.004
0.154
-0.001
-0.040
0.128
-0.001
0.081
-0.027
0.055
-0.013
0.011
-0.007
0.057
0.045
-0.041
0.063
0.002
0.023
-0.035
-0.056
-0.054
-0.042
0.010
0.009
0.047
0.087
-0.015
0.135
-0.039
-0.053
-0.124
0.053
0.052
0.098
0.113
0.003
-0.037
-0.063
-0.029
0.080
-0.037
0.096
0.123
0.028
-0.031
-0.167
0.042
0.078
-0.001
0.012
0.127
-0.017
-0.112
0.045
0.042
0.016
-0.029
0.119
-0.019
-0.111
0.030
0.051
-0.026
-0.028
-0.001
0.054
-0.057
-0.035
0.027
0.072
0.001
0.080
0.117
0.037
-0.010
0.056
-0.068
0.041
-0.086
-0.035
0.142
0.127
0.061
-0.004
0.016
-0.041
0.012
0.081
0.015
0.072
-0.015
0.005
0.021
0.060
0.088
0.094
0.050
-0.056
0.036
0.011
-0.007
0.069
0.001
-0.032
-0.033
-0.066
-0.098
0.004
0.011
0.053
0.008
0.083
-0.051
-0.063
0.082
0.139
0.163
-0.050
-0.033
-0.021
0.049
-0.003
0.073
0.116
0.052
-0.028
0.036
-0.060
0.095
0.135
0.038
-0.036
-0.005
0.077
0.072
-0.058
0.099
0.166
-0.016
-0.050
-0.102
0.053
0.169
-0.006
-0.002
-0.080
0.067
0.151
-0.028
-0.028
-0.066
0.075
0.023
0.035
-0.019
-0.116
0.142
0.069
0.081
0.022
0.042
0.032
-0.007
-0.090
0.093
0.052
0.000
-0.127
0.019
0.035
0.175
-0.014
-0.002
0.026
-0.036
-0.056
0.037
0.083
0.079
-0.043
-0.092
0.083
0.026
0.047
-0.038
0.192
0.047
-0.020
-0.038
0.092
0.017
0.097
0.133
0.018
-0.063
-0.042
0.002
0.143
0.075
-0.040
-0.012
-0.012
-0.056
0.061
0.087
0.006
0.064
-0.060
0.029
0.025
0.027
-0.079
0.048
-0.037
0.056
0.046
0.000
0.113
-0.019
-0.118
0.099
0.024
-0.053
0.068
-0.044
0.189
-0.123
-0.145
0.130
0.037
0.026
0.069
0.009
-0.035
0.001
-0.047
0.082
-0.064
-0.004
-0.081
0.008
0.134
-0.026
0.010
-0.068
0.128
0.020
0.095
-0.028
0.037
0.062
0.050
0.047
0.114
0.080
0.015
-0.045
-0.051
0.061
0.076
0.112
0.014
-0.004
-0.037
-0.137
-0.042
0.033
0.004
0.131
-0.019
0.015
0.046
0.043
-0.011
0.064
0.076
0.037
-0.023
-0.102
0.112
-0.002
-0.027
0.077
0.044
0.079
0.006
0.109
0.094
-0.049
-0.117
0.120
0.125
0.010
0.056
-0.081
0.027
-0.062
0.072
0.037
0.062
-0.071
0.135
0.166
-0.059
0.022
-0.063
0.053
0.190
-0.064
-0.056
0.041
0.027
-0.007
-0.042
0.029
-0.009
-0.062
0.053
0.159
0.092
0.022
0.017
-0.069
-0.006
-0.013
0.104
0.052
0.063
0.023
-0.006
0.071
0.015
-0.061
0.207
0.016
0.018
0.021
-0.051
0.054
-0.010
0.090
0.077
-0.018
-0.013
-0.017
-0.049
0.082
-0.022
-0.073
-0.021
0.083
-0.023
0.013
0.006
0.100
-0.032
-0.002
-0.103
0.002
-0.026
0.124
0.122
-0.024
-0.093
-0.122
0.012
0.233
0.005
0.095
-0.068
0.053
-0.006
0.026
0.015
0.041
-0.050
0.069
-0.084
0.016
-0.002
0.015
0.072
0.145
-0.001
-0.082
0.140
-0.001
-0.040
-0.009
0.000
-0.023
0.093
0.039
0.075
0.106
-0.052
-0.054
0.053
-0.066
0.049
-0.015
-0.006
0.083
-0.043
0.007
-0.048
-0.005
-0.059
-0.011
-0.120
0.030
0.106
0.131
0.029
0.072
0.012
0.074
0.010
-0.044
0.140
-0.039
0.003
0.020
0.061
-0.040
0.060
-0.010
0.083
0.061
0.008
-0.069
-0.008
-0.026
0.019
0.074
0.003
0.037
0.075
0.039
-0.057
0.040
0.072
-0.030
-0.152
0.029
0.265
-0.087
-0.005
0.009
0.064
0.014
-0.055
-0.026
-0.044
-0.038
0.046
0.016
-0.057
0.120
0.081
0.059
-0.082
0.057
-0.034
0.020
0.011
0.033
0.139
0.082
0.034
-0.170
0.093
0.130
-0.069
-0.078
0.059
0.032
-0.007
0.008
0.052
0.090
-0.054
-0.038
-0.032
-0.034
0.011
0.086
0.023
0.022
0.078
-0.037
-0.046
0.062
-0.009
0.039
0.053
-0.038
0.021
-0.077
-0.083
0.109
0.083
0.059
-0.023
0.047
-0.150
0.055
0.072
-0.023
0.136
0.005
0.012
-0.027
0.044
0.039
-0.057
-0.018
-0.021
0.079
0.004
0.078
0.101
0.180
-0.045
-0.162
0.068
0.101
-0.006
0.023
-0.023
0.022
-0.011
-0.028
0.029
-0.013
-0.023
-0.027
0.075
0.125
0.031
0.026
-0.015
-0.014
-0.010
-0.010
0.020
0.120
0.035
0.000
0.060
0.071
0.001
0.019
-0.054
-0.027
0.181
0.001
0.087
0.015
-0.008
0.012
0.044
0.018
0.026
0.035
-0.086
0.039
-0.070
0.071
0.144
0.174
0.033
0.026
0.056
-0.065
-0.038
-0.035
0.027
-0.009
0.033
0.005
0.034
-0.036
-0.024
-0.019
-1.093
-2.066
-2.242
-1.435
-0.569
-2.455
-1.646
3.006
1.960
1.378
-0.174
-1.367
-1.947
-1.998
-2.528
-0.542
0.643
1.205
2.153
2.385
2.072
1.340
0.892
0.604
0.242
-0.726
-0.308
-0.021
0.020
0.031
0.141
0.086
0.346
-0.515
0.344
0.803
0.157
-2.967
1.573
3.218
2.424
0.762
-0.484
-0.851
-0.530
-0.248
0.350
0.792
0.838
0.590
0.641
0.373
0.041
-0.230
-0.546
-0.777
-0.757
-0.544
-0.509
-0.475
-0.329
0.002
0.165
0.347
0.391
0.548
0.558
0.721
0.711
0.726
0.728
0.735
0.614
0.759
0.780
0.710
0.749
0.265
0.820
1.063
0.848
0.681
0.616
0.687
0.640
0.493
0.553
0.547
0.573
0.517
0.435
0.374
0.356
0.230
0.239
0.169
0.039
-0.016
-0.013
-0.140
-0.069
-0.167
-0.151
-0.247
-0.272
-0.297
-0.143
-0.360
-0.273
-0.360
-0.217
-0.456
-0.363
-0.340
-0.428
-0.258
-0.388
-0.337
-0.399
-0.292
-0.403
-0.269
-0.191
-0.274
-0.195
-0.305
-0.163
-0.214
-0.216
-0.194
-0.120
0.005
-0.138
-0.029
-0.112
-0.027
-0.119
0.024
0.016
0.039
0.051
-0.002
0.043
-0.096
0.153
0.132
0.073
0.112
-0.031
0.171
0.110
0.033
0.067
0.165
0.047
0.125
-0.002
0.184
-0.037
-0.047
0.076
0.041
0.163
0.082
0.086
-0.065
0.081
-0.098
0.099
0.142
0.170
-0.050
0.116
0.091
-0.066
0.050
0.052
0.078
0.041
-0.103
-0.014
-0.036
0.050
0.108
0.172
-0.063
-0.096
0.161
0.003
0.086
0.152
0.212
0.165
0.008
0.011
0.067
0.107
0.084
0.039
0.191
0.117
0.138
-0.025
0.040
0.152
-0.005
0.194
0.104
-0.063
-0.021
0.198
0.072
-0.032
0.127
0.040
-0.101
0.025
0.022
0.002
0.008
-0.173
0.028
0.068
-0.102
-0.004
0.073
-0.004
-0.135
-0.086
-0.002
-0.171
-0.055
-0.043
-0.010
-0.045
-0.137
-0.104
-0.078
-0.043
-0.104
-0.009
-0.137
-0.072
-0.193
-0.148
-0.000
0.066
-0.108
-0.063
-0.072
-0.016
-0.019
-0.093
0.019
-0.070
-0.017
-0.039
0.004
0.054
-0.096
0.015
0.171
-0.009
0.066
0.019
-0.148
-0.053
0.053
0.052
0.056
0.119
0.046
0.011
0.126
0.116
0.171
0.201
0.154
0.007
0.109
0.242
0.061
0.003
0.125
0.181
0.171
0.088
-0.052
0.057
0.142
-0.001
0.054
0.157
0.099
0.093
0.016
-0.056
0.126
0.018
0.095
0.038
-0.011
0.066
-0.085
0.034
0.054
-0.001
-0.086
-0.010
-0.109
0.061
-0.109
-0.061
0.051
-0.133
-0.029
-0.065
0.022
-0.010
-0.037
-0.005
-0.125
-0.105
-0.183
0.132
0.018
0.003
-0.090
-0.077
-0.132
0.046
-0.005
-0.019
0.025
0.010
0.153
-0.067
-0.122
-0.035
-0.018
0.027
0.000
-0.074
0.023
0.018
0.004
0.007
-0.014
0.065
0.017
-0.036
0.051
0.084
0.106
0.009
0.149
0.039
0.074
-0.055
0.080
0.003
0.163
0.111
0.035
0.024
0.018
0.065
0.087
-0.034
0.144
0.009
0.001
0.143
0.061
0.071
-0.037
0.048
0.020
0.004
0.046
-0.004
0.036
0.066
0.007
0.144
-0.002
-0.024
0.157
0.051
-0.016
-0.040
0.045
-0.048
-0.077
-0.067
0.096
0.071
0.062
0.002
-0.062
-0.133
0.005
0.052
0.007
0.102
-0.043
-0.039
-0.033
0.088
0.088
0.055
-0.045
-0.083
0.016
-0.043
-0.021
0.134
-0.005
-0.132
0.047
-0.001
-0.006
-0.006
0.007
0.025
0.011
-0.086
0.040
-0.038
0.006
-0.014
0.063
-0.082
-0.008
0.025
0.002
0.076
0.046
0.032
0.007
-0.025
0.113
-0.052
-0.090
0.171
0.030
0.015
0.061
0.027
0.073
-0.033
-0.004
0.054
0.062
0.002
0.029
0.074
-0.079
0.107
0.036
0.018
0.078
-0.034
0.101
0.067
0.018
0.021
0.066
-0.002
-0.048
0.117
0.044
-0.024
-0.013
0.085
0.075
0.060
0.099
-0.083
0.067
0.002
0.033
-0.041
-0.018
0.062
-0.046
0.156
0.017
0.051
-0.085
-0.025
0.088
0.089
0.089
0.035
-0.086
0.115
0.074
-0.039
0.089
-0.060
0.082
0.090
0.021
-0.051
-0.045
0.049
0.044
0.027
0.000
-0.032
0.067
0.129
0.006
0.079
0.054
-0.040
0.039
0.045
-0.009
-0.032
0.075
-0.039
-0.050
-0.058
0.026
-0.071
0.033
0.134
-0.011
-0.015
-0.034
0.005
0.015
0.004
0.058
-0.061
0.148
-0.010
0.057
-0.030
-0.053
0.090
0.032
-0.020
0.068
-0.037
0.027
0.014
0.068
0.016
-0.001
-0.066
0.142
0.093
0.023
-0.020
0.023
-0.026
0.037
-0.047
0.060
-0.013
-0.008
-0.036
0.124
-0.052
0.036
0.237
-0.053
0.055
0.024
0.078
0.060
0.037
0.155
0.055
0.010
0.022
-0.085
-0.020
0.064
-0.036
-0.030
0.126
0.030
0.025
0.064
-0.098
0.036
0.057
-0.028
0.004
0.101
0.066
0.069
0.053
0.068
0.012
-0.082
0.078
0.091
0.050
0.029
-0.034
0.075
0.014
-0.016
-0.017
0.074
-0.009
-0.062
0.028
0.078
-0.112
0.030
0.051
-0.004
-0.005
0.065
0.098
-0.130
-0.033
0.030
0.045
0.079
0.034
0.028
0.082
0.007
0.008
-0.113
0.063
-0.041
0.005
0.008
0.111
0.097
0.022
0.034
0.095
-0.137
-0.063
0.074
0.098
0.053
0.008
-0.027
0.077
0.061
0.006
0.041
-0.086
-0.033
0.030
0.034
-0.002
-0.031
0.146
0.086
-0.103
0.024
-0.038
0.067
0.048
0.040
-0.039
0.124
0.068
-0.025
0.032
0.015
-0.021
0.043
0.011
-0.015
0.136
0.041
-0.049
0.085
0.009
-0.011
-0.011
0.068
-0.074
0.083
0.029
-0.089
0.187
-0.032
0.048
0.043
-0.074
-0.061
0.033
0.015
0.064
-0.010
-0.072
-0.004
0.061
0.138
-0.023
0.054
-0.018
0.104
-0.006
0.063
0.058
0.083
-0.026
-0.034
0.043
0.054
0.000
-0.027
0.009
0.045
0.040
-0.032
0.007
-0.106
0.013
0.099
0.052
-0.027
0.051
0.027
0.027
0.015
0.093
-0.019
0.114
0.061
-0.053
0.051
0.057
-0.029
0.048
-0.064
0.072
0.093
0.059
0.095
0.010
-0.047
-0.136
-0.053
-0.031
0.139
0.020
-0.030
0.064
0.096
-0.060
-0.005
0.021
0.048
0.015
-0.113
-0.067
0.132
0.061
0.098
-0.081
-0.101
-0.039
0.143
0.127
0.025
0.047
0.015
0.035
0.001
0.130
0.083
0.093
-0.062
-0.028
-0.009
0.122
0.114
-0.015
0.127
0.030
0.146
0.009
-0.158
0.049
-0.098
0.129
0.046
-0.003
-0.068
0.012
0.061
-0.073
0.113
0.001
-0.000
0.129
0.002
0.065
0.069
0.005
-0.094
0.054
0.091
0.042
0.103
-0.057
0.026
-0.010
-0.036
-0.044
-0.047
0.087
0.080
0.073
0.061
-0.032
-0.066
0.098
0.012
0.086
0.032
0.016
-0.003
0.052
-0.042
0.028
0.060
0.077
-0.002
0.107
-0.000
-0.024
-0.033
0.025
0.151
0.032
0.001
-0.016
0.091
0.018
0.075
0.042
-0.002
-0.115
0.121
-0.078
0.003
0.072
0.010
0.012
-0.092
-0.067
0.076
-0.034
0.166
0.075
-0.005
-0.100
0.018
0.113
0.090
0.050
-0.024
0.010
0.086
0.031
0.091
-0.022
-0.055
0.034
0.012
-0.081
-0.019
0.077
-0.059
-2.458
-2.724
2.479
4.042
4.131
0.784
-2.268
-3.412
-2.814
-1.385
0.250
1.701
2.741
3.332
3.138
2.628
1.976
1.274
0.375
-0.287
-0.725
-1.214
-1.370
-1.165
-1.200
-0.798
-0.704
-0.480
-0.216
-0.160
0.156
0.076
0.285
0.269
0.343
0.221
0.144
0.256
0.274
0.209
0.221
0.094
0.483
0.413
0.144
0.351
0.368
0.320
0.361
0.339
0.370
0.339
0.352
0.398
0.300
0.287
0.322
0.297
0.215
0.134
0.234
0.198
0.209
0.291
0.322
0.151
0.140
0.044
-0.182
-0.051
0.128
0.134
0.103
-0.089
-0.090
0.009
0.075
-0.256
-0.105
-0.121
-0.138
-0.087
-0.079
-0.039
-0.075
-0.189
-0.088
-0.152
-0.087
-0.181
-0.113
-0.235
-0.129
-0.095
-0.139
-0.145
-0.055
-0.181
-0.153
-0.068
-0.037
-0.024
-0.037
-0.014
-0.081
0.028
-0.028
-0.023
-0.142
0.006
0.084
0.033
0.037
-0.013
0.101
0.066
0.003
0.032
0.035
0.094
0.075
0.045
0.072
0.036
0.045
0.061
0.122
0.044
0.111
0.075
0.124
0.089
-0.001
0.140
0.096
-0.091
-0.000
0.099
0.110
0.070
-0.038
-0.037
0.022
0.076
0.082
0.092
-0.028
0.000
-0.019
0.021
0.038
0.050
-0.008
0.078
0.116
-0.072
-0.082
0.062
0.076
0.144
0.054
-0.033
0.032
0.096
0.092
-0.013
-0.066
0.028
-0.051
0.187
-0.049
0.032
-0.001
0.026
0.136
0.057
0.031
0.044
0.015
0.086
-0.104
0.144
0.043
0.051
0.003
0.053
0.045
0.078
0.044
-0.041
-0.015
0.108
0.024
-0.052
0.078
0.108
-0.122
-0.020
0.008
0.017
-0.034
0.057
0.079
-0.154
-0.013
-0.006
-0.018
0.038
0.012
-0.018
-0.051
-0.071
-0.098
0.027
-0.103
0.059
0.105
-0.064
0.008
-0.014
0.089
-0.050
-0.034
0.041
-0.103
-0.075
0.107
0.059
0.051
-0.044
0.043
0.035
0.022
-0.077
0.090
-0.025
0.124
-0.052
0.115
0.037
-0.008
0.007
0.077
0.100
-0.001
-0.025
-0.004
0.069
0.048
0.098
0.071
-0.023
-0.029
0.062
0.063
0.078
0.134
0.066
0.121
-0.083
0.066
0.016
0.112
0.034
0.148
0.094
-0.135
-0.131
0.112
-0.021
0.008
0.125
0.021
0.118
0.048
0.014
-0.075
-0.050
0.117
0.078
-0.059
-0.056
-0.002
-0.042
0.086
0.012
0.026
0.006
-0.040
0.007
-0.026
0.048
0.049
0.023
0.056
-0.071
-0.009
-0.013
0.047
0.009
0.023
0.000
-0.049
-0.113
0.081
-0.010
-0.058
-0.034
-0.053
-0.125
0.094
0.105
0.049
0.025
-0.118
0.038
-0.038
0.049
-0.057
0.083
0.043
0.008
0.006
0.098
0.003
-0.032
0.112
0.006
-0.043
0.011
0.123
0.069
-0.060
0.078
-0.011
-0.056
0.069
0.085
-0.081
-0.069
0.081
0.121
-0.040
0.142
-0.083
0.028
-0.005
0.050
0.132
-0.010
0.020
-0.071
0.042
-0.013
-0.114
-0.006
0.067
0.100
0.132
-0.045
-0.070
0.133
-0.068
-0.040
0.121
-0.080
-0.012
-0.044
0.026
0.003
0.037
0.034
-0.020
0.135
0.051
-0.163
-0.096
0.011
0.092
-0.010
0.003
0.034
0.116
-0.041
-0.043
-0.043
0.022
-0.050
-0.082
-0.032
0.061
0.077
0.110
0.033
-0.031
0.056
0.043
-0.022
0.063
-0.011
-0.015
0.068
0.107
-0.078
0.041
0.003
0.145
0.045
0.026
-0.025
-0.012
-0.047
-0.067
0.084
0.044
0.052
0.054
-0.001
0.095
0.047
-0.110
0.003
-0.044
0.199
-0.055
0.145
-0.070
0.055
0.126
0.057
-0.145
0.027
0.110
0.188
-0.015
-0.029
0.057
-0.030
0.067
0.108
0.070
-0.015
-0.038
0.038
0.114
-0.005
0.015
0.038
-0.081
0.185
0.119
0.032
0.025
-0.079
0.083
-0.038
0.218
-0.015
-0.099
0.012
0.084
0.058
-0.055
-0.084
0.070
0.117
-0.029
0.016
0.107
0.022
-0.061
0.026
0.040
0.065
0.008
-0.002
0.067
0.136
0.028
0.075
-0.047
-0.121
0.044
0.185
0.055
0.102
-0.178
-2.851
-2.101
2.660
4.093
3.547
1.210
-1.263
-1.820
-1.740
-1.019
-0.039
1.025
1.588
2.048
2.069
1.824
1.394
0.986
0.413
-0.106
-0.475
-0.793
-0.948
-0.861
-0.859
-0.737
-0.593
-0.225
-0.180
-0.002
0.080
0.113
0.195
0.223
0.268
0.258
0.357
0.273
0.202
0.213
0.172
0.247
0.408
0.362
0.258
0.355
-0.037
0.139
0.465
0.488
0.479
0.494
0.266
0.214
0.270
0.234
0.281
0.296
0.277
0.172
0.261
0.132
0.151
-0.138
0.017
0.265
0.221
0.099
0.063
-0.072
-0.071
-0.051
-0.115
-0.137
0.087
0.044
-0.168
-0.051
0.075
-0.247
-0.043
-0.390
-1.092
-3.514
-4.238
-4.331
1.520
3.863
3.858
-1.870
-3.729
-4.198
-1.232
3.062
4.287
4.514
-0.227
-2.372
1.033
3.358
3.973
4.033
3.908
3.640
1.677
-1.455
-4.131
-4.801
-4.117
-3.834
-2.246
-0.381
1.023
2.167
3.164
3.593
3.555
3.163
2.300
1.649
0.694
0.399
-0.380
-0.651
-0.508
-0.428
-0.429
-0.442
1.207
2.496
1.893
0.914
0.442
-0.218
-0.102
0.496
1.300
0.823
1.133
2.547
2.243
1.167
0.396
-0.056
-0.362
-0.098
-0.041
0.446
0.860
1.086
1.230
1.235
1.157
1.264
1.108
0.857
0.683
0.652
0.735
0.617
0.578
0.607
0.728
0.565
0.758
0.632
0.621
0.622
0.540
0.442
0.556
0.334
0.233
0.359
0.342
0.204
0.070
-0.028
0.069
-0.155
-0.005
-0.200
-0.084
-0.111
-0.260
-0.203
-0.311
-0.332
-0.359
-0.350
-0.481
-0.254
-0.328
-0.457
-0.489
-0.434
-0.378
-0.380
-0.466
-0.424
-0.501
-0.338
-0.412
-0.414
-0.388
-0.356
-0.517
-0.281
-0.326
-0.438
-0.370
-0.295
-0.138
-0.300
-0.223
-0.192
-0.213
-0.181
-0.231
-0.240
-0.131
-0.008
-0.099
-0.051
-0.043
0.015
-0.166
0.079
0.104
0.098
0.007
0.025
0.174
-0.013
0.126
0.111
0.105
0.139
0.070
0.139
0.068
0.150
0.081
0.194
0.172
0.095
0.131
0.184
0.078
0.155
0.121
0.268
0.092
0.206
0.113
0.117
-0.006
0.251
0.196
0.089
0.105
0.178
0.031
0.161
0.145
0.146
0.145
0.082
0.103
0.019
0.137
-0.034
0.028
0.104
0.110
0.049
-0.014
-0.003
0.168
0.146
0.059
0.031
0.127
0.039
-0.008
-0.005
0.017
0.057
-0.061
-0.055
-0.052
-0.020
-0.006
0.017
-0.024
-0.105
0.064
-0.078
-0.229
-0.024
0.110
-0.203
-0.111
-0.007
-0.161
-0.075
-0.087
-0.081
-0.021
-0.222
-0.018
-0.150
-0.179
-0.022
-0.111
-0.061
-0.134
-0.107
-0.010
-0.069
-0.106
-0.056
0.014
-0.041
-0.097
-0.058
-0.124
-0.058
-0.059
-0.136
-0.068
-0.017
0.014
0.040
-0.062
-0.074
-0.053
0.011
0.044
0.023
0.042
0.199
0.118
-0.079
-0.047
0.162
0.269
-0.060
-0.025
0.040
0.126
0.188
0.082
0.087
0.256
0.025
0.214
0.055
-0.053
0.076
0.207
0.111
0.136
0.125
0.009
0.083
0.137
0.104
0.022
0.114
0.137
0.017
0.092
0.089
0.037
0.045
-0.024
0.104
0.088
0.025
-0.026
-0.007
0.051
-0.123
0.056
-0.171
0.042
-0.100
-0.122
0.005
-0.006
-0.076
-0.025
0.073
-0.157
-0.141
-0.029
0.014
-0.139
-0.108
-0.067
-0.097
-0.091
-0.050
-0.085
-0.103
-0.027
0.069
-0.034
-0.111
-0.064
-0.130
0.062
-0.047
-0.028
0.023
-0.012
-0.016
-0.186
-0.029
0.028
0.002
0.061
0.171
-0.050
-0.018
0.023
0.052
-0.055
0.065
0.071
0.048
0.083
0.149
-0.098
0.085
0.048
-0.033
-0.000
0.083
0.079
0.072
0.132
0.222
-0.053
-0.010
0.094
0.034
0.051
0.119
0.025
0.046
0.116
0.046
0.150
0.113
-0.030
-0.087
0.183
0.065
0.033
0.037
-0.039
0.013
0.039
-0.052
0.093
0.117
0.044
0.026
-0.042
0.000
-0.032
-0.080
0.005
0.228
-0.019
-0.004
0.030
0.003
-0.060
-0.101
0.069
-0.061
0.102
-0.003
-0.096
-0.052
0.080
0.009
-0.108
0.026
-0.101
-0.096
0.038
0.006
-0.017
-0.014
-0.096
0.032
0.039
0.054
-0.070
-0.084
0.039
0.015
-0.094
-0.035
-0.001
0.106
0.018
-0.138
0.114
0.043
0.054
-0.133
0.116
0.008
-0.011
0.161
0.014
0.044
-0.028
-0.005
0.069
0.075
-0.020
0.016
-0.096
0.019
-0.014
-0.023
0.033
-0.031
-0.005
0.153
-0.021
0.024
0.055
-0.058
0.059
0.114
-0.003
0.047
0.049
-0.059
0.045
0.001
0.026
0.030
0.094
-0.056
-0.048
-0.019
-0.034
0.092
0.118
-0.078
-0.001
0.026
-0.005
0.132
0.029
0.033
0.045
0.020
0.051
-0.080
-0.015
0.033
0.095
0.073
-0.016
-0.004
0.041
0.085
0.025
-0.037
-0.009
-0.012
-0.079
-0.025
0.112
-0.011
0.119
-0.022
-0.024
0.095
-0.077
0.127
-0.029
0.025
-0.095
-0.046
0.074
0.050
-0.037
-0.003
-0.023
0.087
0.104
0.022
-0.026
-0.044
-0.064
-0.042
-0.004
0.106
0.154
-0.041
0.020
0.040
-0.050
0.110
0.126
-0.050
-0.018
0.085
-0.031
-0.148
0.063
0.060
-0.008
0.091
0.098
0.038
0.054
-0.071
-0.095
0.136
0.141
-0.003
0.123
0.020
0.086
-0.025
0.075
-0.012
-0.098
0.100
0.136
0.006
-0.065
0.142
0.136
-0.014
-0.029
-0.011
0.048
0.047
0.075
0.216
-0.004
-0.068
-0.102
0.009
0.020
-0.030
0.114
0.066
-0.059
-0.012
0.118
0.051
0.021
-0.044
-0.015
0.162
0.023
0.069
0.084
-0.069
-0.092
0.102
0.044
-0.023
-0.037
0.129
0.025
-0.032
-0.071
0.022
-0.052
0.183
0.064
0.019
-0.033
-0.021
0.094
0.011
-0.069
0.154
-0.027
-0.052
-0.043
0.091
0.018
0.053
-0.006
-0.022
-0.019
-0.014
-0.051
0.046
-0.044
-0.036
0.013
0.079
0.005
0.105
0.121
0.003
-0.070
0.045
0.000
0.037
0.093
0.049
-0.086
0.118
-0.074
-0.122
0.039
0.180
0.014
0.113
-0.091
-0.080
0.085
0.025
-0.055
0.013
0.005
0.093
0.062
0.055
-0.016
-0.066
0.006
0.044
0.072
0.032
0.064
0.126
-0.051
0.080
-0.096
-0.006
0.023
-0.012
-0.052
-0.019
-0.033
0.155
0.000
-0.101
0.141
0.016
0.008
0.008
-0.028
-0.043
-0.058
-0.044
0.139
0.055
0.045
-0.089
0.045
0.018
0.035
-0.019
0.094
-0.035
0.066
0.018
-0.045
0.259
-0.027
0.058
-0.013
-0.010
-0.075
-0.065
0.035
0.090
0.102
-0.009
-0.004
-0.026
0.135
-0.085
-0.074
0.079
0.098
0.012
-0.026
0.003
-0.014
-0.056
-0.044
-0.071
0.144
0.144
-0.075
-0.003
-0.056
0.095
-0.003
0.050
0.105
0.038
-0.045
0.070
0.048
0.048
0.007
-0.059
0.023
-0.141
0.104
0.104
0.006
0.012
0.040
0.153
0.023
-0.053
0.004
0.046
-0.043
-0.034
0.189
0.022
-0.061
-0.099
-0.011
-0.018
0.019
0.114
-0.048
0.189
-0.028
0.030
-0.091
0.065
-0.045
0.084
0.007
0.052
0.041
0.079
-0.002
-0.049
0.076
-0.016
-0.042
0.056
-0.010
0.046
-0.032
0.042
-0.073
0.090
0.014
0.007
0.078
0.031
0.040
0.014
0.013
-0.015
0.026
0.148
-0.081
0.080
-0.019
0.021
0.025
0.117
0.024
-0.006
0.059
-0.059
-0.054
0.078
0.031
0.038
-0.149
0.001
0.043
0.036
0.036
0.008
0.036
0.004
-0.089
-0.034
-0.064
0.065
0.194
0.110
-0.028
-0.062
0.075
0.047
-0.026
-0.039
0.028
-0.027
-0.056
0.074
-0.019
0.140
0.079
0.070
-0.052
0.005
0.018
0.044
0.016
-0.074
-0.001
0.105
0.108
0.112
0.001
-0.070
0.062
-0.063
-0.046
0.058
0.012
0.039
-0.032
0.037
0.046
-0.030
0.064
0.024
0.015
0.035
0.041
-0.094
0.027
-0.092
0.132
0.064
-0.105
0.068
0.172
0.020
-0.019
0.092
-0.055
-0.016
0.036
0.105
0.042
0.062
0.014
-0.001
-0.013
-0.050
0.007
-0.028
-0.014
-0.027
-0.007
0.054
-0.050
0.009
-0.028
0.044
0.124
-0.025
0.069
-0.043
0.100
0.058
0.006
0.050
0.032
-0.429
-0.903
-0.338
0.382
0.599
0.374
0.209
-0.079
-0.297
-0.084
-0.132
0.118
0.214
0.162
0.187
0.231
0.103
0.175
0.212
-0.062
-0.024
-0.115
-0.061
0.040
0.054
-0.097
-0.116
-0.030
-0.033
-0.035
-0.100
-0.036
-0.016
-0.023
-0.015
0.098
0.005
-0.121
0.014
0.031
0.042
0.051
0.010
-0.037
0.120
-0.074
-0.022
0.089
-0.026
0.136
0.131
0.078
-0.023
0.133
0.046
-0.157
0.008
0.129
0.085
0.164
0.050
-0.050
-0.107
-0.132
0.173
0.047
0.070
-0.052
0.030
-0.056
0.027
-0.003
0.031
0.030
-0.037
-0.196
-1.049
-0.223
0.399
0.520
-2.704
-3.892
-0.828
3.163
4.315
3.842
0.408
-2.318
-3.171
-2.752
-0.900
1.084
2.575
3.401
3.514
3.139
2.627
1.750
0.888
0.098
-0.375
-1.008
-1.200
-1.429
-1.422
-1.222
-1.088
-0.925
-0.497
-0.127
-0.245
-0.054
-0.104
-0.467
-0.709
0.108
0.714
0.791
0.573
-1.228
-3.321
-3.872
1.174
3.995
4.760
4.251
0.732
-0.387
-2.715
-3.593
-1.309
2.738
4.323
4.679
4.653
4.507
4.320
4.132
3.936
2.927
0.449
-1.956
-3.660
-4.591
-4.975
-4.470
-4.568
-4.458
-2.960
2.465
3.618
2.293
0.057
-0.127
-0.042
0.294
0.831
1.303
1.666
-1.560
-3.066
-0.637
2.932
3.726
4.216
3.752
1.244
-0.999
-2.001
-1.688
-0.782
0.476
1.340
2.059
2.248
2.316
1.935
1.397
0.821
0.239
-0.333
-0.669
-0.976
-0.996
-1.000
-0.865
-0.743
-0.705
-0.464
-0.303
-0.136
-0.052
0.039
0.034
0.031
-0.003
-0.073
0.032
0.078
0.068
-0.054
0.076
0.045
0.088
0.050
0.137
-0.047
0.112
0.142
0.163
0.155
0.163
0.106
0.324
-0.090
0.183
0.165
0.079
0.124
0.117
0.183
0.267
0.031
-0.055
0.016
0.030
0.093
-0.015
-0.018
-0.141
0.023
0.065
0.015
0.035
-0.054
-0.129
-0.133
-0.040
-0.049
0.015
-0.107
-0.142
0.047
-0.023
-0.130
-0.096
-0.019
-0.056
-0.202
-0.094
-0.045
-0.140
0.040
-0.192
-0.171
-0.103
0.076
0.002
-0.133
-0.143
-0.081
0.005
0.009
0.017
-0.060
0.036
-0.052
-0.008
0.086
-0.045
-0.062
0.033
0.019
0.095
-0.022
0.064
-0.066
0.024
-0.012
0.137
0.070
0.131
0.035
-0.211
-0.450
-0.151
-0.172
-0.450
-0.801
-1.088
-0.787
-0.461
1.291
1.541
0.743
-0.022
-0.442
-0.281
0.148
0.343
0.686
0.707
0.637
0.697
0.711
0.480
0.174
-0.038
-0.204
-0.249
-0.349
-0.405
-0.493
-0.320
-0.342
-0.557
-2.656
-3.984
-3.145
0.033
2.952
2.258
-2.390
0.852
3.464
2.759
0.729
-0.451
-0.447
0.076
1.056
1.883
2.417
2.539
2.359
1.826
1.134
0.572
-0.157
-0.656
-0.989
-1.364
-1.328
-1.144
-0.972
-0.894
-0.589
-0.343
-0.163
-0.040
-0.000
0.247
0.304
0.327
0.357
0.340
0.220
0.309
0.334
0.428
0.395
0.384
0.432
0.375
0.358
0.496
0.428
0.378
0.512
0.368
0.532
0.579
0.477
0.398
0.354
0.314
0.445
0.335
0.329
0.301
0.302
0.256
0.191
0.277
-0.015
0.145
0.113
-0.017
0.138
0.036
-0.038
-0.037
-0.096
-0.118
-0.041
-0.110
-0.096
-0.203
-0.098
-0.242
-0.222
-0.146
-0.214
-0.135
-0.244
-0.170
-0.342
-0.269
-0.122
-0.159
-0.216
-0.221
-0.226
-0.184
0.016
-0.098
-0.158
0.005
-0.268
-0.058
-0.082
-0.052
-0.022
-0.059
0.003
-0.077
-0.167
0.030
0.013
0.030
0.097
-0.038
-0.056
0.015
0.032
0.113
-0.024
0.147
0.142
0.071
0.035
0.066
0.112
0.051
0.007
-0.001
0.103
0.188
0.086
0.099
0.052
-0.020
0.207
-0.035
-0.027
0.037
-0.002
0.093
0.076
-0.125
0.112
0.042
0.032
-0.065
-0.037
0.030
0.125
0.037
0.017
0.032
0.037
-0.006
-0.065
0.076
-0.030
0.052
0.001
0.127
0.107
0.056
0.042
0.081
-0.066
0.089
0.148
0.184
0.051
-0.062
0.054
-0.022
0.150
-0.014
0.109
0.003
0.044
0.028
0.161
-0.060
-0.069
0.048
0.106
-0.010
0.033
-0.104
0.112
0.023
0.019
-0.074
0.077
0.018
0.019
0.067
-0.048
-0.002
-0.008
0.088
0.059
-0.109
0.088
-0.025
-0.126
0.070
-0.052
-0.091
-0.020
-0.035
0.086
0.022
-0.007
-0.067
-0.019
-0.037
-0.003
-0.120
0.001
0.034
-0.150
0.062
0.070
-0.041
-0.120
-0.076
0.041
0.046
0.058
-0.089
0.033
0.055
0.110
-0.043
0.027
0.125
-0.076
-0.058
0.086
0.015
0.058
0.048
0.010
0.025
-0.051
0.114
0.036
0.124
0.065
0.111
0.053
0.060
0.059
-0.009
0.065
0.194
0.032
0.117
0.088
0.187
0.054
0.054
0.153
0.109
-0.009
0.008
0.077
-0.035
0.113
-0.034
0.063
0.075
0.011
-0.015
0.204
-0.071
0.030
-0.044
-0.021
0.050
0.032
0.070
-0.050
0.078
-0.031
0.051
-0.038
-0.016
0.046
-0.075
-0.026
-0.102
0.085
0.059
-0.007
0.029
-0.072
-0.049
-0.087
-0.004
-0.062
0.095
0.042
-0.130
0.006
0.044
-0.006
0.062
-0.006
-0.063
0.021
-0.069
-0.084
0.140
-0.027
0.108
-0.016
-0.035
0.020
0.095
-0.098
0.008
-0.018
-0.101
0.081
0.080
0.001
0.073
0.016
0.067
0.010
0.050
0.093
0.176
0.000
-0.086
0.091
0.022
0.062
0.002
0.079
0.140
0.015
-0.032
0.160
-0.119
0.030
0.011
0.059
-0.021
0.101
-0.013
0.078
-0.019
0.009
0.039
0.157
0.024
0.009
0.092
-0.001
0.058
-0.089
-0.072
-0.008
0.108
0.044
-0.029
0.145
-0.047
0.063
-0.051
-0.018
-0.080
0.080
0.071
0.022
-0.043
0.132
-0.006
-0.067
0.091
0.012
-0.044
-0.046
0.101
-0.012
0.000
0.013
-0.065
0.017
0.121
0.138
-0.034
-0.067
-0.028
-0.031
0.069
0.130
-0.115
-0.095
0.045
-0.071
0.055
0.043
-0.006
0.138
-0.029
0.054
0.021
0.061
-0.091
0.042
0.072
-0.059
0.021
0.111
-0.022
0.056
0.006
-0.056
0.084
0.043
-0.041
0.007
0.065
-0.028
0.094
-0.102
0.099
0.068
0.005
-0.006
0.062
0.098
0.069
-0.021
-0.020
0.115
0.049
-0.095
0.116
0.074
-0.084
-0.043
0.018
0.061
-0.045
0.089
0.052
0.042
-0.032
0.090
0.034
0.086
0.033
-0.066
-0.024
0.032
0.098
-0.074
0.119
0.040
-0.053
-0.162
0.079
0.063
0.227
0.010
-0.014
0.074
-0.008
-0.155
-0.047
0.082
0.062
0.060
-0.014
0.053
-0.084
0.002
0.062
-0.085
0.169
0.059
-0.136
0.100
0.106
0.123
-0.032
-0.122
0.155
0.076
0.105
-0.024
-0.136
0.033
0.126
0.011
-0.062
0.073
0.017
-0.068
-0.086
0.035
-0.034
0.036
-0.043
0.120
0.063
-0.071
-0.011
0.004
0.079
0.049
0.034
0.009
0.008
0.012
0.069
0.014
-0.076
0.098
0.092
0.049
0.048
0.051
0.034
0.037
-0.054
-0.067
0.021
0.090
0.144
-0.073
0.051
0.034
0.011
0.055
-0.062
-0.031
-0.003
0.074
0.027
0.029
-0.057
0.114
-0.037
0.044
-0.030
0.060
0.057
0.024
0.006
0.094
0.118
-0.024
-0.022
-0.041
0.028
0.107
0.029
-0.044
0.009
0.011
0.058
-0.007
-0.041
0.089
-0.076
0.098
0.009
0.064
0.064
-0.113
0.063
-0.001
0.102
0.027
-0.047
0.010
-0.010
-0.014
-0.012
0.103
-0.038
0.036
-0.055
-0.078
0.071
0.078
0.017
-0.080
0.022
0.010
-0.017
0.051
0.051
0.004
-0.041
-0.038
0.063
0.063
0.063
-0.036
0.060
-0.028
0.028
-0.060
0.038
0.050
0.021
0.063
-0.109
-0.070
-0.041
0.171
-0.032
0.013
0.150
0.003
0.064
-0.107
0.060
-0.078
0.019
0.069
0.016
-0.028
0.005
0.049
0.065
0.028
0.071
0.068
-0.045
-0.016
0.085
-0.086
0.079
-0.056
0.031
0.017
0.117
0.004
-0.024
0.043
0.141
0.040
-0.018
-0.010
-0.011
0.092
0.019
0.045
0.073
0.000
-0.020
0.003
-0.051
0.074
0.056
-0.003
0.045
0.025
0.197
0.028
0.025
0.010
0.045
-0.005
-0.036
0.155
0.087
0.044
0.046
0.070
-0.086
-0.069
0.074
0.081
0.086
0.040
-0.026
-0.029
-0.042
0.024
-0.001
0.097
-0.021
-0.086
-0.013
0.153
0.090
0.122
-0.068
-0.063
0.095
-0.032
0.094
0.043
0.082
-0.002
0.073
-0.033
-0.037
-0.047
0.153
0.024
-0.028
0.048
0.044
-0.000
-0.004
-0.081
-0.029
0.074
-0.064
0.028
0.012
0.162
0.006
0.034
-0.140
0.028
0.003
0.034
0.056
0.018
-0.006
-0.023
-0.057
-0.034
-0.022
0.011
0.098
0.074
-0.048
-0.172
-0.005
0.084
0.025
0.022
0.137
-0.027
-0.045
-0.033
0.017
0.085
-0.016
0.048
0.158
-0.039
0.090
0.061
-0.051
-0.021
0.104
0.050
0.024
-0.083
-0.009
0.080
0.045
-0.009
-0.059
-0.052
0.064
-0.087
0.171
0.072
0.059
-0.089
0.099
-0.013
0.129
-0.030
-0.084
-0.048
0.140
0.174
0.034
-0.033
0.085
-0.046
0.057
0.084
-0.068
0.035
0.076
0.080
0.066
0.007
0.042
-0.027
-0.023
0.036
0.031
0.049
0.162
-0.018
0.021
-0.004
0.139
-0.032
-0.031
-0.034
0.049
0.110
0.078
0.033
-0.071
0.116
0.148
-0.089
-0.061
-0.007
-0.043
-0.073
0.027
0.137
0.079
-0.049
-0.041
-0.042
0.088
0.063
0.074
0.093
0.041
0.040
-0.077
-0.029
0.135
-0.028
0.102
0.161
-0.025
-0.092
-0.098
-0.168
0.069
0.080
-0.015
0.026
0.050
0.013
-0.091
0.139
-0.060
0.011
0.034
-0.028
0.041
-0.034
-0.100
0.112
0.084
0.081
-0.077
-0.035
0.006
-0.037
-0.021
0.050
0.055
0.004
0.044
0.045
-0.040
0.010
-0.036
0.057
-0.049
0.051
0.051
-0.025
0.071
-0.004
-0.063
0.013
0.005
0.036
0.013
0.012
0.061
0.014
0.028
0.094
-0.031
0.007
-0.002
0.021
0.079
-0.031
-0.013
0.062
0.215
0.023
-0.022
0.031
-0.082
-0.056
0.138
-0.008
0.008
0.038
-0.024
0.009
0.152
0.021
0.026
0.015
-0.010
-0.034
0.050
0.117
0.053
-0.127
0.159
-0.032
0.119
0.060
0.004
-0.005
-0.017
0.038
0.197
-0.035
0.022
0.030
-0.064
-0.050
0.118
0.117
0.054
-0.035
0.030
0.098
0.121
-0.029
0.008
-0.074
-0.005
0.104
-0.051
0.051
-0.020
0.148
0.072
-0.082
0.047
0.044
0.063
0.199
0.097
-0.019
-0.036
0.066
-0.020
0.030
0.049
0.037
0.066
-0.023
0.061
0.008
0.010
-0.074
-0.042
0.177
0.013
0.020
0.075
-0.061
0.032
0.039
0.032
0.018
0.019
0.068
0.083
-0.094
-0.023
0.055
0.142
0.107
-0.001
0.024
-0.030
-0.014
0.064
-0.012
-0.004
0.047
0.019
-0.078
0.102
0.051
0.080
-0.046
0.054
0.082
0.010
-0.030
0.108
0.052
-0.024
0.037
0.037
-0.039
-0.038
0.175
-0.005
-0.016
0.056
-0.070
-0.074
-0.044
0.026
-0.022
0.111
0.147
-0.031
0.063
-0.090
0.087
0.078
-0.057
-0.015
-0.098
0.072
0.086
0.110
0.054
0.003
0.027
0.056
-0.010
0.005
-0.008
-0.017
0.015
-0.046
-0.046
0.048
0.061
0.057
-0.084
0.026
-0.007
0.081
-0.075
0.029
0.063
-0.009
0.025
0.076
-0.005
-0.014
0.105
0.075
0.017
-0.024
0.006
-0.028
-0.101
0.109
0.068
0.045
-0.084
0.074
-0.006
-0.045
0.040
-0.053
0.113
-0.040
0.092
-0.011
-0.054
0.055
0.067
0.040
0.043
0.087
-0.130
0.047
0.017
-0.042
-0.020
0.026
0.147
0.107
-0.023
0.077
0.033
-0.084
-0.169
0.001
-0.018
0.029
0.012
0.024
0.067
0.083
0.001
0.050
0.016
-0.087
-0.001
0.008
0.147
0.009
-0.063
-0.048
0.185
-0.009
-0.009
-0.034
0.013
0.028
0.146
0.050
-0.099
0.077
0.012
0.087
0.048
-0.037
-0.031
-0.028
-0.059
0.065
0.035
0.039
0.201
0.035
-0.038
-0.077
0.103
0.093
-0.068
-0.016
-0.009
0.090
0.076
0.033
-0.014
0.027
-0.057
-0.006
-0.006
0.026
-0.027
0.068
-0.033
0.111
-0.009
-0.051
-0.006
0.033
0.048
-0.032
-0.101
-0.011
0.077
0.012
0.100
-0.044
0.080
0.085
-0.047
0.175
0.082
0.018
-0.017
-0.915
-0.912
2.202
2.378
1.401
0.134
-0.502
-0.838
-0.594
-0.408
-0.080
0.293
0.488
0.585
0.556
0.592
0.465
0.061
0.012
-0.241
-0.129
-0.152
-0.213
-0.323
-0.124
-0.126
-0.081
-0.016
-0.021
0.096
0.147
0.082
0.115
0.023
0.210
0.319
0.185
-0.016
0.165
0.199
0.147
0.050
0.121
0.172
0.185
0.203
0.313
0.153
0.101
0.231
0.137
0.141
0.078
0.140
0.182
0.101
0.030
0.269
0.012
0.049
0.082
0.054
-0.044
0.070
0.057
-0.021
-0.015
0.070
-0.122
0.074
-0.021
0.037
-0.065
0.023
-0.065
-0.073
-0.046
-0.132
-0.099
-0.078
0.081
0.016
-0.139
-0.041
-0.031
0.037
-0.071
-0.116
-0.030
0.034
-0.124
-0.130
-0.035
-0.010
-0.001
-0.050
-0.026
0.032
0.051
-0.030
0.040
-0.076
0.048
0.004
-0.009
-0.031
-0.044
0.057
0.019
0.009
-0.057
0.154
-0.034
-0.064
-0.016
0.039
0.029
-0.050
0.045
0.045
0.060
0.033
0.106
-1.628
-3.609
-1.687
2.876
3.990
2.856
0.038
-1.555
-2.131
-1.817
-0.699
0.493
1.647
2.465
2.773
2.675
2.300
1.561
1.051
0.438
-0.308
-0.709
-1.075
-1.198
-1.160
-0.926
-0.872
-0.667
-0.541
-0.291
-0.022
0.001
0.168
0.091
0.078
0.277
0.192
0.104
0.281
-0.034
0.166
0.232
0.249
0.252
0.302
0.233
0.197
0.193
0.170
0.280
0.450
0.268
0.352
0.342
0.361
0.328
0.290
0.269
0.185
0.216
0.282
0.172
0.260
0.177
0.246
0.339
0.091
0.100
0.024
0.018
0.048
0.043
-0.018
0.032
0.034
-0.090
-0.106
-0.121
0.032
-0.100
-0.208
-0.148
-0.093
-0.159
-0.131
-0.127
-0.181
-0.116
-0.062
-0.158
-0.313
-0.228
-0.033
0.041
-0.215
-0.125
-0.137
-0.191
-0.097
-0.153
-0.039
-0.009
-0.070
-0.122
-0.158
0.039
-0.103
-0.001
0.037
0.145
0.027
-0.021
0.112
0.038
-0.001
-0.009
0.087
-0.004
0.001
0.139
0.107
0.095
0.051
0.127
0.071
0.074
0.158
0.106
0.002
0.077
0.134
0.182
0.028
0.064
0.110
0.107
0.050
-0.017
0.094
0.091
0.018
0.026
0.183
-0.045
0.060
-0.019
0.062
0.040
-0.039
0.021
-0.079
-0.042
0.066
0.109
0.059
-0.130
-0.015
-0.107
-0.021
0.194
0.023
-0.089
0.081
-0.158
0.122
0.082
-0.002
-0.100
0.118
0.049
0.064
0.036
0.021
-0.027
-0.046
0.065
-0.024
0.096
0.039
0.017
-0.020
-0.059
0.058
-0.050
0.015
-0.001
0.053
0.150
-0.000
-0.019
-0.043
0.075
0.034
0.095
-0.002
-0.087
-0.099
0.025
0.028
-0.040
0.016
-0.097
0.060
0.074
-0.021
0.012
-0.117
0.059
0.032
-0.006
-0.049
0.076
-0.022
0.101
-0.028
0.039
0.034
-0.060
0.045
-0.062
0.051
-0.003
-0.068
-0.003
-0.012
0.080
-0.078
-0.003
0.035
-0.046
0.007
0.013
0.191
-0.051
0.130
0.029
-0.096
0.086
-0.023
0.096
0.061
-0.044
0.185
0.069
0.226
-0.065
-0.000
0.062
0.140
-0.029
0.082
0.066
-0.016
0.115
0.046
0.008
0.025
0.046
0.060
0.077
0.202
-0.087
0.123
0.067
0.060
0.195
-0.026
0.023
0.008
-0.000
0.217
-0.052
0.091
-0.073
0.033
0.016
-0.007
-0.004
0.049
0.050
0.164
0.009
-0.057
0.017
0.050
0.003
0.056
0.013
-0.005
-0.012
-0.074
-0.117
0.062
0.048
-0.030
-0.127
-0.036
-0.067
0.037
-0.054
0.042
0.078
-0.008
-0.047
0.041
0.115
-0.086
-0.081
-0.117
0.083
0.118
0.034
0.099
-0.055
-0.041
0.055
0.015
-0.074
0.059
-0.014
0.007
-0.019
0.150
0.100
0.000
-0.052
0.010
0.109
-0.059
-0.066
0.086
0.024
0.092
0.007
0.143
0.057
-0.005
0.116
0.062
-0.145
-0.024
0.132
-0.019
0.196
0.063
-0.079
0.091
0.023
0.032
0.005
-0.079
-0.112
0.025
0.147
0.077
0.005
-0.020
0.103
-0.096
0.078
0.022
0.016
0.003
-0.018
0.046
0.060
0.060
0.064
-0.026
0.058
0.040
0.089
-0.032
-0.042
-0.103
0.065
-0.007
0.044
0.005
0.051
0.088
-0.097
0.009
0.112
-0.020
-0.039
0.132
-0.023
-0.016
0.022
0.180
-0.055
0.002
0.073
0.122
-0.012
-0.058
0.053
0.072
0.069
0.057
-0.047
-0.021
-0.039
0.087
-0.058
-0.018
0.063
-0.032
-0.014
0.009
0.063
-0.057
-0.018
0.049
0.004
0.163
0.101
-0.124
0.097
0.131
-0.057
0.038
0.106
-0.040
0.027
0.015
-0.008
-0.004
0.050
0.044
0.054
0.032
0.025
-0.087
0.026
0.026
0.053
0.082
-0.052
0.053
0.106
0.023
0.057
-0.013
-0.060
-0.051
0.055
0.062
0.051
0.114
0.047
0.003
0.051
0.000
-0.059
-0.067
0.101
-0.042
0.020
0.121
0.056
-0.006
0.147
-0.034
-0.041
0.031
0.080
-0.003
0.008
0.079
0.006
-0.028
0.044
0.021
-0.068
-0.069
-0.003
0.050
-0.005
0.048
-0.035
0.065
0.072
-0.085
0.049
-0.044
0.059
-0.075
-0.064
0.029
0.089
0.091
0.095
0.058
0.022
-0.122
0.008
0.088
0.062
0.041
0.045
-0.121
0.013
0.001
0.019
0.068
-0.020
-0.021
0.098
0.040
0.034
0.077
-0.020
0.010
0.077
-0.049
0.043
0.044
0.029
-0.026
-0.042
-0.033
0.073
0.038
0.013
0.088
0.088
-0.095
-0.031
-0.017
-0.053
-0.024
0.058
0.027
0.078
0.167
-0.087
-0.144
-0.050
0.112
0.088
-0.003
0.124
0.041
0.050
-0.078
0.060
0.029
0.011
0.012
0.093
-0.008
0.024
-0.067
-0.049
0.078
-0.062
0.009
0.078
-0.023
0.144
0.036
-0.113
-0.012
0.025
0.109
0.115
0.087
0.007
0.038
-0.059
-0.092
-0.037
0.189
-0.016
0.032
-0.065
-0.048
-0.002
-0.000
0.074
0.119
-0.089
-0.172
-0.039
0.171
0.134
0.027
0.026
-0.062
-0.003
-0.057
0.135
0.045
0.009
-0.090
-0.121
0.212
0.140
0.111
0.041
-0.075
-0.116
-0.079
0.132
-0.084
0.064
0.098
0.028
-0.035
-0.085
0.081
0.119
-0.041
-0.083
0.063
0.077
-0.115
-0.041
0.072
-0.017
0.009
0.052
0.019
-0.008
-0.033
0.153
-0.017
-0.020
0.090
0.020
0.092
0.013
-0.046
-0.004
-0.102
-0.065
0.051
0.071
0.043
-0.112
0.095
0.038
0.069
0.038
-0.122
0.072
0.032
0.020
0.042
0.057
0.019
0.079
0.038
-0.015
-0.122
0.064
0.005
0.151
-0.052
-0.029
0.009
0.012
0.037
-0.083
0.066
0.109
-0.014
0.002
0.033
0.103
-0.051
0.029
-0.053
0.030
0.006
0.105
-0.039
-0.031
0.011
0.014
0.101
0.037
0.059
-0.010
0.035
-0.040
0.003
0.009
-0.041
-0.017
0.014
0.013
0.159
0.034
0.068
-0.078
-0.038
0.054
-0.102
0.041
0.005
0.065
-0.031
0.105
0.033
-0.057
-0.047
-0.024
0.133
-0.041
0.042
0.057
0.089
-0.063
-0.067
-0.046
0.134
-0.040
0.090
-0.050
0.016
0.105
0.074
-0.058
-0.008
0.064
0.021
-0.026
-0.021
-0.033
0.066
-0.076
0.006
-0.037
0.035
0.074
-0.059
-0.074
0.036
-0.061
0.010
0.016
0.067
-0.040
0.053
0.167
0.046
-0.147
0.015
-0.021
0.043
0.039
0.065
0.038
-0.044
-0.004
0.101
0.062
-0.036
0.018
-0.036
-0.084
0.044
0.068
0.039
-0.032
0.096
0.013
-0.038
-0.050
0.118
0.133
0.010
-0.051
-0.114
-0.031
0.151
-0.029
0.094
-0.044
-0.002
0.095
0.113
0.075
-0.030
-0.013
-0.011
0.105
-0.011
-0.100
0.025
0.104
-0.010
0.085
0.016
-0.024
-0.036
-0.076
0.015
0.140
0.055
0.099
-0.011
-0.028
0.051
0.064
0.063
-0.024
0.124
-0.022
0.046
0.081
0.107
-0.001
-0.026
-0.047
-0.129
0.098
0.121
0.017
-0.004
-0.008
0.001
-0.034
-0.066
0.013
0.048
0.066
0.027
0.101
-0.132
0.151
0.023
0.044
0.111
-0.058
-0.105
-0.057
0.054
-0.066
0.098
0.007
0.052
-0.038
0.114
-0.028
0.011
-0.083
-0.023
-0.025
0.110
0.149
-0.010
0.120
-0.021
0.021
0.031
-0.056
0.046
-0.003
0.036
0.058
0.011
0.104
-0.043
0.044
0.037
0.034
-0.027
-0.079
0.074
-0.067
-0.015
-0.025
-0.067
0.078
0.149
0.021
-0.028
-0.054
0.048
0.024
0.014
-0.024
-0.064
0.010
0.041
0.104
0.000
-0.005
-0.014
0.146
0.128
0.062
-0.071
0.038
-0.052
0.008
-0.086
0.054
0.005
0.083
0.170
-0.000
-0.059
-0.046
-0.066
0.071
0.002
0.096
0.052
-0.031
0.016
-0.002
0.091
0.015
0.086
0.000
-0.013
-0.022
0.013
0.113
-0.064
-0.091
0.034
0.030
0.056
0.120
-0.039
-0.017
0.025
0.021
0.010
-0.019
0.154
0.006
-0.050
0.038
-0.033
0.032
-0.029
0.070
0.015
-0.129
0.162
-0.104
0.078
-0.019
0.056
0.033
0.022
-0.028
0.057
0.040
0.016
0.056
0.103
0.008
0.038
0.022
-0.078
0.092
0.073
0.093
-0.051
-0.050
0.008
-0.016
0.074
0.015
0.084
0.065
0.026
0.056
-0.114
0.051
-0.105
0.058
0.191
-0.019
-0.099
-0.010
0.097
0.100
-0.067
-0.037
0.060
0.145
-0.043
-0.078
0.105
-0.069
0.021
0.057
0.060
-0.011
0.153
0.026
-0.009
-0.053
-0.003
0.021
-0.052
0.061
-0.159
-3.158
-4.038
-4.189
-1.948
2.241
4.219
4.718
1.403
-2.694
-3.908
-3.635
1.334
3.828
4.482
4.536
4.392
4.187
3.997
3.786
3.598
3.408
3.174
1.314
-1.497
-3.785
-5.073
-5.503
-5.403
-5.021
-4.085
-2.998
-1.873
-0.955
0.006
0.441
0.952
1.054
1.130
1.192
0.957
0.706
0.475
0.438
0.392
-0.064
-1.703
-3.082
-3.395
1.008
4.303
5.193
4.701
0.062
-2.774
-3.567
-2.495
-0.169
2.755
4.459
4.856
4.793
4.592
4.115
3.053
1.437
0.065
-1.093
-1.901
-2.332
-2.496
-2.466
-2.310
-1.871
-1.414
-0.816
-0.613
-0.404
-0.346
-0.201
-0.138
-0.012
-0.111
-0.177
-0.238
-0.124
-0.343
-0.247
-0.175
-0.278
-0.134
-0.016
-0.069
0.018
0.025
0.040
0.156
0.294
0.133
0.173
0.266
0.390
0.214
0.213
0.286
0.340
0.252
0.399
0.255
0.218
0.427
0.151
0.366
0.257
0.140
0.200
0.281
0.145
0.191
0.092
0.151
0.266
0.113
0.042
0.007
-0.005
-0.080
0.043
0.025
-0.029
-0.067
-0.169
-0.108
0.059
-0.096
-0.212
-0.206
-0.268
-0.116
-0.082
-0.086
-0.259
-0.239
-0.133
-0.153
-0.147
-0.253
-0.153
-0.137
-0.161
-0.155
0.014
-0.087
-0.198
-0.254
-0.002
-0.036
-0.019
0.071
-0.035
0.001
0.015
-0.074
0.074
0.096
0.074
0.045
-0.077
-0.014
0.133
0.211
0.003
0.028
0.082
0.204
0.137
-0.037
0.161
0.117
0.025
-2.762
-3.872
0.633
3.613
4.428
-1.639
-3.479
1.387
3.710
3.259
0.889
-0.175
0.602
2.517
3.670
3.907
3.872
3.720
3.583
3.051
1.623
0.270
-2.800
-4.920
-1.488
2.079
3.163
0.654
-2.881
-4.537
-4.451
-2.777
-0.774
1.056
2.694
3.724
3.801
3.494
2.897
2.139
1.283
0.208
0.017
-0.399
-0.513
-0.547
-0.374
-0.212
0.069
0.368
0.653
0.877
1.123
1.265
1.253
1.359
1.300
1.301
1.111
1.083
1.104
0.999
0.917
0.815
0.894
0.799
0.929
0.663
0.722
0.585
0.642
0.504
0.336
0.455
0.394
0.289
0.224
0.156
-0.022
0.005
-0.095
-0.086
-0.142
-0.248
-0.265
-0.261
-0.333
-0.288
-0.464
-0.289
-0.528
-0.398
-0.512
-0.562
-0.556
-0.461
-0.475
-0.585
-0.575
-0.481
-0.523
-0.489
-0.476
-0.476
-0.510
-0.464
-0.590
-0.427
-0.342
-0.268
-0.359
-1.058
-0.487
0.144
0.021
0.143
-0.020
-0.165
-0.146
-0.354
-0.018
0.028
0.163
0.097
0.226
0.052
0.286
0.185
0.068
0.174
0.150
0.200
0.165
0.040
0.193
0.149
0.116
0.077
0.272
0.208
-0.062
-0.280
-0.456
-0.267
-0.068
-0.388
-0.303
-0.343
-0.212
-0.134
-0.587
-1.032
-0.795
-0.377
-0.136
0.066
0.121
-0.172
-0.141
0.266
0.236
-0.118
-0.009
0.330
0.494
0.551
0.455
0.211
0.264
0.294
0.347
0.175
0.273
0.079
0.146
-0.095
-0.088
0.083
-0.012
-0.060
0.009
0.047
-0.052
-0.149
0.036
0.115
-0.187
-0.220
0.172
0.076
0.166
0.446
0.649
0.409
0.105
-0.975
-1.090
-0.814
0.001
0.920
1.070
0.539
0.020
-0.302
-0.417
-0.426
-0.081
0.076
0.138
0.284
0.282
0.270
0.236
0.229
0.259
0.107
0.071
-0.018
0.073
0.115
0.124
0.039
0.135
0.263
0.156
0.165
0.233
0.289
0.245
0.357
0.282
0.246
0.152
0.287
0.223
0.272
0.351
0.044
0.177
0.235
0.246
0.208
0.219
0.098
0.099
0.181
0.074
0.194
0.255
0.065
-0.012
0.052
0.137
-0.011
0.154
0.080
0.052
-0.124
0.050
-0.081
-0.063
-0.121
0.134
0.075
-0.004
0.045
-0.058
0.014
-0.059
-0.118
0.017
0.045
-0.115
-0.075
-0.013
-0.049
0.034
-0.070
-0.144
-0.060
-0.145
0.020
0.038
-0.146
-0.125
-0.051
-0.016
-0.078
0.035
-0.061
-0.081
-0.028
-0.133
-0.075
-0.032
-0.020
-0.087
-0.110
0.120
-0.203
0.021
-0.094
-0.057
-0.075
0.019
-0.048
-0.036
0.051
-0.107
-0.124
-0.022
-0.001
-1.941
-1.856
2.538
3.513
2.232
0.319
-0.721
-1.307
-0.997
-0.534
0.138
0.464
0.792
0.917
0.807
0.755
0.609
0.340
0.146
-0.075
-0.222
-0.338
-0.243
-0.394
-0.285
-0.185
-0.161
-0.038
0.214
0.196
0.135
0.238
0.134
0.193
0.337
0.387
0.177
0.260
0.192
0.366
0.285
0.267
0.291
0.378
0.200
0.312
0.232
0.251
0.235
0.320
0.233
0.187
0.183
0.231
0.147
0.222
0.127
0.217
0.058
-0.007
0.096
0.091
0.084
0.129
-0.049
-0.065
-0.017
-0.138
-0.015
-0.122
-0.068
-0.029
-0.104
-0.064
-0.079
-0.047
-0.188
-0.211
-0.208
-0.150
-0.127
-0.162
-0.010
-0.116
-0.094
-0.190
-0.131
-0.047
-0.117
-0.203
-0.090
-0.002
-0.010
-0.195
-0.165
-0.071
-0.005
-0.093
-0.075
0.003
-0.016
0.058
0.002
-0.088
0.067
0.022
-0.026
0.047
0.026
-0.048
0.098
0.148
0.124
0.212
-0.033
-0.005
0.006
0.167
0.117
0.049
0.149
0.075
0.089
0.095
0.163
0.113
0.081
-0.010
0.030
0.051
0.163
0.121
0.042
0.047
0.057
0.032
0.017
0.045
0.012
0.084
0.085
0.036
-0.023
-0.009
0.098
-0.002
-0.013
0.107
0.110
-0.100
0.028
0.122
0.075
-0.141
0.011
-0.022
0.026
0.067
0.012
-0.032
-0.011
-0.007
-0.014
-0.034
0.012
0.055
-0.090
-0.073
-0.029
0.009
0.144
-0.050
0.079
-0.005
0.051
0.029
0.025
0.039
-0.032
0.004
0.026
0.095
0.079
-0.076
0.010
-0.016
-0.058
-0.047
0.003
0.040
0.017
0.053
-0.017
0.007
0.090
0.026
0.152
-0.059
-0.001
-0.003
-0.051
-0.009
-0.091
0.090
0.122
-0.008
0.067
0.113
-0.154
-0.011
-0.061
-0.070
-0.047
0.239
0.024
0.008
-0.137
0.046
0.119
0.023
0.085
-0.100
0.047
0.041
-0.047
0.041
0.023
-0.001
0.005
0.096
0.121
0.025
-0.083
0.042
0.096
0.111
-0.188
-0.018
-0.014
0.179
-0.006
-0.058
0.040
0.053
0.080
-0.004
0.074
-0.064
0.116
-0.005
0.083
0.062
-0.072
-0.077
0.008
0.106
0.057
0.083
0.049
0.016
0.020
0.020
-0.063
0.151
0.054
-0.033
0.046
-0.013
0.045
-0.028
0.111
-0.044
-0.086
-0.065
0.139
-0.053
0.003
0.049
-0.057
-0.028
0.139
-0.075
-0.145
-0.097
0.129
0.037
-0.078
0.061
-0.051
0.087
0.082
-0.029
-0.063
-0.116
0.064
0.078
0.124
-0.019
-0.181
-0.073
-0.014
0.007
0.115
-0.009
0.024
0.039
0.017
-0.011
0.072
0.033
-0.007
0.002
0.079
0.004
0.018
0.100
-0.109
0.070
-0.010
0.116
-0.088
-0.082
0.013
0.211
-0.026
0.053
0.019
0.106
-0.030
0.007
-0.001
0.034
0.016
-0.031
0.143
0.011
0.103
-0.049
-0.048
-0.029
0.005
0.102
0.056
-0.007
0.042
0.023
0.024
0.110
0.053
-0.071
0.154
0.043
0.022
-0.047
-0.054
0.002
0.064
0.170
0.021
-0.113
-0.097
-0.061
0.059
-0.036
0.097
-0.006
-0.019
0.048
-0.058
-0.077
-0.045
-0.001
0.018
0.073
0.039
0.013
-0.129
0.007
0.182
0.066
0.073
-0.016
-0.060
0.120
0.000
-0.012
0.019
-0.028
-0.035
0.073
0.041
0.063
-0.022
0.052
-0.012
-0.003
-0.077
0.089
-0.022
0.007
0.002
0.004
-0.072
0.031
0.017
0.009
0.054
-0.031
-0.046
0.114
0.037
-0.034
0.024
0.028
0.099
0.037
0.109
-0.125
-0.024
-0.036
0.054
0.105
0.029
0.053
-0.030
0.124
-0.047
0.033
0.031
-0.019
0.096
0.001
0.009
-0.161
0.124
-0.084
-0.011
0.006
-0.073
0.051
0.009
0.127
-0.011
-0.084
0.043
0.068
-0.010
0.035
0.152
0.056
0.030
0.010
-0.029
0.092
-0.057
0.102
0.070
-0.090
0.034
0.019
0.020
0.067
-0.047
0.020
0.075
-0.072
0.063
0.084
0.035
-0.075
0.074
0.024
-0.024
0.063
0.094
-0.094
0.038
-0.035
-0.081
0.101
0.042
0.043
0.029
-0.040
0.033
0.106
-0.030
0.049
0.006
-0.049
-0.019
0.071
-0.075
-0.001
0.056
0.159
-0.025
-0.001
0.008
-0.041
0.005
0.161
0.040
-0.041
-0.024
0.078
-0.015
-0.114
-0.055
0.089
0.097
0.004
0.024
0.027
-0.160
0.051
-0.096
0.190
-0.010
-0.056
-0.023
0.036
0.070
0.022
-0.011
0.116
0.048
-0.066
-0.015
-0.021
0.076
0.169
-0.105
-0.081
0.089
0.088
0.233
-0.004
-0.106
0.075
-0.054
0.062
-0.097
0.042
0.009
-0.012
0.037
0.069
0.062
-0.030
-0.066
0.031
-0.029
0.033
0.036
0.109
-0.004
-0.082
0.095
0.041
0.095
-0.017
-0.051
0.020
-0.026
0.135
-0.040
-0.012
0.044
-0.004
0.007
0.052
0.137
-0.102
-0.106
-0.012
0.096
0.099
-0.022
-0.010
0.005
0.041
-0.038
-0.052
0.039
0.155
0.042
0.049
-0.065
0.105
-0.026
0.005
0.037
-0.073
0.115
0.003
0.001
-0.001
-0.029
0.083
0.060
0.155
-0.076
-0.065
0.091
0.110
0.004
-0.026
0.159
-0.024
-0.028
-0.048
0.074
0.001
0.038
-0.119
0.102
0.139
-0.085
-0.004
-0.038
0.016
-0.054
-0.009
0.070
0.059
0.037
0.074
-0.071
0.219
-0.039
-0.140
0.008
-0.071
0.033
-0.053
0.127
0.066
-0.031
-0.187
-2.520
-3.828
-3.862
-0.812
3.261
3.971
1.617
-1.182
-2.172
-2.020
-0.593
1.390
2.102
2.099
2.248
2.240
2.121
1.922
1.643
1.225
0.736
0.112
-0.313
-0.686
-0.870
-1.148
-1.117
-0.946
-0.835
-0.859
-0.642
-0.558
-0.319
-0.235
0.028
-0.165
0.092
-0.083
0.122
0.042
0.057
0.065
0.103
0.174
0.101
0.220
0.193
0.208
0.188
0.276
0.312
0.286
0.410
0.332
0.259
0.383
0.320
0.428
0.385
0.372
0.345
0.371
0.304
0.248
0.221
0.267
0.313
0.154
0.194
0.220
0.205
0.349
0.198
0.095
-0.073
0.003
0.038
0.071
-0.073
0.116
0.046
-0.005
-0.119
-0.067
-0.120
-0.032
-0.014
-0.070
-0.039
-0.061
-0.162
-0.315
-0.037
-0.067
-0.169
-0.243
-0.095
-0.188
-0.101
-0.155
-0.116
-0.124
-0.104
-0.171
-0.083
-0.098
-0.126
-0.053
-0.047
0.012
-0.056
-0.003
0.104
-0.036
0.059
-0.057
-0.036
0.002
0.076
0.083
0.047
-0.026
0.037
-0.009
0.149
0.047
-0.003
0.044
0.077
0.024
0.030
0.143
0.014
0.058
-0.029
0.082
0.110
0.006
0.007
0.123
-0.076
-0.035
0.223
0.084
0.001
-0.030
0.137
0.043
-0.017
0.092
0.079
0.088
0.087
0.019
0.115
0.006
0.005
0.010
0.049
0.149
-0.050
-0.003
-0.047
0.041
0.193
-0.034
0.005
0.042
-0.091
0.015
-0.047
-0.000
0.085
-0.008
0.014
0.012
0.128
-0.111
0.134
0.088
0.072
0.103
-0.061
0.009
0.199
0.097
0.006
0.065
-0.041
0.060
-0.013
0.058
-0.026
0.038
0.011
0.123
-0.065
0.004
-0.020
0.062
0.112
0.102
-0.061
-0.029
0.039
-0.039
-0.004
0.022
0.048
-0.112
-0.020
-0.066
0.064
0.071
0.025
-0.012
-0.061
0.003
0.066
-0.121
0.035
0.006
0.023
0.075
0.019
-0.039
-0.080
0.145
-0.103
-0.127
-0.025
-0.088
0.044
-0.035
-0.039
0.018
0.048
-0.020
0.069
0.064
-0.018
0.060
0.023
0.057
0.002
-0.020
0.096
-0.054
-0.048
0.053
-0.027
0.105
0.171
0.209
0.003
0.042
0.000
0.033
0.023
0.133
-0.075
0.159
0.158
0.160
0.038
-0.014
0.052
0.028
0.044
0.103
-0.014
0.007
0.062
0.163
-0.037
-0.004
0.119
0.029
-0.037
0.100
-0.019
-0.007
0.060
-0.046
-0.005
0.070
-0.036
0.093
0.101
-0.088
-0.030
0.032
0.008
0.031
0.046
-0.095
-0.066
-0.006
0.040
0.001
-0.128
0.011
0.024
-0.121
-0.068
-0.019
0.039
-2.502
0.375
2.518
2.252
0.919
-0.215
-0.770
-0.810
-0.472
-0.143
-0.062
0.023
-3.191
1.123
3.540
4.212
3.861
-1.405
-3.870
-4.504
-3.989
-0.985
2.488
4.054
4.421
4.414
4.284
4.135
3.491
2.021
0.253
-1.084
-2.138
-2.681
-2.792
-2.461
-2.212
-1.663
-1.006
-0.494
-0.145
0.313
0.606
0.712
0.784
0.723
0.581
0.577
0.615
0.479
0.566
0.389
0.445
0.424
0.496
0.518
0.571
0.477
0.543
0.586
0.584
0.479
0.457
0.586
0.495
0.418
0.446
0.407
0.337
0.319
0.240
0.310
0.238
0.200
0.282
0.050
0.183
-0.043
0.010
0.002
-0.109
-0.060
-0.218
-0.118
-0.167
-0.172
-0.195
-0.127
-0.333
-0.295
-0.313
-0.267
-0.232
-0.340
-0.295
-0.250
-0.366
-0.334
-0.303
-0.257
-0.397
-0.140
-0.291
-0.176
-0.177
-0.174
-0.282
-0.141
-0.157
-0.111
-0.215
-0.102
-0.110
-0.205
-0.067
-0.000
0.085
-0.053
-0.032
-0.066
0.045
-0.097
0.013
0.146
0.096
-0.027
0.177
0.051
0.109
0.126
0.102
0.019
0.115
0.220
-0.033
0.077
0.162
0.139
0.005
-0.017
0.085
0.113
0.071
0.096
0.068
-0.009
0.107
0.013
0.099
0.091
0.092
-0.011
0.003
0.067
0.071
0.010
0.046
0.062
-0.044
0.067
0.113
-0.012
-0.033
0.074
0.022
-0.022
0.050
0.065
0.081
0.140
-0.055
0.047
0.081
0.079
0.024
-0.013
0.258
-0.005
0.095
0.074
0.077
-0.054
0.044
0.131
-0.103
0.025
0.072
0.032
0.063
0.009
0.024
0.027
0.103
-0.030
-0.010
0.146
0.052
0.036
-0.011
0.029
-0.022
0.006
0.089
0.052
-0.082
-0.045
-0.026
0.052
0.033
0.020
-0.070
0.104
-0.047
-0.037
-0.116
0.015
-0.011
0.174
-0.044
-0.025
-0.059
-0.026
-0.132
-0.153
0.172
-0.097
-0.004
-0.109
-0.109
-0.019
-0.067
-0.039
-0.026
0.067
-0.029
-0.061
0.143
0.038
0.091
0.044
0.006
-0.092
-0.024
0.073
-0.022
-0.012
0.107
0.192
0.091
0.107
0.097
-0.084
0.022
0.138
0.031
0.006
0.135
0.086
0.102
0.062
0.017
0.178
0.111
0.082
0.089
-0.009
-0.032
0.117
-0.042
0.077
0.091
-0.048
0.101
0.167
-0.051
0.016
0.009
0.035
0.067
0.084
0.024
0.142
-0.105
-0.060
0.037
0.164
-0.038
-0.045
-0.082
0.013
0.111
-0.153
-0.094
-0.034
-0.038
-0.013
-0.068
-0.078
-0.049
-0.014
-0.051
0.108
-0.028
-0.034
0.024
-0.064
0.013
-0.126
0.054
-0.020
-0.043
-0.104
-0.051
0.072
0.079
-0.009
-0.061
0.049
-0.014
-0.080
-0.063
0.018
0.097
0.159
0.070
-0.020
0.003
0.002
0.087
0.110
-0.011
-0.010
0.042
-0.040
0.038
0.035
0.089
0.080
0.077
0.043
0.017
-0.062
-0.016
0.214
-0.032
0.005
0.104
0.008
-0.028
-0.036
0.076
0.057
0.010
0.124
0.055
0.015
0.020
-0.072
-0.024
0.228
0.081
0.092
0.013
0.008
-0.070
0.010
0.148
0.082
-0.023
-0.017
-0.042
0.001
0.062
-0.037
0.102
0.029
-0.026
0.147
0.045
-0.091
-0.026
-0.025
0.062
0.080
-0.022
-0.057
0.049
-0.084
0.069
-0.052
-0.116
-0.007
-0.013
0.080
0.018
-0.031
-0.003
0.007
0.047
0.015
0.056
0.018
-0.023
-0.043
0.035
0.131
0.116
0.006
-0.126
0.132
0.055
-0.071
0.036
-0.034
0.015
-0.055
0.005
0.112
-0.073
0.019
0.070
0.010
0.025
-0.042
0.090
0.035
0.003
-0.026
0.065
0.061
0.012
0.016
0.012
0.000
0.083
0.093
-0.023
-0.015
0.057
-0.006
0.097
-0.078
0.109
-0.030
0.012
-0.049
0.104
0.094
0.027
0.023
-0.016
-0.075
0.028
0.081
0.133
-0.004
-0.012
-0.013
-0.140
0.178
0.039
-0.004
0.003
-0.061
0.058
0.011
0.123
-0.031
0.032
0.057
-0.028
-0.004
0.067
0.024
0.109
0.004
0.081
-0.019
0.018
0.058
0.099
-0.094
0.056
-0.075
-0.024
0.013
0.003
0.051
-0.031
-0.043
0.130
-0.067
0.050
0.030
0.073
0.056
-0.064
0.029
-0.018
0.009
0.169
0.034
-0.106
-0.099
-0.021
0.012
0.117
0.135
-0.082
-0.033
-0.159
0.068
0.152
0.028
0.188
0.007
-0.033
0.024
-0.071
0.073
0.005
0.004
0.072
-0.034
-0.017
0.063
0.007
0.068
-0.002
-0.048
0.051
0.117
0.013
-0.021
-0.040
0.020
0.106
0.106
-0.018
0.004
-0.021
0.012
-0.043
0.111
0.213
0.048
-0.049
-0.126
0.077
0.042
0.071
-0.022
0.149
-0.032
-0.056
0.058
-0.028
-0.036
0.117
0.035
0.036
0.068
0.052
-0.124
0.020
0.042
0.040
0.046
-0.018
0.122
0.091
-0.072
0.116
0.020
0.000
0.055
0.046
-0.031
0.073
0.108
-0.049
-0.047
0.012
-0.087
0.082
0.023
0.031
0.089
-0.096
-0.157
0.013
0.067
0.198
0.113
0.022
-0.004
-0.035
0.017
0.088
0.057
-0.044
-0.066
0.177
0.016
-0.011
0.175
0.015
0.033
0.015
-0.036
0.134
-0.008
-0.053
-0.081
0.090
0.051
-0.017
0.081
-0.021
0.004
0.069
-0.018
0.021
0.058
0.108
0.014
-0.022
0.097
0.066
-0.004
-0.080
0.021
0.012
0.126
-0.078
-0.040
0.051
-0.005
0.021
0.219
-0.031
-0.134
0.009
0.077
0.135
0.014
-0.039
0.047
0.005
0.109
0.047
0.005
-0.049
0.041
0.028
0.112
-0.000
0.063
-0.131
0.099
-0.099
0.070
0.005
0.179
0.012
0.051
-0.043
0.029
0.124
0.052
-0.031
0.020
-0.041
0.083
-0.003
-0.033
-0.134
0.022
0.061
0.058
0.111
0.025
0.067
0.019
0.014
0.014
-0.058
0.063
0.063
-0.009
-0.028
-0.011
0.086
-0.089
0.119
-0.061
0.129
-0.027
-0.136
0.037
0.191
0.001
0.047
0.029
-0.001
0.055
-0.044
0.070
-0.104
-0.018
0.022
-0.053
-0.010
0.060
0.022
0.112
0.067
0.034
0.099
-0.013
0.093
0.011
-0.049
0.062
0.056
0.003
-0.077
0.010
0.025
0.058
-0.018
0.041
-0.074
0.098
-0.012
0.003
0.109
0.031
-0.118
0.066
-0.085
-0.051
0.064
0.007
0.078
0.001
-0.074
0.048
-0.010
0.157
-0.090
0.022
-0.043
0.085
0.138
0.003
-0.086
0.040
0.095
0.124
-0.068
-0.003
0.047
-0.038
-0.086
-0.020
0.036
0.160
-0.021
-0.016
-0.061
-0.002
-0.074
0.104
0.077
-0.007
-0.026
0.131
0.079
-0.075
-0.091
0.048
0.016
0.084
0.073
-0.097
0.037
-0.084
-0.076
0.025
0.069
-0.055
0.037
-0.014
-0.059
-0.009
0.028
0.106
-0.112
0.021
0.160
-0.147
-0.103
0.082
-0.033
0.090
-0.052
0.051
-0.049
0.085
0.013
-0.020
0.111
-0.004
-0.018
-0.012
0.043
-0.018
0.026
0.016
0.020
0.086
-0.009
0.030
0.022
0.069
-0.062
0.066
-0.012
-0.085
0.051
0.141
-0.026
-0.069
-0.006
0.034
0.064
0.027
-0.007
0.057
-0.069
0.045
0.009
0.011
-0.030
0.055
0.145
-0.023
-0.075
-0.008
-0.053
-0.003
-0.022
0.106
0.035
0.084
0.040
-0.003
0.102
-0.047
0.006
0.108
-0.048
0.009
0.054
-0.023
-0.002
0.100
-0.049
-0.125
0.195
0.006
-0.053
0.060
0.210
-0.009
-0.004
0.036
0.019
-0.059
0.150
0.207
-0.012
-0.106
-0.019
-0.023
-0.000
0.139
0.089
-0.080
-0.029
0.089
-0.002
0.052
0.021
0.063
-0.066
0.041
0.025
-0.102
-0.011
-0.058
0.153
0.059
-0.046
-0.066
-0.031
-0.028
0.124
0.011
0.128
-0.018
0.024
-0.014
0.057
-0.077
-0.022
0.078
-0.089
0.055
0.035
0.093
0.054
-0.094
0.098
-0.098
0.107
0.014
-0.010
0.016
0.020
0.049
-0.022
0.132
-0.024
-0.043
0.000
0.004
0.089
0.061
0.111
-0.072
0.030
-0.016
0.006
-0.157
0.083
0.008
-0.121
0.103
0.094
0.096
-0.071
-0.003
0.002
0.095
0.018
-0.104
-0.004
0.061
0.033
0.091
-0.010
0.159
0.005
-0.003
-0.054
0.021
0.038
0.132
0.029
-0.083
0.020
-0.028
0.157
0.079
-0.035
-0.072
0.073
0.079
0.029
0.115
0.074
-0.032
0.034
-0.036
-0.008
-0.004
0.003
-0.061
0.084
0.061
0.101
-0.073
-0.030
-0.083
0.008
0.087
-0.003
0.087
-0.106
0.032
0.099
0.102
0.067
0.050
-0.047
-0.008
0.059
0.117
0.029
-0.122
0.052
0.160
-0.062
-0.013
-0.125
0.102
0.008
0.009
-0.048
0.056
-0.004
0.021
0.018
0.150
-0.071
0.111
-0.094
0.083
-0.019
0.013
0.051
0.006
0.056
0.004
0.012
0.009
-0.080
0.036
0.065
0.010
0.006
0.098
-0.077
-0.040
0.121
0.029
0.051
-0.068
0.088
0.047
-0.003
-0.027
0.008
0.047
0.035
0.020
-0.034
-0.046
-0.006
-0.051
0.036
-0.062
0.033
0.165
0.137
0.068
-0.037
0.009
0.034
0.075
0.009
-0.009
-0.005
0.020
0.096
-0.021
-0.074
0.102
0.044
0.055
-0.063
-0.065
-0.059
0.057
0.033
0.092
0.145
-0.021
-0.074
0.031
-0.006
-0.044
0.071
-0.004
0.013
-0.081
-0.012
-0.004
0.022
0.019
0.115
0.008
0.107
-0.049
-0.028
0.025
0.068
0.058
0.039
-0.066
0.097
0.003
0.177
0.090
-0.015
-0.056
-0.000
0.091
-0.074
-0.006
0.001
0.005
0.109
-0.087
-0.051
0.062
-0.058
0.052
-0.026
0.024
0.117
-0.043
-0.042
0.008
-0.055
-0.004
-0.025
0.122
-0.007
-0.046
-0.054
0.090
0.045
0.061
-0.009
-0.008
0.022
0.037
0.040
0.079
0.019
-0.034
0.154
0.086
-0.097
0.097
-0.090
0.116
0.077
0.113
-0.205
0.096
-0.014
0.087
-0.053
0.054
-0.050
0.082
0.011
0.021
-0.066
0.053
0.062
-0.021
-0.084
-0.050
0.045
0.064
0.150
-0.070
-0.043
0.045
0.032
-0.112
0.070
0.118
-0.019
-0.119
0.166
0.102
-0.001
0.140
-0.068
0.023
0.094
0.078
-0.039
-0.007
0.029
0.019
0.099
0.059
0.007
-0.131
-0.073
-0.057
0.102
0.076
0.137
0.008
-0.099
0.035
-0.086
-0.014
-0.033
0.107
0.062
-0.116
0.011
0.078
0.048
-0.012
-0.039
0.077
-0.051
0.047
0.041
0.082
0.002
-0.023
-0.005
0.029
-0.005
-0.054
0.065
0.133
-0.010
0.066
-0.031
-0.024
0.123
-0.005
0.088
-0.055
-0.009
-0.023
0.017
0.086
0.047
0.067
0.114
-0.157
0.054
0.096
-0.044
0.104
-0.058
0.042
-0.052
0.021
0.089
-0.040
0.000
0.081
-0.022
-0.058
-0.006
-0.006
-0.017
0.057
0.055
0.069
-0.034
0.054
0.081
0.091
0.029
-0.009
-0.005
0.020
0.075
-0.138
0.076
-0.062
0.031
0.120
-0.044
-0.056
0.085
0.090
0.161
0.035
-0.039
-0.080
-0.246
0.002
-0.021
0.022
-0.137
-0.085
0.187
0.189
-0.419
-0.517
0.311
0.359
0.273
0.200
-0.014
0.131
-0.018
0.100
0.005
0.044
0.137
0.244
0.059
0.109
0.012
-0.049
-0.005
-0.024
-0.054
-0.132
-0.038
-0.067
-0.129
-0.196
-0.238
0.011
0.015
-0.126
-0.009
0.046
-0.087
-0.022
-0.059
0.043
-0.177
-0.037
-0.007
-0.131
-0.111
-0.048
0.032
0.181
-0.034
-0.927
-0.928
-0.382
0.030
0.462
0.582
0.312
-1.244
-1.204
0.354
0.655
-2.880
-2.153
2.641
4.126
4.444
1.095
-3.003
-4.205
-4.252
-1.782
1.856
3.862
4.356
4.367
4.227
4.043
3.744
2.381
0.695
-0.832
-2.006
-2.948
-3.166
-2.947
-2.564
-2.153
-1.562
-0.953
-0.428
-0.125
0.309
0.422
0.505
0.583
0.462
0.386
0.429
0.366
0.271
0.279
0.266
0.222
0.392
0.338
0.318
0.399
0.486
0.508
0.545
0.559
0.622
0.532
0.576
0.557
0.435
0.312
0.356
0.413
0.347
0.484
0.285
0.263
0.317
0.086
0.247
0.175
0.015
0.265
-0.024
0.052
-0.023
0.012
-0.004
-0.068
-0.164
-0.115
-0.111
-0.168
-0.132
-0.245
-0.301
-0.095
-0.364
-0.174
-0.157
-0.167
-0.240
-0.313
-0.320
-0.292
-0.199
-0.303
-0.262
-0.168
-0.100
-2.301
-2.988
-4.066
-0.642
3.156
4.243
4.433
-0.427
-3.444
-4.276
-3.919
-0.748
2.713
4.177
4.488
4.461
4.302
4.134
3.793
2.338
0.526
-1.064
-2.273
-2.918
-3.191
-2.862
-2.602
-2.007
-1.400
-0.766
-0.330
0.131
0.352
0.503
0.654
0.672
0.565
0.537
0.447
0.407
0.126
0.314
0.346
0.265
0.207
0.369
0.373
0.446
0.476
0.436
0.486
0.451
0.466
0.453
0.396
0.361
0.414
0.434
0.145
0.358
0.313
0.298
0.279
0.267
0.143
0.091
0.149
0.069
0.116
0.056
0.096
-0.002
-0.028
-0.019
0.034
-0.047
0.003
-0.164
-1.015
-0.146
0.236
0.301
0.017
-0.226
-0.249
-0.209
-0.341
-0.223
-0.145
-0.122
-0.111
-0.080
-0.074
-0.122
-0.037
-0.166
-0.175
-0.188
-0.240
-0.226
-0.229
-0.160
-0.203
-0.150
-0.139
-0.132
-0.188
-0.110
-0.034
0.056
-0.087
-0.046
-0.044
0.049
-0.068
-0.027
-0.148
0.035
0.005
0.038
-0.080
0.201
0.095
0.079
-0.042
-0.015
0.090
0.031
0.038
0.081
-0.062
0.041
0.146
0.065
0.121
0.081
-0.037
0.060
0.071
0.045
0.119
0.168
0.070
0.074
0.089
-0.037
0.084
0.036
0.101
0.132
0.106
0.094
0.082
0.051
0.018
0.182
0.098
-0.137
0.004
0.158
0.031
-0.032
0.085
0.067
0.116
0.107
0.086
-0.010
0.110
0.100
0.063
0.132
0.125
-0.079
-0.010
0.034
0.050
-0.100
-0.086
-0.314
-0.392
-0.782
-0.008
0.423
0.375
-0.011
-0.244
-0.300
-0.289
-0.455
-0.934
-1.299
-0.669
0.088
0.315
-1.531
-2.719
0.733
1.811
1.371
0.298
-0.535
-0.709
-0.471
-0.081
0.789
1.218
1.148
0.824
0.708
-0.091
-0.269
-0.153
-0.332
-0.329
-0.404
-0.378
-0.565
-0.711
-0.807
-0.756
-0.639
-0.429
-0.270
-0.102
-0.114
-0.125
0.086
-0.083
0.003
0.013
0.288
0.227
0.143
0.024
0.066
0.121
-0.026
0.077
0.004
-0.056
0.135
0.081
0.059
-0.016
0.118
0.374
0.144
0.306
-0.016
-0.050
0.026
0.025
0.052
0.289
0.499
0.795
0.563
0.337
0.120
0.269
0.361
0.410
0.440
0.439
0.396
0.270
0.176
0.217
0.083
-0.028
0.003
-0.068
-0.016
0.086
0.057
-0.041
0.040
-0.105
-0.116
0.077
-0.145
-0.042
-0.061
0.119
0.164
0.125
0.073
0.019
0.036
-0.013
0.089
0.074
-0.000
0.050
0.186
0.038
0.019
0.042
-0.062
0.142
-0.083
0.032
0.056
-0.112
-0.123
0.021
0.038
-0.034
-0.003
-0.072
-0.128
-0.077
-0.139
0.075
0.003
-0.074
-0.038
0.052
-0.005
-0.151
-0.023
0.011
-0.072
-0.158
0.033
0.585
0.547
0.388
0.093
0.040
0.127
0.131
0.199
0.295
0.218
0.054
0.148
0.149
0.042
0.108
0.023
-0.079
-0.200
-0.142
-0.155
-0.196
-0.112
-0.106
0.030
0.137
0.056
-0.098
0.012
0.039
0.130
0.056
0.110
0.115
0.123
0.040
0.129
0.143
0.131
0.176
0.149
0.030
0.085
0.109
0.170
0.097
0.118
0.154
0.135
0.245
0.004
0.193
0.031
0.022
0.094
0.096
0.091
0.144
0.085
0.053
-0.077
-0.028
0.019
0.068
-0.043
0.105
-0.077
-0.046
-0.001
-0.036
-0.101
-0.038
-0.075
-0.058
0.065
-0.030
-0.185
-0.119
-0.048
0.014
-0.080
0.003
-0.071
0.028
0.012
-0.044
-0.201
0.006
-0.079
-0.030
-0.016
-0.024
-0.055
0.017
0.002
0.068
-0.023
-0.069
-0.042
0.002
-0.006
0.078
-0.083
-0.124
-0.035
0.029
0.002
-0.055
-0.001
-0.138
-0.087
0.128
0.169
-0.051
-0.069
0.123
-0.019
0.010
0.048
-0.006
-0.062
0.045
-0.006
-0.001
0.034
0.074
0.074
-0.042
-0.042
0.091
0.078
0.065
-0.014
0.002
0.038
0.127
0.082
0.124
-0.126
0.004
0.028
-0.016
-0.021
0.109
0.012
-0.028
0.080
0.040
0.018
-0.072
0.156
0.027
0.003
0.043
0.043
0.018
0.135
-0.067
0.090
0.025
-0.007
0.059
0.064
0.016
0.027
-0.017
0.028
-0.046
0.059
0.050
-0.091
0.005
0.069
-0.108
0.140
0.141
-0.072
0.158
-0.083
-0.086
-0.071
0.065
-0.138
0.077
-0.026
0.015
0.031
0.059
0.107
-0.226
0.047
0.011
-0.098
0.051
-0.001
0.090
0.034
0.036
-0.052
-0.051
0.085
-0.061
-0.074
0.105
0.094
-0.016
0.060
0.020
-0.023
-0.063
-0.025
-0.028
0.101
0.065
-0.096
0.059
0.057
0.117
0.025
-0.063
0.050
-0.039
-0.044
0.069
-0.058
0.119
0.070
0.089
-0.072
0.020
0.166
0.008
0.023
0.027
-0.028
0.062
0.021
-0.043
0.085
0.118
-0.004
-0.080
0.037
0.020
0.096
0.105
0.017
-0.004
0.028
0.114
0.046
-0.022
-0.068
0.163
0.024
0.077
-0.075
0.012
-0.090
0.056
0.066
0.113
0.060
-0.029
-0.031
0.044
-0.002
-0.100
-0.043
0.069
0.078
0.101
-0.049
0.002
0.037
-0.016
-0.022
0.036
0.007
0.006
0.050
-0.055
-0.036
-0.029
0.060
0.076
0.027
-0.030
0.097
-0.006
-0.076
0.123
0.036
0.040
-0.063
0.004
-0.020
-0.009
-0.050
0.037
-0.025
-0.088
-0.011
-0.053
0.238
0.038
-0.001
-0.053
-0.040
0.047
0.009
-0.037
0.069
0.048
0.064
0.022
0.042
0.160
-0.114
-0.031
0.099
0.019
-0.080
0.028
0.105
0.012
-0.025
-0.029
0.120
0.058
0.018
0.084
0.049
-0.080
0.073
0.138
-0.006
-0.002
0.009
-0.045
0.048
0.048
0.013
-0.067
0.009
-0.062
0.151
0.116
-0.060
0.023
-0.065
0.071
0.022
0.017
0.107
-0.095
-0.054
-0.002
0.145
-0.010
0.112
0.027
0.043
-0.115
0.126
0.074
-0.091
0.065
0.055
0.121
-0.086
-0.002
-0.042
-0.064
0.045
-0.028
-0.020
0.150
-0.101
0.039
-0.009
0.013
0.018
0.054
0.037
-0.022
-0.014
0.102
0.005
-0.025
0.124
-0.047
0.053
0.126
0.002
-0.112
-0.062
0.087
0.090
-0.005
0.005
0.057
-0.075
-0.070
0.030
0.025
0.061
0.137
0.054
0.026
-0.087
0.052
0.068
0.013
-0.013
0.047
-0.007
0.006
-0.048
0.044
-0.025
0.060
-0.011
0.067
0.016
0.094
0.104
-0.181
0.077
-0.029
0.095
-0.084
0.100
0.191
-0.003
-0.002
-0.011
0.088
0.107
0.158
-0.134
-0.008
0.002
0.101
-0.056
-0.075
0.001
-0.005
0.038
0.064
0.011
0.025
0.032
0.079
-0.046
0.113
0.011
0.037
-0.014
0.058
0.012
0.100
-0.035
0.010
-0.027
-0.033
-0.103
-0.371
0.054
0.089
0.131
-1.274
-2.818
0.168
2.002
1.699
0.799
-0.086
-0.339
-0.444
-0.292
-0.012
0.436
0.629
0.648
0.545
0.555
0.443
0.247
0.065
-0.079
-0.052
-0.182
-0.472
-0.441
-0.270
-0.214
-0.218
-0.096
-0.147
-0.138
-0.020
0.039
-0.021
0.053
0.009
0.033
0.035
-0.020
-0.010
0.139
0.183
-0.007
0.035
0.141
0.012
0.176
0.090
-0.019
-0.007
0.048
0.098
0.057
0.154
0.215
-0.063
0.094
0.077
0.004
0.011
0.118
-0.039
0.175
0.146
0.042
0.098
0.055
0.031
0.034
-0.097
0.146
-0.001
0.101
0.120
0.090
-0.007
-0.044
-0.118
0.021
0.155
0.033
-0.072
-0.074
-0.055
0.149
-0.074
-0.061
0.081
-0.065
-0.034
0.027
-0.060
-0.144
-0.059
-0.021
0.034
0.106
-0.099
-0.066
0.005
0.012
0.098
-0.022
-0.037
-0.068
0.055
0.045
0.054
0.041
-0.053
-0.091
0.073
-0.025
0.110
-0.042
0.011
-0.092
0.071
0.025
0.145
0.082
0.007
0.015
-0.058
0.049
0.086
-0.154
0.016
0.080
-0.004
0.028
0.117
-0.032
0.053
0.012
0.011
-0.021
0.172
0.045
0.061
-0.082
0.008
0.054
0.016
0.018
-0.019
0.048
-0.115
-0.012
0.028
0.102
0.073
-0.060
-0.089
-0.031
0.100
-0.004
0.063
0.112
-0.029
-0.045
0.045
0.082
0.025
-0.013
0.048
-0.036
-0.059
-0.068
-0.025
-0.020
0.121
0.053
0.014
-0.090
-0.082
-0.278
-0.189
-0.106
0.062
0.340
0.262
0.137
0.143
-0.004
-0.105
0.091
0.085
0.109
0.098
0.093
0.214
0.197
0.059
0.089
-0.068
-0.091
-0.058
-0.027
-0.069
-0.007
-0.007
-0.081
0.047
-0.067
-0.022
0.005
0.060
-0.040
-0.007
-0.085
0.043
0.210
0.097
-0.172
0.043
-0.029
0.024
0.040
0.055
-0.001
0.159
0.053
-0.023
-0.157
0.081
-0.031
0.014
0.028
0.173
0.065
-0.049
-0.010
-0.018
0.171
-0.099
0.077
0.069
0.111
0.027
0.061
-0.006
0.056
0.011
0.012
0.108
0.066
0.093
0.072
-0.072
-0.044
-0.014
-0.002
0.081
0.068
0.146
0.055
0.120
-0.069
-0.052
0.078
-0.011
0.104
0.080
-0.011
-0.051
-0.031
0.068
-0.058
0.055
-0.047
0.025
0.003
-0.050
0.025
-0.032
-0.072
0.067
0.003
-0.015
0.018
0.117
0.060
0.022
0.076
0.038
-0.068
-0.065
0.016
-0.017
0.073
-0.002
-0.021
0.005
0.113
0.048
-0.032
0.003
0.094
-0.076
0.002
-0.004
0.104
0.112
-0.057
-0.022
0.005
-0.012
0.037
-0.079
-0.027
0.054
-0.068
-0.022
0.013
0.061
-0.021
0.000
-0.006
-0.021
0.016
0.027
0.016
0.121
-0.098
0.038
0.067
0.003
-0.028
-0.001
0.055
-0.038
0.067
0.031
0.030
-0.011
0.044
0.001
0.002
0.170
-0.075
-0.016
0.171
-0.013
-0.105
-0.003
0.110
0.124
-0.028
-0.046
-0.025
0.093
-0.111
0.022
0.013
0.022
-0.056
-0.023
-0.274
-3.137
-4.030
-3.043
2.366
4.175
4.590
0.724
-2.975
-4.036
-4.262
-2.680
2.039
4.065
4.601
4.625
4.459
4.275
4.053
3.869
3.302
1.206
-1.116
-2.604
-3.753
-4.167
-3.918
-3.385
-2.596
-1.670
-0.795
-0.158
0.458
0.638
0.836
0.805
0.892
0.684
0.539
0.542
0.312
0.485
1.751
1.550
0.952
0.462
0.350
0.346
0.638
0.804
0.754
1.125
1.024
0.689
0.623
0.306
0.047
-0.069
0.011
-0.049
-0.187
-0.033
-0.016
0.045
-0.001
0.145
0.241
0.205
0.230
0.271
0.310
0.287
0.191
0.088
0.148
0.198
0.302
0.143
0.001
0.009
0.173
0.131
0.041
0.076
0.025
0.072
-0.023
-0.065
-0.014
-0.019
-0.239
-0.168
-0.076
-0.049
-0.082
-0.169
-0.260
-0.201
-0.098
-0.126
-0.208
-0.138
-0.211
-0.230
-0.188
-0.238
-0.190
-0.208
-0.199
-0.173
-0.189
-0.166
-0.037
-0.086
-0.140
-0.202
-0.128
-0.241
-0.170
-0.088
-0.041
-0.109
-0.138
-0.147
-0.002
-0.186
-0.124
-0.085
-0.028
-0.102
-0.063
-2.992
1.073
3.549
4.225
3.603
0.551
-2.583
-4.149
-3.397
-1.425
0.786
3.153
4.121
0.802
1.801
3.515
3.961
3.720
1.936
-0.248
-1.604
-2.273
-2.492
-2.172
-1.488
-1.115
-0.436
0.016
0.260
0.408
0.654
0.604
0.349
0.310
0.385
0.194
0.264
0.244
0.417
0.313
0.303
0.353
0.409
0.572
0.497
0.540
0.580
0.624
0.458
0.671
0.673
0.583
0.600
0.483
0.442
0.498
0.352
0.427
0.385
0.379
0.285
0.184
0.266
0.294
0.158
0.185
0.038
0.138
-0.103
0.084
-0.054
-0.069
-0.051
0.005
-0.171
-0.079
-0.199
-0.291
-0.355
-0.231
-0.257
-0.230
-0.245
-0.273
-0.416
-0.420
-0.323
-0.321
-0.297
-0.325
-0.225
-0.324
-0.384
-1.718
-3.821
-4.250
-0.034
2.355
3.003
2.023
-0.007
-1.607
-1.825
-1.169
-3.284
-3.196
2.212
4.040
4.451
2.881
1.058
-0.120
-0.119
0.026
0.593
0.888
1.235
1.256
1.093
0.662
0.361
-0.051
-0.451
-0.857
-0.681
-0.817
-0.898
-0.827
-0.687
-0.448
-0.383
-0.135
-0.018
0.162
0.220
0.109
0.282
0.122
0.313
0.282
0.366
0.317
0.331
0.343
0.316
0.405
0.462
0.411
0.307
0.383
0.415
0.475
0.510
0.448
0.443
0.453
0.451
0.380
0.342
0.456
0.412
0.412
0.269
0.183
0.141
0.270
0.299
0.252
0.092
0.143
0.046
0.019
0.059
0.079
0.012
-0.073
-0.072
-0.079
-0.198
0.009
-0.076
-0.135
-0.132
-0.131
-0.230
-0.275
-0.310
-0.101
-0.148
-0.256
-0.290
-0.063
-0.146
-0.327
-0.254
-0.163
-0.217
-0.233
-0.163
-0.160
-0.171
-0.240
-0.069
-0.190
-0.093
-0.113
0.007
-0.218
-0.123
-0.119
-0.164
0.016
0.042
-0.026
0.005
-0.009
0.091
0.058
-0.114
0.003
-0.047
0.060
-0.005
0.042
0.070
0.109
0.125
-0.023
-0.046
0.065
0.107
0.102
0.235
-0.017
0.057
0.108
0.128
0.071
0.016
0.243
0.163
0.105
0.049
0.001
0.013
0.132
-0.109
0.125
0.128
0.100
0.065
0.071
-0.047
0.092
0.203
-0.091
-0.051
0.001
0.022
0.055
0.224
0.139
0.011
0.042
0.006
0.006
0.147
0.075
-0.035
0.103
0.027
0.023
0.013
0.040
0.138
-0.035
0.113
0.030
0.000
-0.016
0.019
0.063
0.030
-0.151
-0.083
0.006
0.076
0.012
0.099
-0.051
-0.108
0.005
0.019
-0.027
-0.061
0.174
-0.079
-0.102
-0.081
0.010
0.049
0.093
-0.055
-0.100
0.001
0.029
-0.100
-0.130
0.048
0.071
-0.141
-0.163
-0.029
-0.008
0.109
-0.161
-0.041
0.052
0.042
-0.048
0.068
-0.020
0.063
-0.037
0.019
-0.078
0.085
0.087
-0.006
0.125
0.006
-0.057
-0.075
0.054
0.031
-0.021
0.098
0.109
0.146
-0.029
0.059
0.099
0.023
-0.036
0.069
0.165
0.157
0.020
0.017
0.069
0.078
-0.020
0.059
0.015
0.147
0.112
-0.077
0.039
0.033
0.167
0.091
-0.064
0.049
0.075
0.033
0.083
0.040
0.172
-0.023
-0.017
0.080
-0.009
0.033
0.024
0.028
-0.068
-0.072
0.063
-0.065
0.031
-0.001
-0.004
-0.098
-0.054
-0.073
-0.008
-0.003
-0.117
-0.033
-0.068
0.021
0.035
-0.030
-0.020
-0.017
-0.129
-0.029
0.050
0.020
-0.080
0.059
-0.196
-0.053
0.092
0.140
-0.083
-0.015
-0.085
0.028
0.002
0.087
0.091
-0.058
-0.079
0.070
-0.045
-0.019
0.040
0.123
0.031
0.024
0.057
0.002
-0.237
0.127
0.053
-0.101
0.098
-0.015
-0.006
0.122
-0.057
0.077
0.161
0.038
-0.075
0.100
0.046
0.043
0.182
0.058
-0.020
0.018
0.089
0.092
0.003
-0.066
0.136
-0.016
-0.019
0.027
-0.008
0.005
0.130
-0.096
-0.008
-0.011
-0.131
-0.003
0.046
0.078
-0.082
0.062
0.083
-0.030
0.001
-0.013
0.096
0.171
0.088
-0.026
-0.100
0.056
0.056
-0.060
0.037
0.001
-0.003
-0.017
0.040
0.121
-0.144
-0.043
0.003
0.050
0.036
-0.056
0.112
-0.025
-0.060
-0.004
0.016
-0.033
0.002
0.053
0.086
0.027
-0.070
-0.047
0.042
-0.111
0.042
0.037
0.036
-0.035
-0.065
0.169
0.053
0.077
-0.119
-0.106
0.107
0.013
-0.030
0.027
0.085
0.083
0.041
0.078
-0.029
-0.022
0.079
-0.009
-0.048
0.005
0.116
0.017
-0.041
0.124
0.097
0.053
0.084
0.087
-0.076
0.055
0.039
0.037
-0.037
0.140
0.011
0.106
-0.075
0.179
0.008
-0.072
0.165
0.049
0.031
-0.042
0.091
0.045
-0.056
-0.072
0.069
0.106
0.012
-0.001
0.040
0.142
0.113
-0.081
-0.062
0.140
-0.073
-0.044
0.056
0.141
0.073
-0.011
-0.037
-0.077
-0.028
0.074
0.013
-0.015
0.012
0.052
0.029
0.078
0.081
-0.184
0.097
-0.011
0.059
-0.021
0.054
0.103
0.051
-0.005
-0.080
0.032
-0.072
0.044
0.070
-0.056
-0.036
0.090
-0.048
0.054
0.037
0.063
-0.073
0.126
-0.012
0.128
-0.066
0.041
0.009
0.045
-0.063
0.025
0.055
-0.051
0.097
0.045
-0.043
0.012
0.024
0.057
0.025
0.134
-0.043
-0.084
-0.073
0.063
0.148
0.130
-0.138
0.172
0.057
-0.027
-0.051
-0.066
0.131
0.037
0.085
-0.044
-0.005
-0.055
-0.073
-0.014
0.125
0.074
0.060
0.045
-0.021
0.070
0.046
-0.017
0.140
0.006
0.007
0.094
-0.051
-0.002
0.105
0.124
-0.035
0.009
0.065
-0.051
-0.081
0.106
0.134
-0.067
0.023
0.005
0.049
0.060
-0.049
0.081
0.068
-0.167
-0.047
0.058
0.033
0.055
0.049
0.084
0.023
0.003
-0.053
0.056
0.035
0.052
0.107
-0.029
-0.019
-0.015
0.092
-0.122
0.077
0.180
0.085
-0.087
0.038
-0.049
-0.097
0.069
0.017
0.051
0.008
-0.048
0.095
-0.023
0.034
0.177
-0.046
0.008
-2.877
-3.966
2.018
3.955
4.412
0.633
-3.113
-4.159
-4.373
-0.454
3.241
4.315
4.504
4.430
4.275
4.074
3.673
1.193
-2.922
-4.613
-0.902
2.426
2.535
-0.017
-2.612
-4.086
-4.117
-3.108
-1.597
0.194
1.725
2.947
3.656
3.738
3.453
2.771
2.057
1.253
0.550
-0.004
-0.540
-0.837
-0.637
-0.693
-0.633
-0.261
-0.130
0.101
0.416
0.643
0.647
0.634
0.736
0.835
0.722
0.745
0.605
0.601
0.718
0.658
0.613
0.603
0.588
0.548
0.659
0.542
0.555
0.528
0.692
0.552
0.468
0.469
0.401
0.453
0.347
0.306
0.295
0.347
0.223
0.123
0.270
0.526
0.623
0.466
0.046
0.015
0.028
0.031
0.083
-0.177
0.040
-0.025
0.005
-0.167
-0.403
-0.236
-0.359
-0.388
-0.426
-0.429
-0.607
-0.545
-0.323
-0.178
-0.245
-0.200
-0.262
-0.276
-0.257
-0.119
0.014
-0.085
-0.104
-0.073
-0.032
-0.228
-0.139
0.081
-0.016
-0.044
-0.085
0.152
0.052
0.041
-0.027
-0.032
0.157
0.135
0.079
0.177
0.031
-0.074
0.222
0.217
0.061
0.067
-0.063
0.163
0.228
0.080
0.113
0.144
0.045
-0.056
-0.009
0.096
0.109
-0.112
0.033
0.063
0.046
-0.096
0.057
-0.095
0.116
-0.036
-0.071
0.080
-0.002
0.004
-0.011
0.006
0.040
-0.026
-0.067
0.025
-0.015
0.030
-0.048
0.054
0.051
-0.035
0.080
-0.024
-0.069
0.005
0.064
0.109
0.009
0.037
0.062
0.044
0.055
-0.082
0.247
0.018
-0.040
0.064
0.106
0.001
0.075
0.019
0.099
-0.018
-0.002
-0.071
0.037
0.042
0.147
-0.019
-0.016
0.097
-0.006
0.177
-0.024
0.095
0.034
-0.107
-0.038
-0.044
0.041
0.015
0.014
-0.039
-0.162
0.083
-0.027
-0.075
-0.099
-0.156
-0.143
-0.053
-0.065
0.050
-0.094
-0.055
0.063
-0.141
0.007
-0.081
0.066
-0.048
-0.141
0.054
-0.036
0.009
-0.164
-0.052
-0.007
-0.133
0.002
0.068
-0.028
0.083
0.040
-0.123
0.087
-0.009
0.056
0.155
0.027
0.023
0.113
0.109
0.103
0.007
0.131
0.109
0.049
0.044
0.148
0.046
0.092
0.067
0.004
0.127
0.075
0.051
0.008
-0.011
0.120
0.083
0.118
0.186
0.058
-0.073
0.041
0.005
0.031
0.023
-0.077
0.102
0.097
-0.113
-0.037
-0.023
-0.097
0.142
0.018
-0.040
-0.104
0.108
-0.156
0.017
-0.054
-0.039
0.014
0.008
-0.033
-0.053
-0.005
-0.039
-0.050
-0.047
-0.005
-0.066
-0.102
0.020
-0.130
-0.012
-0.016
-0.030
0.031
0.038
-0.013
-0.046
-0.040
0.000
0.033
-0.072
0.065
-0.008
-0.050
0.075
0.049
-0.002
-0.037
0.082
-0.073
-0.083
0.189
0.097
-0.009
-0.015
-0.013
0.026
0.131
0.132
0.055
0.055
0.051
0.004
0.062
0.028
-0.145
0.095
0.048
0.102
0.128
-0.051
0.045
0.041
0.053
0.009
0.109
0.006
0.028
-0.047
0.079
0.160
-0.016
-0.074
0.121
-0.005
-0.002
0.073
-0.008
0.022
0.154
-0.045
0.114
0.024
0.056
-0.080
0.026
-0.038
-0.037
0.101
0.126
0.077
0.067
-0.073
-0.036
-0.009
0.075
0.018
-0.141
0.027
0.011
0.036
0.091
-0.032
-0.019
0.040
-0.124
-2.842
-3.960
0.646
3.552
4.358
4.338
-0.590
-3.519
-4.307
-4.322
-1.487
2.576
4.128
4.493
4.074
4.186
4.130
3.955
3.793
2.558
0.421
-2.776
-3.541
-1.360
-1.002
-1.240
-1.435
-1.459
-2.544
-3.262
-0.314
1.761
2.061
1.307
0.641
-0.051
-0.272
-0.122
0.295
0.204
-0.181
0.559
0.905
1.091
1.099
0.978
0.787
0.828
0.662
0.597
0.527
0.560
0.453
0.596
0.526
0.539
0.576
0.548
0.567
0.507
0.457
0.555
0.596
0.305
0.403
0.437
0.261
0.159
0.477
0.248
-0.050
0.482
0.689
0.465
0.368
0.067
-0.004
0.019
0.029
0.123
0.078
-0.050
0.019
-0.098
-0.303
-0.320
-0.563
-0.509
-1.358
0.057
0.340
0.096
-0.271
-0.400
-0.545
-0.330
-0.256
-0.268
-0.063
0.012
0.071
0.118
-0.010
-0.031
0.019
-0.126
-0.218
-0.158
0.021
-0.036
-0.078
-0.159
-0.110
-0.029
0.053
0.057
0.127
0.002
0.091
0.212
0.174
0.017
0.127
0.133
0.024
0.102
0.076
0.116
0.143
0.146
0.148
0.036
0.175
-0.050
0.114
0.160
0.081
0.028
0.061
0.032
-0.913
-3.323
0.993
3.548
4.264
2.598
-0.104
-1.788
-2.291
-1.707
-0.563
0.236
-2.731
1.660
2.761
3.756
3.604
1.222
-0.305
-0.483
-0.676
-0.805
-0.671
-0.521
-0.143
0.119
0.326
0.512
0.486
0.477
0.334
0.258
0.013
-0.089
-0.187
-0.103
-0.056
-0.170
-0.165
0.080
0.203
0.325
0.222
0.258
0.298
0.454
0.412
0.406
0.415
0.330
-0.095
-0.822
-1.235
-0.827
-0.491
0.740
1.078
1.059
0.788
0.004
-0.426
-0.327
0.147
0.307
0.762
0.870
0.903
0.877
0.792
0.572
0.483
0.275
0.048
-0.187
-0.220
-0.659
-1.228
-0.523
-0.051
0.038
-0.235
-0.285
-0.234
-0.077
0.122
0.010
-0.166
-0.004
-0.061
-0.136
0.043
0.098
-0.045
-0.033
-0.151
-0.175
-0.165
-0.508
-0.907
-2.527
-2.374
-0.482
0.689
1.140
0.648
-0.143
-0.200
0.017
-0.001
0.169
0.383
0.607
0.787
0.992
0.916
0.856
0.716
0.460
0.346
0.269
-0.818
-2.934
-1.005
1.556
0.804
-0.305
0.405
0.338
0.117
-0.053
0.033
0.131
0.288
0.605
0.705
0.694
0.585
-1.110
-1.888
0.594
1.681
1.062
-1.086
-1.430
-0.766
-0.307
-0.030
-0.068
-0.142
-0.028
0.209
0.268
0.295
0.269
0.346
0.278
0.188
0.135
-0.022
0.096
-0.063
-0.022
-0.258
-0.318
-0.150
-0.181
-0.015
-0.135
-0.064
-0.099
-0.149
-0.056
0.092
-0.017
0.210
0.392
0.324
0.177
0.090
-0.007
0.055
0.071
0.171
0.203
0.058
0.109
0.054
0.005
-0.064
-0.019
-0.002
-0.113
0.043
0.004
-0.006
-0.005
-0.032
0.047
0.142
0.213
0.046
0.023
0.134
0.118
0.134
0.053
0.114
0.086
0.018
0.135
0.126
0.062
-0.008
0.094
0.106
0.132
-0.013
0.024
0.053
0.110
0.064
0.061
-0.007
-0.019
0.057
0.126
-0.086
-0.060
0.027
0.043
-0.080
-0.022
-0.095
0.111
-0.037
-0.128
0.068
-0.041
0.022
-0.087
-0.062
-0.030
0.032
0.067
-0.089
0.022
0.023
-0.077
0.062
0.128
-0.016
-0.024
0.050
0.111
0.020
-0.017
-0.014
0.073
0.030
0.025
-0.014
0.045
0.075
-0.114
-0.115
0.021
0.052
-0.073
0.035
0.104
0.113
0.005
0.021
0.098
0.001
0.001
0.084
0.079
0.060
-0.039
0.003
-0.052
-0.058
0.045
0.026
0.046
-0.032
0.050
-0.123
-0.067
-0.044
-0.041
0.019
-0.032
0.010
0.053
-0.010
-0.084
0.004
-0.048
0.001
-0.063
0.137
0.121
-0.122
-0.007
0.084
0.123
-0.083
0.024
0.084
0.013
-0.017
0.132
0.021
0.112
-0.123
0.061
-0.019
0.078
0.032
-0.029
0.073
0.060
0.122
0.003
-0.010
0.150
0.085
0.004
-0.010
0.099
0.076
0.152
0.079
0.013
-0.077
0.038
0.107
0.114
0.084
-0.093
-0.022
0.036
0.082
0.050
-0.041
0.082
0.009
0.130
-0.028
-0.008
-0.014
0.081
-0.023
-0.033
-0.005
0.078
-0.010
-0.038
0.052
-0.085
-0.042
