-0.061
-0.195
0.072
0.206
0.048
-0.243
-0.381
-0.928
-0.753
-0.647
-0.694
-1.022
-3.343
-3.957
-4.038
-2.818
-3.207
-3.516
-3.503
-3.426
-3.287
-3.168
-2.039
0.489
-1.718
2.661
4.926
5.443
5.358
5.098
4.788
4.452
4.151
3.823
3.530
3.240
2.971
2.719
2.477
1.930
-0.307
-2.455
-4.048
-4.798
-5.191
-4.881
-4.138
-3.250
-2.371
-1.599
-0.880
-0.367
-0.119
-0.051
0.032
0.027
0.004
0.037
-0.158
-0.092
-0.061
0.069
0.000
0.159
0.354
0.528
0.781
0.736
0.833
0.990
1.046
1.140
1.044
1.099
1.213
1.277
1.385
1.304
1.210
1.093
1.101
1.145
1.099
0.964
1.004
0.958
1.117
0.938
0.733
0.647
0.692
0.713
0.479
0.276
0.338
0.240
0.327
0.175
0.191
0.105
-0.139
-0.101
-0.039
-0.223
-0.133
-0.183
-0.254
-0.323
-0.267
-0.239
-0.291
-0.454
-0.369
-0.285
-0.459
-0.418
-0.375
-0.473
-0.534
-0.572
-0.358
-0.467
-0.409
-0.362
-0.382
-0.438
-0.357
-0.253
-0.239
-0.299
-0.158
-0.099
-0.264
-0.055
-0.137
-0.216
-0.021
-0.014
0.011
-0.007
0.070
0.076
0.154
0.129
0.292
0.426
0.505
0.284
0.049
-0.014
0.995
1.745
1.381
0.772
0.315
0.241
0.240
0.383
0.443
0.399
0.469
0.394
0.235
-0.027
-0.191
-0.322
-0.359
-0.439
-0.434
-0.410
-0.158
-0.164
-0.157
-0.090
0.031
0.146
0.092
0.111
0.071
0.254
0.252
0.213
0.155
0.199
0.146
0.392
0.371
0.123
0.230
0.264
0.341
0.292
0.390
0.311
0.268
0.158
0.392
0.350
0.317
0.262
0.259
0.350
0.241
0.260
0.094
0.248
0.130
0.167
0.092
0.142
0.083
-0.001
0.094
-0.007
0.020
0.124
0.068
-0.194
-0.194
-0.191
0.025
0.006
-0.027
-0.163
-0.270
-0.185
-0.152
-0.075
-0.247
-0.318
-0.180
-0.303
-0.158
-0.187
-0.386
-0.245
-0.180
-0.210
-0.338
-0.317
-0.273
-0.161
-0.154
-0.166
-0.205
-0.383
-0.184
-0.206
-0.143
-0.294
-0.166
-0.133
0.063
-0.091
-0.185
-0.072
-0.052
-0.037
-0.144
0.030
-0.000
0.014
0.096
0.065
0.013
0.009
-0.056
0.094
0.107
0.140
0.195
0.099
0.023
0.108
0.209
0.116
0.141
0.096
0.185
0.058
0.287
0.223
0.029
0.047
0.119
0.263
0.146
0.146
0.192
0.031
0.179
0.115
0.101
0.141
-0.015
0.186
0.172
0.197
0.077
0.103
-0.036
0.033
0.121
0.056
0.066
-0.013
-0.005
0.009
0.032
-0.042
-0.025
0.039
0.014
-0.063
-0.063
-0.008
-0.120
-0.045
-0.130
-0.076
-0.011
-0.107
0.065
-0.094
-0.132
-0.137
-0.121
0.009
-0.117
-0.142
-0.090
-0.084
-0.041
-0.160
-0.051
-0.056
-0.053
-0.085
-0.054
-0.001
-0.114
-0.091
-0.055
-0.039
-0.199
0.058
0.021
-0.059
-0.015
0.076
-0.136
-0.027
0.106
-0.023
0.034
0.066
0.077
-0.005
-0.029
-0.038
-0.021
0.138
0.307
-0.002
-0.070
-0.052
-0.060
0.174
0.165
-0.034
-0.040
-0.010
0.099
0.076
0.054
0.079
0.001
0.149
0.064
0.109
-0.001
-0.054
0.005
0.032
0.167
0.098
0.025
0.043
0.027
0.013
0.037
-0.008
0.062
0.040
0.185
-0.098
0.039
-0.043
0.004
-0.002
-0.091
0.071
0.069
-0.019
0.083
-0.031
-0.012
-0.016
-0.035
0.044
0.055
-0.023
0.035
-0.009
-0.094
-0.056
0.091
0.027
-0.060
-0.024
-0.078
-0.040
-0.051
-0.006
0.072
-0.023
-0.022
-0.010
-0.049
-0.066
0.042
-0.099
-0.072
0.023
0.009
-0.133
-0.076
-0.044
-0.066
-0.052
0.040
0.034
-1.898
-3.710
-1.117
3.012
4.228
4.467
1.679
-2.839
-4.175
-4.349
-1.793
2.504
4.051
4.424
4.388
4.254
4.083
3.893
3.729
3.524
1.916
-0.566
-2.819
-4.187
-4.949
-4.895
-4.464
-3.676
-2.729
-1.733
-0.755
0.059
0.538
0.871
1.151
1.244
1.120
1.006
0.818
0.622
0.603
0.490
0.447
0.436
0.401
0.399
0.568
0.492
0.503
0.586
0.604
0.493
0.582
0.523
0.432
0.422
0.289
0.222
0.284
0.269
0.312
0.037
-0.124
-0.062
0.009
-0.050
-0.137
-0.266
-0.268
-0.307
-0.225
-0.364
-0.324
-1.081
-2.357
-4.083
-4.513
-1.595
2.744
3.971
3.449
-1.909
-4.027
-4.583
-3.988
-1.124
-0.879
2.397
-0.182
1.328
-1.783
2.243
3.770
4.093
1.685
-2.396
-4.294
-4.573
-3.757
-1.944
0.442
2.845
3.920
4.040
3.869
3.378
2.592
1.263
0.220
-0.800
-1.586
-2.041
-2.135
-2.282
-2.121
-1.809
-1.577
-1.293
-0.746
-0.371
-0.135
0.006
0.015
0.241
0.326
0.512
0.333
0.257
0.423
0.855
0.898
1.129
1.187
0.938
0.775
0.656
0.680
0.723
0.853
0.805
0.785
0.737
0.640
0.571
0.212
0.173
0.168
-0.002
-0.065
-0.062
0.003
0.076
0.114
0.168
0.215
0.201
0.141
0.197
0.110
0.297
0.232
0.088
0.080
0.099
0.108
0.007
-0.055
0.023
0.048
-0.057
-0.094
-0.011
-0.098
-0.087
0.013
0.069
-0.006
-0.226
-0.153
-0.049
-0.123
-0.152
-0.162
-0.113
-0.082
-0.051
-0.135
-0.081
-0.108
-0.148
-0.259
-0.238
-0.081
-0.123
-0.185
-0.177
-0.135
-0.120
-0.283
-0.134
-0.100
-0.180
-0.270
0.062
-0.251
-0.232
-0.054
-0.108
-0.095
-0.053
-0.059
-0.175
-0.095
-0.053
0.084
-0.134
-0.053
0.214
0.254
0.301
0.095
-0.018
0.044
-0.073
0.181
0.210
0.070
0.100
-0.060
-0.057
0.073
0.027
-0.032
-0.078
0.056
-0.117
0.033
-0.022
0.049
0.152
0.006
0.007
0.169
0.165
0.152
0.039
0.335
0.152
0.150
0.168
0.104
0.142
0.162
0.175
0.179
0.262
0.095
0.132
0.187
0.130
0.212
0.192
0.287
0.104
0.206
0.104
0.105
0.006
0.023
0.240
0.175
0.017
0.119
-0.072
-0.072
0.228
0.047
0.118
-0.102
-0.028
0.077
-0.134
0.054
-0.055
-0.046
-0.028
0.007
-0.048
-0.167
-0.223
0.071
-0.125
-0.109
-0.229
-0.150
-0.216
-0.170
-0.088
-0.180
-0.093
-0.191
-0.166
-0.336
-0.422
-0.262
-0.327
-0.375
-0.313
-0.363
-0.211
-0.218
-0.130
-0.186
-0.217
-0.176
-0.189
-0.032
-0.178
-0.062
0.100
0.062
-0.036
0.113
0.156
0.052
0.054
0.167
0.169
0.049
0.042
-0.024
0.084
0.127
-0.062
0.048
-0.005
0.001
0.014
-0.005
-0.051
-0.049
-0.048
-0.229
-0.114
-0.014
0.035
-0.029
0.081
0.123
-0.006
-0.017
-0.068
0.052
0.057
0.115
0.251
0.271
0.177
0.107
0.004
0.075
0.056
0.091
0.220
-0.015
0.046
0.120
0.024
-0.060
0.050
-0.105
-0.012
0.007
-0.010
0.109
0.136
0.046
-0.008
0.076
0.121
0.188
0.141
0.150
0.214
-0.042
-0.049
0.104
0.161
0.219
0.052
0.051
0.159
0.182
-0.068
0.065
0.075
0.061
0.130
0.167
0.075
-0.020
-0.089
0.023
0.027
0.040
0.072
0.101
0.009
-0.065
-0.033
-0.019
0.217
0.029
-0.027
-0.019
0.029
0.002
0.133
0.043
-0.136
-0.017
0.021
0.025
0.037
-0.018
0.017
-0.050
-0.153
-0.025
0.086
0.087
0.001
-0.036
-0.031
-0.109
-0.034
0.033
0.007
0.124
-0.129
-0.132
0.077
0.039
-0.006
0.062
0.080
-0.107
0.018
0.031
0.041
-0.003
0.030
-0.020
0.091
0.044
-0.072
-0.046
-0.128
0.075
0.118
0.037
-0.002
0.058
-0.051
-0.014
0.064
-0.107
0.069
0.003
0.003
0.089
0.069
0.147
-0.108
-0.038
-0.027
0.119
0.139
-0.011
-0.021
0.104
-0.046
0.039
-0.079
0.001
0.012
-0.117
-0.015
0.079
0.044
-0.080
0.012
0.135
0.089
0.015
0.022
0.033
-0.137
0.096
0.079
0.083
-0.039
0.062
-0.039
-0.029
-0.006
-0.030
-0.001
0.112
0.004
0.034
0.050
-0.012
-0.028
-0.045
0.108
0.065
-0.064
0.022
0.073
-0.055
0.016
0.091
0.036
0.122
-0.001
-0.010
-0.037
0.055
-0.008
0.052
0.120
0.078
-0.013
-0.027
-0.029
0.032
0.077
-0.003
0.029
0.116
-0.019
-0.090
0.100
0.021
-0.008
0.076
-0.048
-0.057
-0.011
-0.043
0.057
-0.028
-0.066
0.047
0.002
0.007
-0.035
-0.061
-0.028
0.060
-0.086
0.068
-0.049
-0.057
0.011
-0.043
-0.021
-0.018
0.025
0.050
0.008
-0.035
0.094
0.041
-0.134
-0.020
0.124
0.105
0.007
-0.034
0.068
-0.094
0.056
0.067
0.004
0.079
0.090
-0.051
0.004
0.071
0.034
0.027
0.014
0.141
0.090
0.023
-0.127
0.061
0.041
-0.065
-0.039
0.090
0.001
-0.044
-0.046
0.048
0.043
0.100
-0.010
0.073
-0.071
-0.142
0.202
0.037
0.021
0.118
-0.088
0.006
-0.004
0.030
0.057
0.038
-0.017
-0.030
0.092
-0.023
-0.024
-0.016
0.014
0.004
0.134
0.041
0.006
-0.047
0.018
-0.081
0.037
0.086
0.056
-0.027
-0.040
-0.008
0.051
-0.023
0.074
-0.006
-0.017
-0.086
-0.007
0.143
-0.020
-0.061
-0.079
0.055
0.025
-0.068
0.229
-0.099
0.015
-0.064
-0.008
-0.129
-0.030
0.160
-0.016
0.138
0.067
-0.011
-0.057
0.040
-0.049
0.124
0.012
0.079
0.052
0.062
0.016
-0.021
-0.010
0.085
-0.004
0.079
0.012
-0.063
-0.063
-0.018
0.048
0.047
0.001
0.017
-0.040
0.022
-0.049
0.085
-0.085
-0.083
0.080
0.066
0.034
0.054
0.086
-0.084
0.083
0.067
-0.073
0.027
0.025
-0.014
0.165
-0.026
0.077
-0.126
0.012
0.067
0.064
-0.007
0.026
0.131
0.013
0.004
0.026
0.029
0.000
0.008
0.008
0.093
-0.004
-0.093
-0.010
-0.089
0.110
0.010
0.130
0.117
-0.080
-0.011
0.004
0.072
0.012
0.064
-0.055
-0.000
-0.019
0.002
0.107
0.080
0.079
-0.086
-0.163
0.094
0.184
0.058
-0.024
0.053
0.021
-0.022
-0.006
0.038
0.097
0.050
-0.019
-0.071
-0.099
0.059
0.015
-0.015
0.035
0.067
-0.046
-0.018
-0.034
0.069
-0.014
0.027
0.057
0.080
0.086
0.029
0.210
-0.003
-0.122
-0.028
-0.088
0.174
0.273
0.037
0.065
0.124
-0.161
0.031
0.147
-0.088
-0.205
-0.175
-0.771
-0.994
-1.802
-3.479
-3.661
-0.502
2.698
3.859
2.387
0.507
-0.881
-1.217
-0.765
-0.007
0.830
1.468
1.838
1.756
1.631
1.153
0.699
0.107
-0.455
-0.698
-0.986
-0.996
-0.987
-0.918
-0.753
-0.515
-0.397
-0.056
0.133
0.059
0.205
0.192
0.047
-0.017
0.033
0.272
0.208
0.110
0.059
-0.096
-0.010
0.004
-0.021
-0.141
0.020
-0.112
-0.076
0.030
-0.046
-0.214
-0.271
-0.069
-0.032
0.144
0.067
-0.018
-0.310
-0.223
0.056
0.081
0.042
0.157
0.153
0.151
0.409
0.523
0.344
0.138
0.132
0.191
0.215
0.301
0.275
0.302
0.231
0.124
0.139
-0.036
-0.124
0.007
-0.021
-0.109
-0.050
-0.125
-0.132
-0.111
-0.195
-0.082
-0.269
-0.129
-0.098
-0.116
-0.159
-0.080
-0.201
-0.138
-0.065
-0.151
-0.107
-0.081
-0.049
0.035
-0.091
-0.124
-0.021
-0.029
-0.027
-0.004
-0.071
-0.109
0.115
0.005
-0.041
-0.036
0.014
-0.058
0.008
-0.067
0.014
0.082
-0.023
-0.098
0.087
0.068
-0.040
0.025
0.080
0.048
0.225
0.066
0.165
0.161
0.124
-0.009
0.036
-0.241
-0.017
-0.421
-1.132
-1.520
-1.352
-0.748
-0.787
-2.315
-1.471
0.266
1.470
1.755
0.651
-0.974
-1.887
-0.349
0.042
0.223
0.242
0.680
0.749
0.627
0.489
0.603
0.021
-1.456
-1.627
-0.902
-0.675
-0.632
-0.651
-0.983
-1.512
-1.117
0.559
1.588
1.039
0.123
-0.325
-0.207
0.452
0.681
0.580
0.293
0.348
0.527
0.672
-0.185
-1.231
-0.706
1.140
2.216
2.287
2.129
1.039
0.272
-0.258
-0.210
0.278
0.629
0.995
1.153
1.065
0.651
0.304
0.043
-0.517
-0.761
-0.860
-0.762
-0.862
-0.811
-0.499
-0.173
-0.152
0.059
0.336
0.514
0.502
0.693
0.596
0.825
0.862
0.777
0.880
0.828
0.882
0.905
0.854
0.833
0.860
0.886
0.801
0.837
0.859
0.649
0.656
0.713
0.724
0.770
0.680
0.478
0.497
0.380
0.403
0.344
0.229
0.232
0.195
0.117
0.105
-0.030
-0.034
-0.139
-0.067
-0.266
-0.261
-0.160
-0.270
-0.309
-0.379
-0.454
-0.325
-0.346
-0.382
-0.348
-0.472
-0.534
-0.594
-0.529
-0.511
-0.547
-0.411
-0.206
-0.505
-0.541
-0.458
-0.405
-0.285
-0.345
-0.321
-0.259
-0.289
-0.324
-0.142
-0.222
-0.117
-0.023
-0.113
0.085
-0.099
-0.011
-0.142
0.064
-0.081
-0.136
0.098
0.084
0.111
0.039
0.026
0.027
0.082
-0.006
-0.163
0.087
0.022
0.101
-0.018
0.055
0.121
0.004
0.110
0.091
-0.006
0.014
0.039
0.072
-0.019
0.036
0.038
0.104
-0.060
-0.083
0.096
-0.008
0.050
0.178
0.025
-0.025
-0.046
0.089
0.170
0.074
0.175
-0.007
0.135
0.062
0.055
0.195
0.076
0.079
0.175
0.216
0.152
0.014
0.074
0.224
0.172
0.093
0.107
0.078
0.175
0.073
0.087
0.149
0.139
0.094
0.205
0.073
-0.041
0.113
0.110
0.036
0.069
0.029
0.122
-0.033
0.095
0.071
0.030
0.006
-0.104
-0.206
-0.004
0.060
0.016
0.009
-0.076
-0.122
-0.130
-0.166
-0.157
-0.109
0.031
-0.226
-0.139
-0.075
-0.124
-0.154
-0.070
-0.114
-0.148
-0.047
-0.073
0.011
-0.123
-0.269
-0.062
-0.062
-0.002
-0.045
-0.047
-0.079
0.045
-0.118
-0.099
-0.118
-0.029
-0.059
-0.033
0.068
0.197
0.217
0.020
0.053
0.176
0.114
0.162
0.163
0.171
0.135
0.125
0.240
0.169
0.047
0.129
0.147
-2.697
-3.843
-0.521
3.306
4.384
4.604
1.630
-2.773
-4.041
-4.105
0.160
3.418
4.349
4.510
4.412
4.268
4.067
3.892
3.723
3.505
1.958
-0.543
-2.792
-4.346
-5.108
-5.201
-4.240
0.880
2.570
1.186
-0.731
-1.575
-1.684
-0.797
0.282
1.001
1.646
2.092
2.233
2.183
1.663
1.301
0.805
0.404
0.266
-0.113
-0.251
-0.163
-0.037
0.067
0.229
0.386
0.469
0.567
0.632
0.652
0.638
0.771
0.614
0.584
0.536
0.438
0.341
0.376
0.304
0.421
0.248
0.219
0.236
0.135
0.030
0.075
0.001
0.061
-0.148
0.104
-0.114
-0.158
-0.213
-1.116
-3.598
-4.312
-3.060
2.374
3.965
4.352
2.182
-2.765
-4.287
-4.648
-3.281
1.207
3.552
4.138
4.184
4.051
3.874
3.685
3.187
1.559
-0.558
-2.484
-3.808
-4.267
-4.172
-3.718
-3.184
-2.250
-1.600
-0.762
-0.096
0.301
0.439
0.677
0.691
0.629
0.467
0.461
0.424
0.182
0.229
0.081
0.221
0.172
0.261
0.325
0.321
0.502
0.361
0.560
0.423
0.461
0.564
0.473
0.419
0.330
0.379
0.303
0.283
0.292
0.323
0.268
0.165
0.202
0.106
-0.024
-0.003
0.146
0.062
-0.028
-0.082
0.053
-0.091
-0.061
-0.042
-0.177
-0.200
-0.347
-0.219
-0.152
-0.172
-0.065
-0.137
-0.285
-0.270
-0.177
-0.257
-0.149
-0.143
-0.265
-0.263
-0.181
-0.092
-0.090
-0.208
-0.155
-0.121
0.069
-0.128
-0.065
-0.087
-0.127
-0.036
-0.018
-0.013
0.032
0.042
0.067
0.041
-0.009
-0.020
0.136
0.027
0.035
0.008
0.011
0.095
0.146
0.002
0.045
0.038
0.010
0.007
0.029
0.073
0.013
-0.022
-0.023
-0.093
0.006
0.055
-0.089
-0.078
0.045
0.054
-0.092
-0.115
-0.058
-0.035
0.029
-0.105
0.052
-0.133
-0.120
0.016
-0.079
-0.154
0.068
-0.108
-0.066
-0.131
-0.023
0.091
-0.107
0.022
-0.104
0.051
0.034
0.081
0.051
-0.035
0.074
0.008
0.019
0.077
0.080
0.166
0.108
0.061
0.058
0.033
0.021
0.180
0.056
0.090
0.122
0.089
0.173
0.130
0.167
0.048
0.058
0.090
-0.001
0.074
0.132
0.175
0.011
0.073
0.046
-0.008
0.045
0.004
-0.022
-0.015
-0.035
-0.010
-0.032
-0.149
-0.034
-0.050
-0.173
-0.101
-0.168
-0.082
-0.096
0.041
-0.082
-0.043
0.042
0.014
-0.106
-0.090
0.017
-0.124
-0.087
-0.078
0.010
-0.152
-0.018
-0.014
-0.002
-0.108
-0.217
-0.063
-0.087
0.022
-0.067
-0.106
-0.100
0.025
-0.030
-0.115
-0.130
-0.000
0.045
0.023
-0.069
0.115
-0.057
-0.028
0.011
0.118
-0.036
0.004
-0.003
0.082
0.057
0.150
0.074
0.065
0.190
0.125
0.029
0.020
0.106
0.054
0.109
-0.021
0.063
0.078
0.125
0.140
0.060
0.027
0.165
0.191
0.142
-0.099
0.055
0.041
0.071
0.099
0.105
0.088
0.149
-0.007
0.086
-0.028
-0.028
-0.063
0.050
0.004
0.021
-0.009
-0.006
0.063
-0.007
-0.019
-0.146
0.018
-0.073
0.106
0.036
-0.053
-0.052
-0.082
-0.016
-0.047
0.047
0.107
0.024
-0.077
-0.046
-0.047
-0.008
0.032
-0.095
-0.040
0.004
-0.067
0.001
-0.012
-0.009
-0.073
0.005
0.059
-0.012
-0.037
0.066
0.002
-0.017
-0.008
-0.021
-0.017
0.109
0.099
0.048
0.026
0.007
0.020
0.067
0.008
-0.047
0.165
-0.003
0.058
-0.005
0.012
-0.091
0.057
0.055
0.073
-0.016
0.109
0.036
-0.069
0.064
0.008
-0.015
-0.028
0.050
0.190
-0.046
0.031
-0.065
0.118
-0.022
-0.016
0.070
-0.013
-0.031
0.104
0.011
-0.042
-0.053
0.001
0.101
0.022
-0.032
0.036
-0.087
0.102
0.046
0.066
0.009
0.029
-0.050
0.073
-0.011
-0.089
-0.027
0.069
0.063
-0.179
-0.109
0.127
-0.094
0.071
0.071
-0.093
0.011
-0.030
-0.054
-0.040
-0.063
0.049
0.125
0.146
-0.116
-0.051
0.048
-0.069
0.029
0.093
-0.005
-0.007
-0.041
-0.035
-0.112
0.082
0.059
-0.083
-0.005
0.007
-0.111
-0.090
-0.066
-0.076
0.023
0.062
-0.126
0.019
-0.024
-0.097
-0.021
0.005
0.143
0.021
-0.057
0.045
0.005
-0.096
0.113
-0.022
-0.097
-0.031
0.155
-0.062
0.067
-0.070
-0.069
0.044
0.039
0.056
0.002
-0.020
0.046
0.069
-0.027
-0.091
-0.066
0.008
0.004
0.025
0.045
-0.046
-0.033
0.045
0.049
0.049
-0.010
0.136
-0.078
-0.067
-0.007
0.071
-0.025
-0.048
0.078
0.031
-0.060
0.055
0.033
-0.011
0.087
0.176
-0.004
-0.003
0.089
-0.082
-0.078
0.107
0.054
0.001
0.086
0.134
0.159
-0.009
0.076
-0.010
-0.032
-0.012
0.000
-0.001
0.043
0.088
-0.028
0.143
0.045
0.037
-0.010
-0.006
0.061
0.044
0.129
0.037
-0.015
-0.010
0.011
0.077
-0.019
-0.157
0.016
0.045
0.063
-0.016
0.007
-0.016
-0.025
-0.002
0.038
0.076
0.124
0.053
0.001
-0.021
-0.066
0.163
-0.021
-0.108
0.033
0.067
0.067
0.165
-0.102
0.043
0.091
-0.008
0.004
0.055
-0.053
0.042
-0.044
0.058
0.058
-0.033
0.005
0.031
-0.036
-0.046
0.002
0.143
0.010
0.010
0.068
-0.022
0.107
-0.009
0.070
-0.050
-0.071
0.025
0.146
-0.012
0.009
-0.007
0.000
0.119
-0.065
-0.044
0.015
-0.068
0.025
-0.009
-0.074
0.021
0.016
0.036
-0.020
0.029
0.037
0.065
0.092
0.082
0.059
-0.006
0.040
-0.149
0.039
0.049
0.097
0.033
0.020
-0.057
0.092
0.029
0.106
0.074
0.044
0.054
-0.050
-0.036
-0.045
0.158
-0.005
-0.043
-0.073
0.154
0.020
-0.058
0.070
-0.132
0.106
-0.033
0.042
0.027
-0.072
0.076
0.035
0.067
0.078
-0.001
0.054
0.035
-0.014
-0.092
-0.039
0.103
0.045
0.029
0.048
0.034
0.066
0.033
-0.083
0.067
-0.040
-0.001
0.112
-0.121
-0.044
0.014
0.091
0.017
0.073
0.039
0.101
-0.067
-0.080
0.034
0.067
-0.133
-0.100
0.043
0.158
-0.010
-0.006
-0.063
-0.059
0.017
0.068
0.003
0.049
-0.083
0.092
-0.079
0.022
0.071
-0.052
-0.018
0.042
0.016
0.035
0.045
0.065
0.048
-0.056
-0.045
0.052
-0.097
0.049
0.012
0.018
0.021
-0.093
0.098
-0.030
-0.049
0.075
0.024
-0.042
0.061
0.004
0.037
0.063
-0.062
-0.104
0.001
0.185
0.045
0.014
0.112
-0.032
0.002
0.005
0.034
0.119
0.112
0.086
0.000
0.004
0.014
0.029
0.041
-0.008
-0.089
-0.026
-0.083
-0.107
-0.238
-0.621
-1.173
-0.673
-0.032
-2.463
-3.754
-4.039
-4.015
-3.861
-3.653
0.867
4.152
5.058
3.953
-1.476
-3.316
-3.832
0.248
3.633
4.566
4.666
4.517
4.299
4.039
3.804
3.561
1.730
-1.587
-4.384
-5.416
-5.619
-5.505
-5.318
-4.886
-3.868
-2.616
-1.247
-0.362
0.288
0.782
0.988
0.841
0.723
0.550
0.222
0.049
-0.210
-0.253
-0.402
-0.370
-0.243
-0.227
-0.199
-0.128
-0.110
0.055
0.087
0.079
0.166
0.076
0.006
0.071
0.054
-0.041
-0.105
0.002
0.044
-0.213
-0.076
-0.069
-0.256
-0.116
-0.109
-0.108
-0.159
-0.204
-0.146
-0.099
-0.203
-0.329
-0.080
-0.122
-0.157
-0.210
-0.279
-0.225
-0.208
-0.226
-0.186
-0.111
-0.226
-0.200
-0.047
-0.117
-0.175
-0.223
-0.187
-0.202
-0.244
-0.086
-0.053
-0.035
-0.040
-0.252
-0.018
-0.014
-0.017
-0.007
-0.077
0.002
0.047
0.032
0.033
-0.004
-0.015
0.109
0.019
0.012
0.211
0.013
0.098
0.198
0.046
0.095
0.039
0.147
0.098
0.024
0.089
0.095
0.094
0.096
0.011
-0.018
0.134
0.092
-0.088
-0.093
-0.025
0.076
-0.106
0.117
0.073
0.196
0.062
0.034
0.065
0.053
-0.008
-0.002
0.073
0.006
-0.074
-0.005
-0.035
0.021
0.044
-0.016
-0.059
-0.146
-0.209
-0.038
-0.039
-0.220
-0.101
-0.017
-0.100
-0.116
-0.102
-0.022
0.128
0.075
0.008
-0.021
0.002
-0.076
0.010
0.037
-0.055
0.060
0.027
0.032
0.117
0.028
0.082
-0.033
0.062
0.059
0.065
0.051
-0.108
-0.011
0.127
-0.047
0.169
0.191
0.029
-0.068
0.020
0.052
0.103
0.143
-0.006
0.065
0.068
-0.055
0.065
0.086
0.019
0.110
-0.002
0.048
0.096
0.090
-0.149
-0.008
0.020
0.015
-0.064
-0.087
-0.056
0.007
0.016
0.058
-0.141
-0.066
-0.072
0.023
0.139
-0.037
0.013
-0.007
0.008
-0.051
-0.102
0.059
0.054
-0.084
0.036
-0.066
0.096
0.004
-0.007
-0.059
-0.076
-0.022
-0.001
0.093
-0.012
0.023
0.061
0.069
0.060
-0.122
0.017
0.126
0.104
0.013
0.026
0.027
0.054
0.098
0.103
-0.013
-0.005
0.061
0.045
0.204
-0.045
-0.061
0.001
0.054
0.038
-0.078
0.055
-0.021
0.027
-0.011
0.065
0.019
-0.035
0.028
-0.033
0.019
0.014
0.100
0.063
0.078
-0.035
-0.003
-0.001
0.126
-0.017
-0.044
-0.045
0.017
-0.017
0.011
0.010
0.064
0.023
-0.028
-0.052
0.012
0.083
-0.014
0.012
0.016
0.004
0.049
0.039
0.064
-0.072
0.006
0.079
-0.093
0.064
-0.074
0.008
0.117
0.028
0.036
-0.025
0.017
-0.086
0.018
-0.046
0.002
0.110
0.022
0.055
0.050
0.085
0.082
-0.008
0.004
0.096
0.069
0.005
-0.026
-0.031
-0.040
0.126
0.043
0.006
0.030
-0.019
-0.081
-0.034
-0.011
0.099
-0.059
0.012
0.082
-0.032
-0.016
-0.006
0.067
-0.020
0.103
0.094
-0.033
0.017
0.102
-0.024
-0.041
-0.029
0.082
0.086
0.004
-0.068
0.008
0.108
-0.008
-0.109
0.007
0.011
-0.029
0.143
-0.042
0.074
0.049
-0.047
0.033
0.061
-0.010
-0.033
-0.003
-0.002
0.034
-0.025
-0.016
-0.043
-0.002
0.018
0.090
0.010
-0.082
0.042
0.019
-0.064
0.000
0.125
0.056
0.121
-0.074
0.122
-0.017
0.070
-0.004
0.009
0.071
-0.026
0.016
0.079
-0.042
-0.045
0.047
0.039
0.052
-0.066
0.110
-0.072
-0.115
0.136
0.001
-0.056
0.019
0.027
0.026
0.027
-0.001
-0.075
-0.099
0.080
-0.027
0.046
0.055
-0.064
-0.026
-0.011
-0.106
0.028
0.001
0.049
-0.077
0.024
-0.020
0.052
-0.716
-3.352
-3.480
0.183
2.058
2.894
2.403
0.792
-0.583
-1.139
-0.992
-0.359
-2.183
-3.724
-2.497
2.478
4.144
4.526
3.551
-2.059
-3.936
-4.419
-4.257
1.039
3.652
4.369
4.437
4.313
4.145
3.930
3.754
3.560
3.247
1.579
-0.869
-2.806
-4.253
-4.953
-4.953
-4.514
-4.076
-3.019
-2.033
-1.171
-0.463
0.115
0.603
0.749
0.815
0.723
0.814
0.775
0.566
0.629
0.440
0.422
0.437
0.542
0.505
0.455
0.518
0.483
0.627
0.501
0.494
0.544
0.493
0.555
0.375
0.330
0.151
-2.541
-3.633
-3.935
-1.586
3.136
4.479
4.726
0.560
-3.062
-4.126
-4.399
-3.173
0.872
3.536
4.225
4.286
4.101
3.904
3.656
3.406
2.368
0.557
-1.218
-2.736
-3.732
-3.892
-3.397
-3.004
-2.538
-1.923
-1.411
-0.910
-0.406
-0.069
0.167
0.203
0.251
0.073
0.106
0.217
0.553
0.706
0.737
0.880
1.232
1.078
0.703
0.505
0.587
0.835
1.023
1.120
0.912
0.861
0.845
0.038
-1.594
-3.272
-3.261
2.304
4.466
4.721
1.917
-0.722
-1.794
-1.786
-0.529
0.656
1.832
2.758
3.238
3.046
2.553
2.117
1.303
0.646
0.073
-0.452
-0.716
-0.862
-0.936
-0.911
-0.653
-0.548
-0.428
-0.248
-0.041
0.075
-0.031
-0.045
0.091
0.094
0.055
0.015
-1.445
-3.557
-0.057
3.321
4.286
3.535
-0.070
-3.050
-4.115
-3.521
-1.999
0.432
2.292
3.775
4.371
4.323
4.061
3.311
2.287
1.255
0.264
-0.484
-1.112
-1.445
-1.466
-1.477
-1.304
-1.111
-0.756
-0.465
-0.288
-0.059
0.069
0.211
0.201
0.328
0.253
0.263
0.220
0.059
0.148
0.231
0.170
0.286
0.290
0.258
0.284
0.354
0.396
0.374
0.456
0.433
0.372
0.460
0.301
0.516
0.319
0.339
0.193
0.332
0.445
0.432
0.257
0.154
0.229
0.205
0.256
0.103
0.365
-0.018
0.264
0.176
0.022
0.008
-0.036
0.116
0.028
0.099
-0.047
-0.073
-0.085
0.063
-0.068
-0.085
0.073
0.041
-0.116
-0.091
-0.074
-0.026
-0.119
-0.105
-0.154
-0.020
-0.031
-0.025
0.013
-0.174
-0.054
0.002
0.074
0.016
-0.036
-0.101
-0.027
-0.029
-0.125
-0.024
0.059
0.001
-0.056
0.154
-0.032
-0.043
0.175
-0.016
-0.121
-0.015
0.031
0.021
-0.042
0.048
0.029
-0.053
-0.068
-0.019
0.144
-0.139
-0.178
0.010
0.093
0.124
-0.128
-0.046
0.046
0.042
-0.047
-0.149
-0.054
0.065
0.031
-0.084
-0.163
-0.139
0.019
0.023
0.043
0.005
-0.045
0.090
-0.142
-0.002
0.053
0.017
0.118
-0.045
0.029
0.013
0.102
0.021
0.105
0.060
0.046
0.154
0.184
-0.048
0.092
0.066
0.078
0.157
0.115
0.123
0.178
0.135
0.041
0.082
0.007
0.192
0.188
0.148
0.057
0.078
0.144
0.095
0.033
0.031
0.180
0.161
0.103
-0.066
0.064
0.062
0.136
0.093
-0.001
-0.029
0.007
0.063
0.047
0.031
-0.060
-0.083
-0.015
-0.067
-0.057
0.018
-0.074
-0.012
-0.093
-0.013
-0.014
-0.056
-0.061
-0.074
-0.023
-0.045
-0.212
0.012
-0.137
-0.012
0.015
-0.027
-0.130
-0.160
0.013
-0.050
-0.032
0.052
-0.087
-0.065
-0.005
-0.087
-0.123
0.026
-0.001
0.012
0.082
-0.008
-0.048
0.117
-0.064
0.057
-0.034
0.089
0.058
0.041
0.128
0.005
0.011
0.079
0.074
0.045
0.030
0.033
0.137
0.031
0.062
0.088
0.059
0.156
0.053
0.094
-0.064
0.135
0.187
0.078
0.120
-0.042
0.029
-0.063
-0.098
0.170
0.157
0.131
0.117
-0.056
-0.002
0.000
0.013
0.096
-0.087
0.026
0.013
0.064
-0.021
0.013
0.022
-0.006
-0.031
-0.007
-0.054
-0.017
0.011
-0.098
-0.022
0.070
0.010
0.014
-0.103
-0.005
0.140
0.126
-0.053
-0.034
-0.040
-0.068
-0.092
-0.027
0.098
-0.053
0.145
-0.016
0.045
-0.036
-0.054
-0.028
-0.035
0.142
0.026
0.009
-0.064
-0.083
-0.002
-0.008
-0.001
-0.062
0.022
-0.035
0.059
0.094
-0.078
0.011
0.120
0.046
0.020
-0.019
0.077
0.004
0.086
0.120
-0.059
0.052
-0.032
0.069
0.085
0.056
-0.016
0.041
-0.081
0.036
0.157
0.017
0.035
0.046
-0.017
0.056
-0.054
0.095
0.022
0.047
0.026
-0.004
0.015
0.069
0.005
0.079
0.166
0.008
-0.162
0.079
0.107
-0.003
0.078
-0.021
0.042
0.002
-0.027
0.011
0.034
0.013
0.058
0.014
0.082
0.038
-0.020
-0.040
0.006
0.019
-0.004
0.019
0.048
-0.066
-0.137
0.119
0.129
0.057
-0.009
-0.055
-0.080
0.021
0.049
0.025
-0.023
-0.005
-0.028
0.001
0.034
-0.014
0.023
0.090
-0.005
0.028
0.042
0.011
-0.069
-0.043
0.074
-0.041
0.078
0.103
-0.146
-0.089
0.160
0.079
-0.014
0.056
0.106
0.115
-0.098
-0.004
0.088
0.070
0.014
-0.081
-0.034
-0.051
-0.011
0.162
0.017
-0.069
-0.024
0.061
0.008
-0.002
0.056
0.119
-0.113
0.076
0.009
-0.074
0.065
0.110
-0.019
0.053
0.044
0.029
-0.013
0.037
0.043
0.023
-0.014
-0.097
-0.042
0.018
0.089
0.042
-0.041
0.085
0.071
0.016
-0.064
0.034
-0.002
0.017
0.058
-0.032
-0.029
0.117
0.145
-0.035
-0.174
0.007
-0.043
-0.024
0.075
0.159
-0.018
0.120
-0.073
0.029
0.033
-0.070
0.050
0.166
0.063
0.035
0.118
0.055
-0.033
0.001
-0.047
0.078
0.033
0.040
0.011
-0.070
0.035
-0.080
0.013
-0.059
0.061
0.033
0.151
-0.053
0.030
-0.050
0.075
0.133
-0.075
-0.077
-0.038
0.156
0.070
-0.032
-0.004
-0.024
0.054
0.036
-0.033
0.068
0.144
-0.063
0.053
-0.005
-0.009
0.045
-0.001
0.038
-0.018
0.074
-0.056
-0.023
0.077
0.095
0.138
0.063
0.038
0.091
0.014
-0.013
0.078
0.063
0.083
0.005
0.103
0.056
0.024
-0.005
-0.036
-0.044
0.053
0.004
0.021
-0.096
0.135
0.005
-0.041
-0.045
-0.041
0.113
0.009
-0.032
0.043
-0.018
-0.085
0.004
-0.004
-0.016
0.031
0.104
-0.075
0.013
0.070
0.087
-0.086
0.003
0.027
-0.027
-0.057
0.082
0.091
0.111
-0.070
0.120
-0.003
-0.027
0.081
-0.056
0.069
0.074
-0.061
0.048
0.036
0.084
-0.040
-0.011
-0.015
-0.039
0.103
-0.026
-0.005
0.037
-0.045
0.130
0.009
0.066
-0.082
-0.029
-0.014
0.117
0.025
-0.068
-0.002
-0.017
0.001
0.143
0.034
0.038
0.042
-0.043
0.042
0.085
-0.024
-0.013
0.012
0.061
0.028
0.001
0.011
0.017
-0.072
-0.027
0.070
0.020
-0.013
-0.146
-0.056
0.080
0.011
0.029
-0.102
0.138
0.026
0.112
-0.014
0.124
-0.013
-0.016
0.132
0.063
0.031
0.033
0.002
0.000
0.051
0.073
-0.013
0.055
-0.055
0.052
0.083
0.010
-0.036
0.020
0.005
-0.008
0.041
0.049
0.083
-0.055
-0.032
-0.033
-0.130
0.032
0.054
0.040
0.029
-0.061
0.016
-0.001
-0.041
0.030
0.005
-0.027
0.054
0.008
-0.117
-0.054
0.021
0.031
0.032
0.035
0.005
0.037
-0.045
0.049
-0.025
0.195
-0.077
0.126
-0.003
0.045
-0.029
-0.015
-0.001
-0.141
0.017
0.011
0.115
0.071
0.002
-0.042
-0.014
0.044
-0.026
0.072
-0.042
0.069
0.004
0.053
0.048
-0.004
-0.036
-0.021
-0.006
-0.034
0.093
0.102
-0.113
-0.021
0.096
-0.030
-0.039
0.071
0.002
-0.051
0.015
-0.089
0.067
0.112
0.044
0.009
0.034
0.015
0.008
-0.036
0.106
0.019
-0.085
-0.050
-0.036
0.125
-0.037
0.031
-0.097
0.036
-0.015
-0.016
0.096
0.079
0.108
0.076
-0.139
-0.081
0.107
0.056
0.056
-0.001
0.008
0.159
0.081
-0.039
0.025
0.012
-0.005
-0.120
0.052
0.077
-0.014
-0.052
-0.001
0.104
-0.032
0.049
-0.007
0.051
-0.026
-0.045
0.027
-0.104
0.079
0.017
0.114
-0.079
0.123
0.006
0.000
-0.028
-0.086
0.075
0.112
0.151
0.093
0.042
-0.020
0.092
-0.030
-0.042
-0.027
-0.025
-0.016
0.156
-0.010
-0.005
0.121
0.108
0.037
-0.038
-0.083
0.037
0.049
0.054
0.218
0.399
0.304
0.062
-0.184
-0.057
-0.056
-0.005
-0.010
0.057
0.061
0.026
-0.043
0.253
0.844
0.685
0.210
0.063
-0.072
0.084
0.220
0.246
0.271
0.368
0.215
0.235
0.131
0.044
-0.035
-0.244
-0.100
-0.131
-0.123
-0.187
-0.162
-0.064
-0.086
0.002
0.084
0.151
0.162
0.016
0.118
0.179
0.122
0.127
0.128
0.212
0.014
0.129
0.166
0.170
0.085
0.089
0.117
0.182
0.082
0.144
0.202
-0.027
0.149
0.173
0.058
0.049
0.156
0.062
0.047
-0.034
0.090
-0.003
-0.021
-0.008
0.076
0.014
0.061
-0.025
0.010
-0.099
-0.074
0.078
0.004
-0.138
-0.037
-0.001
-0.192
0.018
-0.044
-0.120
-0.094
-0.061
-0.163
0.036
-0.070
0.041
-0.130
-0.050
0.044
-0.083
-0.049
-0.045
-0.052
0.014
-0.020
-0.024
0.046
-0.048
-0.067
-0.024
-0.012
0.097
-0.051
0.012
0.000
0.035
0.035
-0.044
0.031
-0.049
-0.075
0.181
0.021
0.032
-0.039
0.005
0.040
0.057
-0.072
-0.015
0.001
0.039
0.046
-0.016
-0.033
0.061
0.005
0.055
0.090
0.092
0.033
0.020
-0.023
0.060
0.028
-0.135
0.130
-0.061
-0.013
0.053
0.017
-0.010
0.038
-0.073
0.046
0.019
-0.078
0.026
0.098
-0.066
0.026
0.050
0.044
0.007
0.036
0.032
0.003
0.007
0.006
-0.013
0.005
-0.041
0.034
-0.029
0.001
-0.019
0.044
0.105
-0.004
0.029
-0.054
0.017
0.053
0.105
0.019
-0.071
-0.046
-0.064
-0.005
0.051
-0.017
0.016
0.052
0.008
-0.066
0.037
-0.029
-0.005
-0.085
0.063
0.043
0.067
-0.026
-0.047
-0.009
0.050
-0.076
0.110
0.069
-0.100
0.098
0.127
0.011
-0.003
0.021
-0.002
-0.089
-0.022
-0.096
0.032
-2.449
-3.850
-4.176
-3.146
2.593
4.319
4.707
0.987
-2.824
-3.949
-4.120
-1.281
3.080
4.366
4.627
4.561
4.365
4.187
3.957
0.296
2.571
3.198
2.136
-0.893
-3.341
-4.549
-4.759
-3.928
-2.837
-1.655
-0.724
0.246
0.752
0.972
1.022
0.881
0.693
0.531
0.201
-0.015
-0.138
-0.338
-0.170
-0.014
-0.101
0.043
0.296
0.242
-1.024
-3.007
-3.504
-1.176
2.226
2.978
4.697
4.522
1.676
-0.976
-1.805
-1.232
0.293
1.988
3.274
4.092
1.004
-2.813
-0.273
3.167
4.131
2.993
-0.024
-2.478
-3.817
-3.842
-2.729
-1.346
-0.043
1.254
1.877
2.284
2.297
1.899
1.372
0.843
0.126
-0.391
-0.700
-0.831
-1.114
-1.075
-1.025
-0.926
-0.596
-0.469
-0.388
-0.224
-0.032
0.521
0.993
1.181
0.542
0.145
0.247
0.286
0.344
0.462
0.427
0.568
0.395
0.436
0.301
0.258
0.018
0.009
-0.136
-0.088
0.150
0.201
0.030
0.143
0.169
0.272
0.347
0.323
0.377
0.388
0.361
0.491
0.424
0.280
0.351
0.341
0.316
0.303
0.219
0.280
0.283
0.293
0.164
0.206
0.070
0.245
0.200
0.072
0.021
0.175
-0.072
-0.018
0.045
-0.005
0.028
-0.085
-0.081
-0.047
-0.207
-0.020
-0.094
-0.122
-0.070
-0.235
-0.248
-0.222
-0.059
-0.008
-0.245
-0.152
-0.070
-0.204
-1.545
-2.470
0.595
1.136
-1.430
-3.340
0.016
2.331
1.771
0.746
-0.115
-0.553
-0.392
0.045
0.300
0.795
1.093
1.071
0.956
0.755
0.511
0.168
-0.234
-0.322
-0.450
-0.527
-0.619
-0.505
-0.538
-0.365
-0.311
-0.233
-0.048
-0.103
-0.076
-0.132
0.099
0.014
-0.023
0.052
0.004
0.089
-0.008
0.093
0.105
-0.042
-0.009
0.079
0.061
0.209
0.166
0.113
0.105
0.073
-0.051
-0.016
0.139
0.062
0.060
0.060
-0.138
-0.926
-0.954
-0.348
-0.045
0.378
-0.221
0.426
1.073
0.742
0.184
-0.169
-0.062
0.268
0.524
0.508
0.648
0.653
0.744
0.506
0.249
0.141
0.015
-0.161
-0.185
-0.376
-0.356
-0.441
-0.255
-0.238
-0.151
-0.092
-0.028
-0.175
-0.235
-0.095
-0.211
-0.105
0.078
0.137
0.007
-0.078
-0.226
0.010
-0.024
-0.118
-0.163
0.104
0.028
0.004
0.103
-0.079
0.190
-0.041
0.178
0.132
-0.016
-0.149
0.132
-0.090
-1.080
-2.766
-3.738
-2.945
-1.898
-2.376
-2.471
-2.854
-2.666
-2.086
-2.290
-0.952
-1.028
-0.083
0.721
1.089
1.859
2.250
2.585
2.714
3.034
3.170
3.334
2.966
2.587
2.153
1.587
0.966
0.329
-0.303
-0.885
-1.060
-1.234
-1.380
-1.599
-1.545
-1.561
-1.350
-1.251
-1.170
-0.959
-0.912
-0.895
-0.684
-0.531
-0.628
-0.475
-0.347
-0.305
-0.185
-0.014
0.035
0.071
0.174
0.228
0.419
0.334
0.408
0.585
0.658
0.736
0.799
0.718
0.738
1.028
0.927
0.933
0.912
0.888
0.949
0.936
0.962
0.963
0.894
0.868
0.861
0.859
0.841
0.648
0.675
0.528
0.607
0.448
0.560
0.398
0.286
0.265
0.380
0.239
0.137
-0.039
-0.009
0.118
0.125
0.039
-0.071
-0.091
-0.332
-0.194
-0.334
-0.594
-0.696
-0.602
-0.248
-0.124
-0.222
-0.351
-0.518
-0.492
-0.420
-0.367
-0.282
-0.172
-0.210
0.020
-0.019
-0.073
-0.113
-0.257
-0.342
-0.036
-0.088
-0.102
-0.260
-0.296
-0.142
-0.062
-0.117
-0.119
-0.075
-0.047
-0.175
-0.058
0.099
0.034
0.085
0.249
0.072
0.045
0.107
0.167
0.116
0.029
0.078
0.003
0.174
0.115
0.075
0.064
0.087
0.094
0.012
0.152
0.065
0.078
0.029
-0.030
0.032
0.202
0.115
0.180
-0.085
-0.129
-0.037
0.006
0.049
0.131
-0.073
-0.026
0.147
0.142
-0.043
-0.015
-0.080
-0.073
-0.168
0.006
0.100
0.074
-0.026
-0.168
-0.055
0.212
0.226
0.098
-0.014
0.048
0.169
0.154
0.119
0.003
0.000
0.260
0.293
0.071
0.116
0.049
0.292
0.327
0.078
0.075
0.098
0.020
0.178
0.125
0.087
-0.012
0.177
0.020
0.081
0.045
0.010
0.026
0.074
-0.093
-0.034
-0.051
-0.039
0.074
0.016
-0.062
-0.158
-0.009
-0.082
-0.035
-0.098
-0.109
-0.075
-0.093
-0.019
-0.061
-0.098
-0.151
-0.124
-0.050
0.014
-0.264
-0.116
-0.154
-0.096
-0.021
-0.014
-0.043
-0.166
-0.143
-0.029
-0.071
-0.217
0.004
-0.015
-0.005
-0.034
-0.013
0.029
-0.040
0.027
0.032
0.003
0.050
-0.017
0.073
0.157
0.019
0.089
0.059
0.079
0.155
0.041
0.014
0.150
0.171
0.105
0.155
0.114
0.061
0.134
0.114
0.175
0.194
0.092
0.067
0.174
0.112
0.116
0.176
0.195
0.125
0.073
-0.030
0.199
0.121
0.035
-0.071
0.024
-0.013
0.020
0.072
0.029
0.029
0.187
0.030
-0.040
0.022
0.047
0.006
-0.063
0.012
0.158
-0.059
-0.182
0.001
0.031
-0.037
0.029
-0.047
-0.153
0.020
-0.035
-0.008
0.025
-0.155
-0.045
-0.118
-0.084
0.033
0.038
-0.136
-0.059
-0.060
0.048
0.007
0.130
-0.061
0.033
-0.084
-0.134
0.003
0.061
-0.084
0.105
0.137
-0.117
0.033
0.068
0.095
0.086
0.032
0.026
0.158
0.009
0.021
0.053
0.055
0.035
0.284
0.069
0.052
-0.011
-0.017
0.083
-0.054
0.030
0.140
0.133
0.071
0.155
0.043
-0.055
0.099
0.045
0.037
0.073
0.050
0.037
0.098
0.086
-0.062
-0.052
0.091
0.143
0.030
-0.065
0.078
-0.043
0.002
0.006
0.096
-0.034
0.023
-0.050
0.009
0.048
0.035
0.047
-0.108
-0.043
0.074
-0.079
0.182
-0.020
-0.021
-0.201
0.120
-0.010
-0.028
0.009
0.020
-0.117
0.058
-0.003
-0.015
0.000
0.096
0.121
-0.061
0.047
-0.099
0.018
0.040
-0.051
0.069
-0.030
0.098
0.007
0.030
0.013
0.038
0.008
-0.058
0.061
0.048
-0.105
0.013
0.066
0.075
-0.057
-0.100
-0.076
0.062
-0.011
0.065
0.037
-0.024
-0.092
-0.022
0.087
-0.022
0.112
-0.031
-0.024
0.078
0.049
-0.076
0.057
0.015
-0.027
0.119
0.176
0.050
-0.076
0.101
-0.033
-0.130
0.117
0.048
0.082
0.073
0.073
-0.009
-0.028
0.091
-0.029
0.056
0.208
0.062
-0.169
-0.083
0.183
0.124
0.072
-0.020
0.031
-0.007
0.034
-0.002
0.027
-0.035
0.061
-0.041
0.017
-0.023
0.106
0.057
0.073
-0.078
0.095
0.054
-0.023
-0.011
-0.025
-0.056
-0.046
0.035
0.064
-0.067
0.087
0.047
-0.015
0.002
-0.076
-0.098
0.135
0.206
0.178
0.125
0.349
0.332
0.660
0.622
0.486
0.122
0.133
0.223
0.332
0.270
0.373
0.245
0.145
-0.117
0.098
-0.014
-0.119
-0.256
-0.220
-0.189
-0.292
-0.097
-0.027
-0.252
-1.844
-3.636
-2.414
0.981
2.510
2.468
1.319
-0.080
-1.183
-1.337
-0.893
-0.225
0.580
1.361
1.755
1.890
1.968
1.681
1.400
0.839
0.514
0.104
-0.233
-0.377
-0.594
-0.588
-0.569
-0.402
-0.433
-0.251
-0.115
-0.088
-0.186
-0.105
0.090
0.002
0.050
-0.024
0.007
-0.034
-0.047
0.020
0.002
-0.086
0.047
0.129
0.019
0.020
0.034
0.045
0.240
0.034
0.069
0.138
0.164
-0.042
0.109
0.200
0.086
0.094
0.065
0.200
0.090
0.008
-0.024
0.207
0.166
0.132
0.128
0.181
0.004
0.031
0.064
0.068
0.085
0.004
0.175
-0.025
0.083
-0.004
0.103
0.172
-0.067
-0.016
0.093
0.044
-0.036
0.005
-0.020
-0.014
0.057
-0.055
-0.104
-0.006
0.002
-0.044
0.037
-0.171
-0.081
-0.103
0.029
0.006
-0.155
-0.068
-0.120
0.065
-0.004
-0.098
0.001
-0.037
-0.040
0.091
-0.083
-0.027
0.060
-0.024
0.023
-0.098
0.063
0.113
-0.020
-0.036
0.086
-0.015
-0.017
-0.009
0.105
0.047
-0.025
0.016
0.192
0.171
-0.055
-0.001
-0.058
0.222
0.059
-0.100
-0.022
0.047
0.147
0.037
0.026
0.016
0.035
0.073
0.044
-0.028
0.056
0.118
0.058
0.090
-0.017
-0.059
0.024
-0.044
0.040
0.050
-0.042
-0.028
0.120
-0.025
-0.055
0.095
0.024
-0.078
-0.005
0.066
-0.047
0.044
-0.059
0.048
0.038
-0.036
0.014
-0.066
0.030
0.079
0.018
0.118
0.023
-0.068
0.013
-0.012
-0.041
0.088
0.150
0.067
-0.051
0.016
-0.040
0.048
0.163
0.013
0.084
-0.074
-0.058
0.045
0.020
0.139
0.018
0.003
-0.058
0.075
-0.004
-0.024
-0.041
0.056
0.024
0.050
0.027
0.043
0.037
0.130
0.105
-0.051
-0.046
0.014
-0.003
0.055
0.023
0.116
-0.117
0.037
0.023
0.052
0.090
0.001
0.002
-0.142
-0.032
-0.003
-0.000
0.066
-0.043
-0.034
0.142
-0.088
0.047
-0.060
0.111
0.029
-0.077
0.006
-0.038
-0.046
0.013
0.073
0.064
0.040
0.075
0.041
-0.058
0.060
0.072
0.073
0.115
0.017
-0.063
-0.165
0.035
0.046
0.059
0.054
0.180
0.067
0.110
-0.012
0.044
0.148
0.432
0.813
0.658
0.424
0.284
0.094
0.044
0.227
0.283
0.370
0.306
0.319
0.133
-0.009
-0.031
-0.166
-0.084
-0.188
-0.111
-0.375
-0.272
-0.055
0.017
-0.070
-0.091
0.068
0.065
0.038
0.159
0.240
0.046
0.109
0.156
0.173
0.339
0.050
0.030
0.119
0.098
0.120
0.172
0.170
0.241
0.245
0.106
0.178
0.042
0.210
0.125
0.150
0.189
0.070
-0.018
0.114
0.039
0.176
-0.049
0.014
-0.035
0.052
0.014
0.042
0.077
-0.045
-0.045
-0.092
0.114
-0.026
-0.116
-0.016
0.028
-0.071
-0.157
0.004
-0.069
-0.082
-0.184
-0.114
-0.004
0.022
-0.036
-0.022
-0.150
-0.127
-0.027
-0.001
-0.028
-0.064
-0.070
-0.029
-0.029
-0.034
-0.143
0.019
0.033
-0.082
-0.148
0.056
0.076
0.040
-0.043
0.050
0.051
0.005
0.045
-0.066
-0.019
-0.020
-0.065
0.171
0.020
-0.037
0.127
-0.041
-0.009
0.029
0.072
0.086
-0.008
0.010
0.106
0.022
0.061
-0.067
0.042
0.069
-0.038
0.135
0.060
0.051
0.049
0.081
-0.045
-0.017
0.137
0.050
0.122
-0.177
-0.072
0.116
0.102
-0.036
0.015
-0.003
-0.006
-0.014
0.114
-0.070
0.059
0.093
0.073
-0.137
0.023
0.048
0.085
0.062
-0.042
-0.055
0.062
-0.108
-0.033
-0.029
0.154
0.167
0.002
-0.123
0.047
0.112
0.086
0.115
0.032
0.113
-0.053
0.184
-0.092
0.071
0.054
0.063
0.142
-0.038
0.040
-0.012
-0.089
0.131
0.000
-0.027
-0.019
0.142
-0.029
-0.118
0.072
-0.007
-0.123
-0.081
0.049
-1.199
0.027
0.646
0.423
0.166
-0.282
-0.625
0.101
0.284
0.187
0.129
0.090
0.060
-0.026
0.108
0.205
0.258
0.096
0.151
0.108
0.036
0.126
-0.077
-0.100
-0.143
-0.153
-0.067
-0.007
-0.105
-0.101
-0.004
-0.032
0.085
-0.073
-0.141
-0.066
-0.002
0.136
0.156
0.046
-0.090
-0.072
-0.046
-0.054
0.150
0.074
-0.008
-2.403
-3.779
-0.599
-0.568
2.555
4.149
4.114
-1.157
-3.550
-4.199
-3.608
-3.654
-3.911
1.364
4.040
4.757
4.812
4.669
2.584
-0.203
-1.482
-1.890
-1.540
-0.198
1.483
2.861
3.554
3.594
3.378
2.579
1.537
0.497
-0.532
-1.405
-1.939
-2.330
-2.204
-2.233
-1.895
-1.481
-1.172
-0.732
-0.540
-0.121
0.153
0.267
0.226
0.188
0.379
0.477
0.420
0.362
0.216
0.460
0.565
0.509
0.454
0.647
0.489
0.714
0.693
0.818
0.725
0.657
0.597
0.703
0.840
0.677
0.559
0.537
0.635
0.481
0.384
0.403
0.402
0.440
0.152
0.352
0.244
0.260
0.125
0.175
0.045
-0.024
0.102
-0.053
-0.191
-0.100
-0.190
-1.507
-3.722
-4.355
-4.410
1.399
3.740
2.830
-2.004
-0.052
0.999
-0.020
-1.028
-0.597
0.942
2.586
3.623
3.861
3.814
3.628
3.166
2.081
0.682
-0.592
-1.497
-2.283
-2.737
-2.637
-2.432
-2.229
-1.715
-1.317
-0.763
-0.585
-0.210
-0.042
0.144
0.187
0.476
0.350
0.385
0.343
0.413
0.382
0.287
0.460
0.588
0.469
0.645
0.661
0.715
0.587
0.785
0.719
0.744
0.621
0.732
0.857
0.735
0.676
0.626
0.585
0.660
0.471
0.546
0.532
0.332
0.457
0.365
0.258
0.276
0.253
0.110
0.160
0.043
0.028
0.041
-0.027
0.073
-0.162
-0.092
-0.127
-0.190
-0.199
-0.315
-0.169
-0.369
-0.311
-0.177
-0.239
-0.220
-0.145
-0.351
-0.291
-0.330
-0.279
-0.261
-0.227
-0.126
-0.337
-0.083
-0.328
-0.176
-0.042
-0.104
-0.127
-0.188
-0.079
-0.148
-0.095
-0.044
-0.040
0.045
-0.016
0.060
0.074
-0.081
-0.057
0.014
-0.114
0.052
0.125
0.076
0.106
0.031
-0.005
-0.020
-0.007
0.188
-0.033
-0.009
0.023
-0.094
0.103
0.234
0.102
-0.061
0.039
-0.069
0.010
-0.080
-0.072
-0.083
-0.001
0.047
-0.118
-0.133
0.085
-0.094
-0.086
0.119
-0.031
-0.014
0.104
0.042
-0.103
-0.077
-0.061
0.057
0.064
0.129
0.054
-0.086
0.039
0.064
0.018
0.087
0.085
0.063
0.067
0.133
0.079
0.043
-0.140
0.139
0.199
0.192
0.044
0.130
0.051
0.145
0.167
0.040
0.014
0.201
0.111
-0.002
0.177
0.166
0.151
0.178
0.129
0.180
-0.044
0.001
0.072
0.115
0.043
0.021
0.006
-0.012
-0.006
-0.010
-0.011
0.052
-0.064
-0.146
-0.117
0.038
-0.069
-0.137
0.006
-0.089
-0.039
-0.099
-0.148
-0.181
-0.042
-0.038
-0.074
-0.112
-0.123
-0.183
-0.136
-0.133
-0.273
-0.059
0.036
0.000
0.067
-0.215
-0.253
0.014
-0.077
-0.092
0.018
0.090
-0.071
-0.013
0.073
-0.066
0.077
0.020
0.016
0.000
0.043
0.114
-0.057
0.161
0.021
0.127
0.201
0.113
0.064
0.113
0.056
0.010
0.048
0.040
0.150
0.151
0.144
0.023
0.223
0.042
0.136
0.118
0.117
0.090
0.115
0.025
0.214
0.064
0.086
0.088
0.058
0.058
0.051
-0.014
0.035
0.046
-0.016
0.040
-0.043
0.111
0.015
-0.122
-0.101
0.063
0.044
0.045
-0.088
-0.112
-0.091
-0.020
0.041
0.086
-0.084
-0.122
-0.076
-0.078
-0.032
-0.021
-0.100
0.008
0.097
-0.042
-0.128
-0.103
0.006
0.061
0.052
0.097
-0.083
-0.200
0.021
-0.010
0.054
0.003
0.075
0.045
0.057
-0.107
-0.084
0.009
0.142
0.009
0.023
-0.043
0.002
-0.112
0.060
0.130
0.056
0.137
-0.064
0.054
0.064
0.084
-0.030
-0.005
0.112
-0.032
0.080
0.034
0.171
0.042
0.137
-0.003
0.001
0.102
0.056
0.133
-0.194
0.048
0.109
0.095
0.043
0.041
-0.110
0.152
0.013
-0.022
0.070
-0.024
-0.086
-0.001
0.020
0.038
0.069
0.025
-0.012
-0.043
0.021
-0.030
0.011
0.071
-0.044
0.098
0.002
0.051
-0.065
-0.048
0.078
0.000
-0.037
-0.039
-0.002
-0.115
0.130
0.099
-0.132
-0.056
-0.012
-0.080
0.001
0.112
-0.045
-0.039
0.071
-0.005
-0.013
-0.002
0.017
-0.019
-0.080
0.068
0.086
0.028
-0.011
-0.020
-0.032
-0.004
0.062
0.047
0.074
0.091
-0.015
0.027
-0.051
0.027
0.014
0.022
-0.045
0.013
0.062
-0.057
0.084
0.001
0.059
0.109
-0.013
-0.071
0.044
0.047
0.044
-0.002
0.011
-0.017
0.099
-0.075
0.038
-0.039
-0.028
0.027
0.032
0.089
0.029
0.016
0.016
-0.013
-0.014
0.109
0.101
-0.056
-0.003
0.017
0.078
0.123
0.034
0.035
0.045
0.102
-0.020
-0.020
0.082
0.009
-0.070
0.066
0.100
-0.053
-0.076
-0.050
0.028
0.125
-0.067
0.116
-0.042
0.011
-0.071
0.108
0.085
-0.000
-0.052
0.052
-0.073
0.172
0.062
0.073
0.065
-0.018
-0.049
-0.041
0.023
0.029
-0.025
0.076
0.079
-0.036
-0.008
0.063
0.034
-0.056
-0.032
0.062
-0.057
0.034
0.116
0.018
-0.018
-0.132
0.038
0.024
0.031
0.098
0.075
-0.133
0.033
-0.063
-0.010
0.099
-0.000
0.077
0.096
-0.022
0.024
-0.117
0.130
0.103
-0.012
-0.068
0.166
0.007
-0.015
0.039
0.137
-0.000
0.026
0.046
-0.019
-0.052
-0.017
0.109
0.091
0.013
0.068
0.117
-0.100
0.104
0.009
-0.028
0.057
0.106
0.003
-0.083
-0.051
-0.045
0.023
-0.002
0.136
0.040
0.119
-0.101
0.019
-0.021
-0.032
0.087
0.003
-0.002
-0.024
-0.031
-0.009
0.068
0.067
0.015
0.008
0.023
0.094
0.014
-0.032
0.021
-0.099
0.081
-0.009
0.036
-0.072
0.076
0.021
0.006
-0.091
-0.045
0.049
-0.024
-0.074
0.148
-0.007
0.095
-0.004
0.041
0.085
-0.077
-0.098
-0.009
0.071
0.102
0.129
-0.001
-0.100
0.168
-0.009
-0.054
-0.000
0.005
0.016
0.082
0.035
0.001
-0.012
-0.056
-0.192
-1.197
-1.726
0.089
1.075
1.215
0.556
0.146
-0.348
-0.253
-0.316
0.023
0.292
0.421
0.365
0.521
0.443
0.277
0.255
0.120
-0.136
-0.041
-0.230
-0.096
-0.169
-0.162
-0.233
-0.188
0.012
-0.123
0.057
-0.065
-0.012
0.055
-0.045
-0.036
0.117
0.015
0.020
-0.131
0.089
0.100
0.090
0.049
-0.029
0.022
-0.049
-0.040
0.013
0.179
0.112
0.014
0.181
-0.123
0.209
0.031
-0.025
0.179
0.137
0.035
0.126
-0.014
-0.031
0.083
-0.002
0.112
0.052
-0.016
-0.010
0.026
0.138
-0.067
-0.053
0.039
0.023
0.077
-0.021
0.020
-0.029
0.033
0.011
0.033
0.022
0.012
-0.056
-0.043
0.009
0.082
-0.026
-0.028
-0.159
0.101
-0.005
0.134
-0.035
-0.050
-0.029
-0.081
0.067
0.018
-0.062
-0.045
-0.053
0.054
-0.002
-0.034
0.061
-0.025
-0.011
-0.064
0.013
0.011
-0.029
0.042
0.126
0.016
-0.010
0.009
0.084
-0.002
0.078
-0.063
-0.056
-0.016
0.085
0.069
-0.007
0.027
-0.055
-0.039
0.009
0.087
0.081
-0.046
-0.008
0.087
-0.039
-0.050
0.014
0.086
0.010
0.022
-0.036
0.116
0.067
0.020
0.017
-0.093
0.163
0.080
-0.006
0.175
-0.065
0.081
-0.481
-2.679
-3.388
-4.024
-3.957
2.299
4.238
2.768
2.825
0.719
-2.762
-3.421
-1.794
0.686
2.679
3.772
4.328
4.349
4.200
4.004
3.435
2.447
1.764
1.042
-3.405
-4.986
-3.530
-2.525
-2.381
-2.391
-2.651
-1.912
-1.379
-0.961
-0.284
0.427
1.099
2.135
2.223
1.756
1.437
0.628
0.639
1.245
0.762
-0.412
-1.186
-1.048
-1.703
-2.870
-3.500
-2.291
-2.366
-2.752
-3.143
-3.189
-3.069
-2.961
0.893
4.417
4.840
3.567
2.098
1.140
1.307
2.381
4.062
4.583
4.544
4.320
4.057
3.777
3.519
3.257
2.956
1.942
0.553
-0.758
-1.662
-2.214
-2.644
-2.743
-2.550
-2.053
-1.731
-1.418
-1.228
-0.975
-0.609
-0.600
-0.586
-0.467
-0.436
-0.282
-0.279
-0.009
-0.060
0.032
0.103
0.234
0.544
0.597
0.632
0.772
0.939
0.937
1.098
1.146
1.228
1.285
1.363
1.263
1.193
1.120
1.222
1.207
1.284
1.278
1.190
1.206
1.132
1.177
1.048
0.990
0.845
0.983
0.783
0.677
0.575
0.542
0.332
0.358
0.515
0.365
0.162
0.183
0.147
0.060
-0.263
-0.233
-0.161
-0.226
-0.337
-0.281
-0.380
-0.278
-0.458
-0.398
-0.554
-0.522
-0.315
-0.576
-0.496
-0.552
-0.493
-0.418
-0.460
-0.599
-0.438
-0.372
-0.452
-0.423
-0.362
-0.363
-0.326
-0.380
-0.117
-0.241
-0.224
-0.163
-0.023
-0.077
-0.167
0.029
-0.001
-0.022
0.053
0.077
0.038
0.259
0.143
0.187
0.085
0.144
0.046
0.168
0.121
0.405
0.325
0.144
-0.027
0.209
0.231
0.170
0.125
0.166
0.167
0.064
-0.033
0.150
0.046
0.107
0.031
0.009
0.112
0.034
0.155
-0.068
0.026
-0.128
0.072
0.076
0.012
-0.132
-0.150
-0.018
0.140
-0.056
-0.070
0.028
0.067
0.077
-0.059
-0.170
0.013
0.128
0.098
-0.045
0.036
0.051
-0.047
-0.057
0.219
0.178
0.005
0.006
0.080
0.189
0.139
-0.055
0.040
0.162
0.257
0.238
0.030
0.198
0.205
0.180
0.139
0.176
0.051
0.058
0.142
0.275
0.018
0.035
0.004
0.160
0.036
0.065
-0.017
0.110
0.021
-0.063
0.054
-0.097
0.103
-0.055
0.251
0.932
0.989
0.596
0.112
-0.022
-0.021
0.156
0.202
0.132
0.259
0.254
0.017
-0.007
-0.081
-0.448
-0.335
-0.505
-0.411
-0.396
-0.484
-0.453
-0.260
-0.100
-0.184
-0.184
-0.155
-2.696
-1.893
1.804
2.909
2.054
0.885
-0.219
-0.753
-0.643
-0.138
0.093
0.602
0.902
1.081
1.277
1.030
0.698
0.634
0.394
0.251
0.055
-0.137
-0.137
-0.233
-0.091
-0.018
0.068
0.084
0.057
0.138
0.238
0.153
0.153
0.201
0.246
0.172
0.131
0.199
0.075
0.083
0.017
0.117
0.172
0.048
0.064
0.027
0.022
0.128
0.003
0.123
0.004
0.060
-0.036
-0.106
-0.014
-0.084
0.009
-0.056
-0.117
-0.059
-0.042
-0.160
-0.105
-0.163
-0.061
-0.085
-0.074
-0.170
-0.134
-0.073
-0.093
-0.150
0.033
-0.850
-0.315
0.158
0.271
0.006
-0.026
-0.121
-0.073
-0.178
0.064
-0.122
-1.082
-1.112
0.277
0.855
0.605
0.107
-0.240
-0.051
-0.048
-0.027
0.006
0.057
0.169
0.143
0.275
0.335
0.297
0.090
0.129
0.078
-0.112
-0.056
-0.099
-0.127
-0.132
-0.050
-0.083
-0.143
-0.090
-0.029
-0.055
0.151
0.083
0.091
0.051
0.182
0.006
0.032
0.166
0.102
0.163
0.083
-0.039
0.171
0.119
0.042
0.058
0.077
0.129
0.157
0.084
0.006
0.030
0.118
0.139
0.122
-1.597
-3.599
-4.117
-2.742
-3.519
-1.637
3.165
4.579
3.669
-0.028
-2.677
-2.566
1.010
3.076
4.174
4.439
4.360
4.171
3.985
3.755
3.560
3.212
1.860
0.340
-1.816
-4.738
-5.542
-3.019
0.118
0.201
-0.970
-2.256
-2.762
-1.886
-0.742
0.104
0.589
1.256
2.016
2.245
2.665
2.843
2.420
1.751
0.972
0.365
-0.152
-0.765
-0.699
-0.484
-0.125
-0.241
-0.075
0.039
0.225
0.355
0.625
0.821
1.142
1.092
1.025
1.132
0.963
0.904
0.777
0.642
0.787
0.750
0.774
0.661
0.534
0.658
0.427
0.335
0.337
0.307
0.505
0.258
0.465
0.552
0.423
0.153
0.011
-0.028
-0.005
-0.096
-0.056
0.081
-0.127
-0.261
-0.024
-0.161
-0.188
-0.296
-0.456
-0.414
-0.502
-0.476
-0.421
-0.326
-0.598
-0.465
-0.462
-0.403
-0.290
-0.295
-0.489
-0.416
-0.404
-0.267
-0.374
-0.439
-0.334
-0.191
-0.245
-0.170
-0.260
-0.381
-0.218
-0.375
-0.239
-0.654
-0.007
0.671
0.235
0.155
0.512
0.486
0.281
0.057
0.291
0.463
0.507
0.526
0.410
0.418
0.425
0.245
0.218
0.160
0.142
0.061
-0.055
-0.081
-0.112
-0.160
-0.187
-0.085
-0.133
0.041
0.073
-0.051
0.170
0.044
0.104
0.153
0.098
0.137
0.134
0.163
0.204
0.033
0.123
0.211
0.209
0.156
0.177
0.147
0.260
0.165
0.191
0.124
0.023
0.174
0.262
0.191
0.193
0.241
0.073
0.067
0.099
0.140
0.104
0.199
0.163
0.017
0.063
0.006
0.121
0.159
0.039
-0.042
0.104
0.056
0.109
-0.079
0.021
-0.000
-0.015
-0.080
0.028
-0.103
-0.039
-0.057
0.012
-0.044
-0.126
-0.191
-0.109
-0.090
-0.106
-0.104
-0.068
-0.098
-0.243
-0.102
-0.119
-0.178
-0.113
-0.180
-0.115
-0.139
-0.080
-0.182
-0.078
-0.015
-0.163
-0.242
-0.157
-0.064
0.036
-0.120
-0.221
-0.130
-0.039
-0.088
-0.065
-0.043
-0.022
-0.079
-0.057
-0.012
-0.075
0.062
0.066
0.170
0.023
0.055
0.007
0.086
0.111
0.106
0.017
0.031
0.081
0.054
0.123
0.081
0.217
0.007
0.137
0.121
0.098
-0.004
0.209
0.143
0.080
0.063
0.137
0.127
0.154
0.125
0.149
0.176
0.061
0.052
0.039
0.118
0.125
0.093
0.009
0.031
0.008
0.156
0.107
-0.032
0.012
-0.110
-0.031
0.034
-0.031
-0.037
0.096
-0.136
-0.029
0.043
0.001
-0.029
-0.016
-0.071
0.037
0.002
0.021
-0.156
-0.053
0.029
-0.077
-0.043
-0.185
0.021
0.057
-0.125
-0.203
-0.053
0.019
0.000
-0.111
-0.066
-0.085
-0.036
-0.055
-0.137
-0.033
0.047
-0.058
-0.018
-0.004
-0.110
-0.044
-0.028
0.085
0.042
0.037
0.052
-0.121
-0.052
0.096
-0.072
0.024
0.102
0.061
0.092
0.051
0.022
0.024
0.088
0.134
0.067
0.086
0.001
0.005
0.058
0.109
0.085
0.099
0.001
0.047
0.074
0.034
0.053
0.085
0.065
0.077
0.007
-0.008
0.089
-0.044
0.066
0.077
0.039
0.078
-0.102
0.050
0.203
-0.039
0.165
0.059
-0.006
-0.015
-0.073
-0.015
0.031
0.095
0.027
-0.016
0.022
0.079
-0.018
0.144
-0.073
-0.045
-0.013
-0.097
0.115
0.062
-0.051
-0.025
0.019
-0.085
0.081
-0.078
-0.083
0.029
0.019
-0.004
-0.077
-0.068
0.097
-0.049
-0.064
0.187
0.027
-0.104
-0.110
-0.018
0.008
0.005
-0.020
0.127
-0.042
0.010
0.006
0.030
-0.036
-0.103
-0.037
0.076
0.003
-0.000
0.005
0.008
-0.076
0.089
-0.051
0.034
-0.083
-0.055
0.064
-0.091
0.080
-0.015
-0.012
0.013
0.026
0.023
0.040
0.090
0.103
-0.084
-0.098
0.043
0.191
-0.107
0.014
-0.058
0.030
0.101
-0.114
0.048
-0.047
0.064
0.073
-0.096
0.068
0.033
0.096
0.009
0.115
0.002
0.032
0.051
-0.048
0.076
0.065
0.097
0.086
-0.060
0.020
-0.031
0.045
-0.016
-0.001
0.133
0.060
-0.012
0.060
0.032
-0.070
0.028
-0.076
0.021
0.001
-0.040
0.105
0.082
-0.094
0.023
-0.047
0.091
-0.003
-0.001
-0.009
0.028
0.005
0.113
0.084
0.031
0.055
-0.033
-0.022
-0.043
0.011
0.121
0.040
-0.006
0.084
0.047
0.070
-0.066
-0.014
-0.027
0.053
-0.008
-0.090
0.065
0.044
-0.058
-0.094
0.104
0.071
0.091
-0.045
-0.025
0.001
0.014
-0.086
0.260
0.003
0.054
0.058
-0.014
-0.136
0.056
-0.009
0.085
-0.008
-0.068
-0.042
-0.015
-0.001
-0.049
-0.071
0.074
0.033
-0.010
0.032
0.062
0.065
0.072
0.021
0.079
0.005
-0.033
0.028
0.065
0.042
-0.060
0.142
0.071
-0.030
-0.008
0.023
-0.017
-0.144
0.079
0.132
0.003
0.036
0.015
-0.052
-0.037
0.020
0.046
0.011
0.004
-0.014
-0.051
0.122
-0.062
-0.039
0.079
0.013
-0.100
-0.041
0.079
0.043
0.052
-0.072
-0.047
0.069
0.060
0.100
0.017
0.032
-0.124
0.031
-0.016
0.032
0.066
0.088
0.068
0.033
-0.004
0.023
0.055
0.034
0.017
-0.028
0.057
0.059
-0.078
-0.026
0.001
0.122
-0.016
0.003
0.044
-0.064
0.100
-0.071
0.013
0.107
0.011
-0.030
-0.032
0.104
0.028
-0.104
-1.163
-3.492
-4.101
-1.156
2.787
4.254
4.579
2.849
-2.305
-3.955
-4.368
-3.674
1.134
3.746
4.444
4.510
4.396
4.208
4.023
3.824
3.645
2.934
0.579
-1.437
-2.971
-3.829
-3.900
-3.235
-1.961
-1.600
-1.304
-0.919
-0.200
0.343
0.858
1.013
1.017
0.908
0.593
0.332
0.229
-0.070
-0.060
-0.187
0.003
0.015
0.134
0.218
0.495
0.551
0.700
0.832
1.019
0.815
0.787
0.817
0.822
0.760
0.727
0.691
0.632
0.534
0.490
0.432
0.457
0.559
0.335
0.295
0.284
0.326
0.256
0.054
0.134
0.191
0.080
-0.111
-0.121
-0.044
-0.129
-0.145
-0.284
-0.252
-0.217
-0.280
-0.156
-0.370
-0.457
-0.322
-0.458
-0.338
-0.303
-0.296
-0.363
-0.249
-0.330
-0.399
-0.240
-0.304
-0.261
-0.137
-0.361
-0.307
-0.121
-0.177
-0.215
-0.175
-0.151
0.012
-0.006
-0.134
-0.178
0.013
-0.138
0.023
0.021
0.040
0.019
0.140
0.118
0.121
0.020
0.099
0.162
-0.016
0.105
0.096
0.191
0.248
0.216
0.186
0.125
0.093
0.112
0.162
0.012
0.127
0.001
0.145
0.037
0.010
0.044
0.153
-0.054
0.039
0.043
0.049
-0.045
0.046
-0.049
0.097
0.042
0.053
0.078
0.161
-0.084
-0.001
-0.018
-0.060
0.009
-0.006
0.047
-0.014
0.079
0.142
-0.031
-0.003
-0.008
0.071
0.023
0.086
0.056
-0.010
0.033
0.079
0.124
0.162
0.059
0.093
-0.021
-0.051
0.198
0.007
0.011
0.014
0.132
-0.038
0.029
0.067
0.010
0.065
0.032
0.559
1.142
0.855
0.578
0.179
0.076
0.189
0.091
0.337
0.404
0.399
0.290
0.184
-0.073
-0.141
-0.140
-0.301
-0.357
-0.362
-0.310
-0.385
-0.272
-0.274
-0.122
-0.002
-0.054
-0.069
0.087
0.022
0.072
0.259
-0.011
0.038
0.092
0.186
0.192
0.114
-0.008
0.040
0.214
0.145
0.244
0.128
0.188
0.118
0.202
0.032
0.263
0.161
0.158
0.129
0.198
0.044
0.094
0.095
0.033
0.003
0.104
0.155
0.155
0.000
-0.084
0.069
0.036
0.101
0.041
0.114
0.028
0.024
0.025
-0.128
-0.096
0.072
-0.008
-0.113
0.038
0.021
-0.047
-0.122
-0.134
0.046
0.008
-0.015
-0.105
-0.140
-0.166
-0.117
-0.075
0.023
0.015
-0.111
-0.134
-0.045
-0.088
-0.159
0.016
0.146
-0.085
-0.132
-0.088
-0.004
-0.045
-0.129
-0.049
0.057
-0.130
-0.104
-0.034
-0.011
-0.036
0.026
-0.034
-0.109
-0.043
-0.126
-0.126
-0.020
0.116
0.053
0.051
-0.025
-0.078
0.036
0.055
-0.010
-0.095
0.042
-0.015
-0.004
0.128
-0.011
0.072
0.022
-0.003
0.049
-0.037
0.057
0.045
0.076
0.089
0.074
0.026
0.021
0.124
-0.036
-0.057
0.101
-0.036
0.114
-0.048
0.073
0.023
0.084
0.032
0.062
0.063
0.091
0.007
0.082
0.100
0.003
0.010
-0.118
0.061
-0.000
0.030
0.029
0.085
0.024
0.034
-0.070
0.033
0.029
-0.001
-0.094
0.021
-0.077
0.074
-0.002
-0.028
0.011
-0.041
-0.029
-0.005
0.016
0.187
0.132
-0.029
0.060
-0.097
-0.094
0.075
-0.103
0.003
0.048
0.093
0.001
-0.200
-0.110
-0.061
-0.016
-0.004
-0.028
0.018
-0.008
-0.088
0.028
-0.042
0.102
-0.067
-0.044
0.067
0.061
0.024
0.070
-0.129
0.034
0.039
0.006
-0.075
-0.111
0.044
0.026
-0.077
-0.034
0.069
0.155
0.075
-0.014
0.014
0.048
0.065
-0.068
-0.012
0.069
0.128
0.060
0.090
-0.006
-0.075
0.102
0.083
0.014
0.036
-0.036
-0.000
0.101
-0.033
0.028
-0.035
0.137
0.141
0.013
0.133
-0.094
0.063
0.068
-0.114
0.048
0.093
0.008
-0.021
0.062
0.100
0.031
0.034
0.044
0.111
0.031
-0.670
-2.336
-3.705
-0.194
3.160
3.036
3.081
1.096
-0.608
-1.743
-1.527
-0.714
0.181
1.065
1.774
2.071
1.929
1.637
1.209
0.598
0.179
-0.345
-0.599
-0.856
-0.798
-0.926
-0.676
-0.659
-0.604
-0.381
-0.085
-0.068
0.119
0.047
0.022
0.135
0.262
0.135
0.273
0.243
0.239
-0.018
0.174
0.246
0.267
0.235
0.218
0.316
0.281
0.264
0.344
0.283
0.194
0.348
0.309
0.308
0.314
0.247
0.282
0.179
0.295
0.246
0.207
0.156
0.237
0.211
0.093
0.094
0.079
0.039
-0.115
0.018
0.073
0.170
-0.052
-0.659
-2.151
-3.570
-3.565
-2.330
0.504
1.060
0.848
0.303
0.914
-0.092
-1.703
-3.518
-4.014
-0.886
3.247
4.397
4.523
-0.881
-3.540
-4.295
-4.426
-0.487
3.174
4.200
4.350
4.236
3.199
1.892
1.974
2.797
3.177
3.167
3.055
2.913
2.488
1.414
0.102
-1.229
-2.076
-3.001
-3.386
-3.407
-3.127
-2.779
-2.130
-1.433
-0.903
-0.381
-0.176
0.134
0.465
0.484
0.167
0.905
1.260
1.129
1.034
0.863
0.812
0.871
0.967
0.993
1.238
1.253
1.366
1.254
1.404
1.304
1.355
1.203
1.177
1.115
1.012
1.087
1.096
0.814
0.652
0.232
-0.236
0.644
1.277
1.329
0.815
0.469
0.251
0.174
0.123
0.123
0.150
0.219
0.243
0.176
0.079
-0.068
-0.174
-0.358
-0.346
-0.485
-0.546
-0.660
-0.667
-0.727
-0.561
-0.568
-0.675
-0.628
-0.703
-0.444
-0.641
-0.432
-0.676
-0.581
-0.456
-0.572
-0.544
-0.474
-0.372
-0.316
-0.503
-0.270
-0.316
-0.371
-0.176
-0.153
-0.241
-0.144
-0.112
0.033
-0.021
-0.097
0.027
0.047
-0.027
0.102
-0.042
0.156
0.116
0.048
0.128
0.122
0.094
0.018
0.117
0.151
0.096
0.101
0.200
0.027
0.114
0.121
0.096
0.087
0.133
0.076
0.159
0.022
-0.001
-0.035
0.197
0.279
-0.134
0.018
0.062
0.051
0.019
0.034
0.060
0.018
-0.046
0.039
0.025
-0.029
0.099
0.137
0.085
0.046
-0.036
0.006
0.215
-0.041
-0.009
0.245
0.133
0.033
0.154
0.215
0.003
0.182
0.171
0.026
0.153
0.138
0.253
0.016
0.167
0.223
0.218
0.144
-0.021
0.228
0.148
0.121
0.086
0.079
0.074
0.180
0.013
0.042
0.025
0.027
-0.001
0.065
-0.054
0.017
-0.114
-0.001
-0.062
-0.078
-0.169
-0.132
-0.127
-0.058
-0.181
-0.107
-0.135
-0.062
-0.134
-0.152
-0.181
-0.220
-0.110
-0.125
-0.149
-0.231
-0.217
-0.166
-0.173
-0.165
-0.177
-0.044
-0.093
-0.098
-0.118
-0.163
-0.055
-0.047
-0.046
0.061
0.049
-0.154
0.038
-0.007
-0.015
0.032
0.069
0.078
0.054
0.074
0.051
-0.006
0.022
0.110
0.113
0.050
0.144
0.126
0.162
0.238
0.210
0.176
0.024
0.132
0.162
0.201
0.150
0.149
0.072
0.074
0.206
0.200
0.159
-0.016
0.086
0.190
-0.011
0.159
0.213
-0.028
0.033
0.024
0.135
0.039
0.018
-0.006
0.051
-0.033
0.157
0.018
-0.004
-0.012
-0.118
0.001
0.021
-0.082
-0.063
-0.050
-0.074
-0.117
-0.011
-0.156
-0.118
-0.187
-0.110
-0.101
0.018
-0.177
-0.062
-0.100
-0.118
-0.042
0.053
-0.229
-0.165
-0.105
0.001
0.041
0.032
-0.001
0.085
-0.142
0.046
-0.044
-0.020
0.087
-0.020
0.076
-0.000
-0.025
0.073
0.092
-0.007
-0.138
0.209
-0.008
0.115
-0.003
0.135
0.099
0.048
-0.027
0.171
0.093
-0.062
0.025
0.044
0.106
0.098
0.090
0.039
0.091
0.053
0.092
0.092
0.119
0.024
0.058
0.179
-0.017
0.174
-0.022
0.020
0.043
-0.005
0.176
0.101
-0.023
0.033
0.027
0.038
-0.099
0.049
-0.079
0.046
0.020
-0.023
0.051
0.010
-0.025
0.038
-0.037
0.095
0.057
0.052
-0.026
-0.006
-0.078
0.029
-0.077
0.015
-0.009
-0.018
-0.038
0.018
-0.016
0.019
0.051
-0.190
0.099
-0.121
0.017
-0.025
0.077
-0.013
0.059
0.076
-0.097
-0.053
-0.013
0.019
0.031
0.001
-0.001
0.095
-0.045
-0.069
-0.028
-0.073
0.036
0.126
0.094
0.042
-0.031
0.041
-0.031
0.001
-0.039
0.052
0.182
0.024
0.023
-0.022
-0.071
0.069
0.012
0.007
0.027
0.022
-0.093
0.165
-0.063
0.022
0.062
-0.003
-0.036
0.063
0.153
-0.000
-0.051
-0.050
0.043
-0.007
0.156
0.034
-0.038
-0.049
0.124
-0.009
-0.039
0.070
0.086
0.028
0.133
-0.120
0.094
0.183
-0.004
-0.156
-0.007
0.006
0.056
0.049
0.252
-0.009
-0.027
0.057
-0.059
0.075
-0.113
0.030
0.087
0.038
-0.035
0.120
0.059
-0.043
0.018
0.088
-0.073
0.043
-0.039
0.070
0.037
-0.002
0.070
0.184
-0.089
-0.096
0.034
0.019
-0.052
0.040
-0.043
-0.043
0.079
-0.066
0.007
-0.009
0.074
-0.008
-0.049
-0.001
0.035
0.080
0.073
-0.038
0.081
0.103
-0.088
-0.026
0.057
0.014
0.092
0.072
0.035
-0.127
0.105
-0.067
-0.014
0.096
0.086
0.076
-0.010
-0.137
0.010
-0.068
0.116
0.076
0.030
-0.082
0.079
0.075
0.010
0.077
0.043
0.037
-0.038
0.085
0.051
0.114
-0.098
-0.019
0.057
0.023
0.047
0.000
0.050
0.040
0.106
-0.015
0.058
-0.002
-0.067
-0.023
-0.042
0.086
0.067
0.034
-0.031
-0.082
0.050
0.083
-0.002
0.029
-0.126
0.125
0.034
0.018
0.076
0.004
-0.044
0.055
0.077
-0.019
-0.066
0.087
-0.079
0.068
-0.030
-0.038
0.007
0.028
0.102
0.045
0.037
0.008
-0.020
0.009
0.000
0.165
-0.047
0.035
0.005
-0.006
-0.039
-0.032
-0.038
0.069
0.046
-0.071
-0.022
0.079
0.074
-0.038
-0.032
0.099
-0.028
-0.008
0.068
0.129
-0.001
-0.048
0.033
0.100
0.021
-0.002
-0.056
0.004
-0.004
0.029
-0.043
-0.030
0.120
-0.034
0.102
-0.054
-0.034
0.089
0.008
-0.088
-0.019
0.185
0.024
0.011
0.118
-0.124
-0.073
-0.006
0.036
0.028
-0.067
0.054
0.111
0.018
-0.056
0.108
0.044
0.017
0.007
-0.096
0.164
-0.078
0.117
0.072
-0.092
-0.012
0.009
-0.050
-0.009
0.030
0.115
-0.078
-0.068
0.126
0.101
0.072
-0.099
-0.001
-0.017
-0.014
-0.039
-0.028
0.105
-0.059
-0.031
0.074
-0.021
0.087
-0.039
0.048
-0.005
0.053
0.023
0.047
-0.037
0.029
0.085
0.128
0.042
-0.070
-0.093
0.000
0.110
0.085
0.000
-0.543
-1.129
-2.709
-3.789
-0.274
3.317
3.493
1.536
0.031
-0.923
-1.059
-0.804
-0.085
0.755
1.117
1.434
1.447
1.250
0.876
0.684
0.262
-0.169
-0.318
-0.527
-0.679
-0.628
-0.637
-0.440
-0.459
-0.305
-0.232
-0.199
-0.067
-0.065
0.054
0.055
0.022
0.051
0.037
0.040
-0.110
0.058
0.025
0.122
0.041
0.119
0.137
-0.020
0.046
0.378
0.155
0.139
0.177
0.107
0.027
0.336
0.300
0.117
0.152
0.157
0.067
0.141
0.162
0.062
0.076
-0.001
0.081
0.103
0.168
0.178
-0.014
0.105
0.022
0.071
0.066
0.141
0.073
-0.025
0.123
0.002
-0.106
0.024
-0.069
0.072
-0.050
-0.071
0.043
-0.053
-0.040
0.075
-0.131
-0.059
0.078
0.010
-0.087
-0.080
-0.036
-0.049
-0.039
-0.064
-0.041
0.063
-0.013
-0.058
0.001
0.028
-0.122
0.095
-0.062
-0.098
0.080
-0.041
-0.051
0.045
-0.039
-0.042
0.039
0.128
0.017
0.105
-0.043
-0.081
0.106
0.118
0.100
-0.015
-0.070
-0.018
0.073
0.043
0.103
0.187
0.096
-0.046
-0.051
0.079
0.145
0.015
-0.057
0.055
-0.053
0.104
0.036
0.010
0.154
-0.002
-0.137
-0.003
0.157
0.041
0.022
0.034
-0.015
-0.017
-0.088
0.020
0.020
0.032
0.005
0.027
0.023
-0.050
-0.069
0.024
0.011
-0.005
-0.085
0.120
0.031
0.054
0.085
-0.018
0.026
0.060
-0.056
0.009
-0.006
0.030
0.122
-0.036
0.110
0.112
-0.018
0.025
0.049
0.002
-0.043
0.009
0.002
0.053
0.013
0.054
-0.057
0.019
-0.067
0.124
-0.010
0.044
0.091
0.082
-0.147
-0.052
0.004
-0.103
0.022
0.059
0.100
0.022
0.003
0.044
-0.018
-0.034
0.020
0.038
0.045
0.014
-0.070
0.015
0.105
0.071
-0.011
-0.084
0.052
0.108
-0.052
-0.070
0.158
-0.015
-0.032
0.026
0.026
-0.141
-0.062
-0.076
-0.192
-0.321
-0.340
-0.039
0.297
0.284
0.183
-0.096
-0.182
-0.099
0.117
0.118
0.268
0.206
0.165
0.071
0.192
0.204
0.068
0.093
0.079
0.041
-0.062
-0.035
0.097
0.011
-0.126
-0.051
-0.105
-0.029
0.093
0.067
-0.105
0.002
0.006
0.007
0.057
-0.010
0.091
-0.029
-0.093
0.003
0.037
0.065
0.072
0.094
0.062
-0.017
0.002
0.039
0.027
0.071
0.096
0.061
0.070
0.077
-0.023
0.036
0.006
-0.046
0.030
0.098
0.033
-0.128
0.069
0.087
0.118
0.105
-0.110
-0.028
-0.037
-0.047
-0.011
0.142
-0.058
-0.002
0.095
0.015
-0.010
0.012
0.029
0.004
0.008
-0.072
0.148
-0.140
0.068
0.008
0.051
0.077
0.065
0.061
-0.063
-0.047
0.071
-0.032
-0.033
0.088
-0.008
0.077
-0.058
-0.001
-0.074
0.014
0.022
0.080
-0.122
0.154
0.072
0.028
-0.080
-0.030
0.028
0.017
0.009
0.025
0.164
0.058
0.041
-0.040
-0.066
-0.051
-0.067
0.127
0.126
0.062
0.003
-0.061
0.114
-0.056
0.015
0.111
0.032
0.097
0.016
-0.051
0.001
0.091
0.025
0.028
-0.009
0.009
0.031
-0.040
0.030
0.071
-0.008
-0.077
0.029
0.005
-0.012
-0.009
-0.006
0.074
0.052
-0.069
0.009
-0.054
0.119
-0.000
0.028
0.052
-0.016
0.070
-0.005
-0.018
-0.017
0.085
-0.030
0.143
0.033
-0.038
-0.075
0.053
0.132
0.015
-0.040
-0.074
0.019
0.077
-0.020
0.056
0.023
-0.124
-0.069
-0.260
-0.345
-0.309
-0.182
-0.138
0.125
0.142
0.287
0.200
-0.014
-0.202
-0.100
-0.251
-0.060
0.086
0.407
0.426
0.546
0.438
0.173
0.240
-0.189
-0.051
0.002
0.033
0.018
0.074
0.040
0.147
0.012
0.036
-0.007
-0.051
-0.180
-0.159
-0.129
0.057
0.081
-0.029
-0.219
-0.055
-0.082
-0.040
0.024
-0.067
-0.039
0.122
-0.030
0.035
-0.165
-0.394
-1.966
-2.100
-0.193
1.398
1.118
1.003
0.438
0.001
-0.214
-0.208
-0.027
0.238
0.520
0.773
0.917
0.824
0.741
0.589
0.430
0.069
-0.058
-0.300
-0.207
-0.310
-0.294
-0.318
-0.258
-0.139
-0.223
-0.187
-0.156
-0.091
0.011
0.041
0.025
-0.045
-0.016
0.027
0.012
0.038
0.086
-0.016
-0.050
-0.054
0.030
0.047
0.022
0.090
0.027
0.081
0.046
0.138
-0.080
0.108
0.091
-2.547
-1.424
2.891
3.410
3.790
4.218
1.899
-2.814
-4.244
-4.458
-1.855
2.258
3.914
4.322
4.313
4.207
4.037
3.873
2.679
0.404
-0.565
-1.675
-2.780
-3.357
-3.503
-3.226
-2.423
-1.412
-0.547
0.200
0.599
1.014
1.172
1.245
1.025
0.912
0.639
0.552
0.284
0.442
0.332
0.287
0.325
0.395
0.451
0.503
0.614
0.713
0.755
0.605
0.549
0.581
0.471
0.594
0.577
0.597
0.546
0.416
0.394
0.334
0.178
0.252
0.224
0.201
0.227
0.227
-0.014
-0.037
-0.006
-0.003
-0.042
-0.011
-0.145
-0.159
-0.263
-0.271
-0.251
-0.267
-0.214
-0.326
-0.219
-0.398
-0.425
-0.642
-1.418
-1.275
-2.085
-3.469
0.883
3.084
2.346
0.511
-0.732
-1.323
-1.112
-0.602
-0.104
0.590
0.847
1.051
0.980
0.818
0.547
0.189
-0.091
-0.243
-0.435
-0.882
-1.244
-1.041
-0.783
-0.691
-0.266
0.117
-0.180
-0.300
-0.265
-0.435
-0.191
0.012
-0.107
0.337
0.394
0.513
0.285
0.201
0.251
0.189
0.356
0.292
0.187
0.283
0.147
0.088
0.144
0.140
0.071
0.114
0.218
0.032
0.140
0.189
0.084
-0.027
-0.060
-0.065
0.045
0.290
-0.053
-0.069
0.082
-0.045
-0.145
-0.036
0.229
0.247
0.067
0.098
-0.054
-0.059
0.052
0.353
0.292
0.161
0.087
0.224
0.044
0.222
0.039
-1.161
-0.762
-0.327
0.169
0.459
0.822
0.633
0.115
-0.283
-0.232
-0.132
0.073
0.352
0.374
0.569
0.618
0.460
0.298
0.172
0.013
-0.210
-0.048
-0.100
-0.231
-0.261
-0.232
-0.047
-0.007
-0.163
-0.007
0.074
0.051
0.164
0.116
0.064
-0.047
0.077
0.223
0.175
0.136
-0.050
0.026
0.066
0.142
0.147
0.014
0.023
0.048
0.210
0.019
-0.140
0.069
0.231
-0.042
0.119
0.111
0.031
-0.036
0.066
0.043
-0.010
0.104
0.016
0.021
0.001
0.155
0.034
0.023
-0.026
-0.046
0.091
0.152
0.015
-0.105
0.016
0.042
0.188
-0.092
-0.085
-0.029
0.017
0.020
-0.002
0.167
-0.043
0.053
-0.093
0.084
0.133
0.061
-0.205
0.071
0.156
0.042
0.030
0.001
-0.052
-0.013
0.034
0.086
0.024
0.035
-0.164
0.034
0.099
-0.115
0.001
0.077
-0.003
0.074
-0.008
-0.161
-0.077
0.072
0.049
0.022
0.056
-0.070
0.003
-0.040
-0.103
0.050
-0.062
0.062
-0.081
-0.089
0.067
-0.021
-0.118
-0.075
-0.067
0.026
0.079
0.104
-0.114
-0.199
0.019
0.115
0.049
0.051
-0.009
-0.055
0.010
0.040
0.018
0.101
0.021
0.093
-0.106
0.110
-0.001
0.025
0.075
-0.028
0.115
0.077
0.038
0.030
0.030
0.039
0.135
0.033
0.016
0.061
0.111
0.197
0.077
0.042
-0.035
0.193
0.007
0.074
0.007
0.015
-0.007
0.230
0.095
0.016
0.016
0.058
0.063
-0.001
-0.074
0.008
0.125
0.046
-0.088
0.053
0.026
0.109
-0.092
-0.005
-0.051
0.110
-0.012
-0.039
0.012
0.090
-0.097
-0.063
0.042
-0.034
0.056
-0.042
-0.011
-0.062
-0.005
-0.035
0.030
0.006
-0.109
-0.016
-0.012
0.028
0.045
-0.028
0.024
0.032
0.075
-0.114
0.004
0.054
-0.019
0.060
-0.041
0.078
0.060
-0.069
0.059
0.085
0.008
-0.007
0.020
-0.043
0.045
0.009
0.040
0.095
-0.032
0.014
0.151
0.048
0.128
-0.043
0.067
0.066
0.040
0.125
-0.010
0.064
0.047
-0.014
-0.065
0.038
0.018
0.093
0.056
-0.009
0.106
0.170
0.101
0.012
0.077
-0.048
-0.081
0.108
-0.032
0.064
0.037
0.035
0.007
0.056
0.009
-0.081
0.153
-0.007
0.010
0.036
0.100
0.037
-0.073
-0.001
0.089
-0.039
-0.033
0.062
-0.014
0.000
-0.055
0.083
-0.022
0.002
0.155
0.006
-0.060
0.014
0.015
0.015
-0.019
0.039
-0.077
-0.096
0.099
0.067
0.019
-0.047
-0.053
0.025
0.033
0.044
-0.007
-0.016
-0.071
0.055
-0.003
-0.018
0.094
-0.075
0.078
0.029
0.001
0.097
0.017
-0.072
0.055
0.048
-0.035
-0.014
0.030
-0.035
0.065
0.084
0.018
0.050
0.013
0.052
0.033
0.087
-0.007
-0.082
-0.029
0.083
0.111
-0.048
0.016
-0.026
0.012
0.027
-0.035
0.093
0.066
-0.023
0.033
-0.100
-0.026
0.014
-0.007
-0.010
0.167
-0.020
0.074
-0.012
0.044
0.080
0.044
0.106
-0.007
0.056
0.111
0.028
-0.087
0.025
0.014
-0.015
0.070
-0.058
0.014
0.185
0.079
-0.048
0.019
-0.036
-0.051
0.044
0.080
0.015
-0.061
-0.030
0.149
-0.102
0.076
0.019
0.104
-0.104
0.031
-0.054
0.107
0.067
0.050
0.060
-0.036
-0.007
0.006
0.045
0.062
-0.128
0.067
0.029
0.145
-0.043
0.038
-0.003
-0.063
0.119
0.051
-0.063
0.031
0.070
0.045
0.103
0.038
-0.040
0.042
-0.038
-0.038
-0.061
0.068
0.038
0.130
-0.087
-0.132
0.193
0.023
0.089
0.003
-0.021
0.071
-0.033
0.139
0.103
-0.065
0.059
0.039
0.104
0.041
-0.088
-0.079
0.117
-0.048
0.202
0.004
-0.032
-0.029
0.009
-0.030
0.102
0.023
-0.019
0.021
0.030
0.040
0.033
-0.065
0.009
0.043
0.119
0.015
-0.015
-0.009
0.020
-0.014
0.008
0.045
0.065
0.129
-0.013
0.134
0.084
-0.216
0.095
-0.004
0.153
-0.130
0.017
0.018
0.080
0.161
0.048
-0.115
0.032
0.045
0.003
0.006
0.123
0.013
-0.019
-0.000
0.068
0.025
0.082
0.082
0.004
-0.140
-0.041
-0.002
-0.024
0.046
0.136
0.000
0.022
-0.035
0.045
0.006
0.016
-0.007
0.109
-0.079
0.034
0.068
0.089
-0.060
-0.011
-0.011
0.102
0.085
-0.027
-0.058
-0.016
-0.047
0.070
0.106
0.047
-0.020
-0.015
-0.047
0.019
0.013
0.005
0.096
0.056
-0.010
-0.031
0.062
-0.078
-0.027
0.067
-0.063
0.088
0.106
-0.026
-0.019
-0.111
0.054
0.021
0.052
0.030
-0.099
-0.032
0.012
-0.002
0.033
-0.004
0.111
0.102
-0.037
0.051
0.072
0.030
-0.031
0.026
0.016
0.029
0.019
-0.036
0.040
-0.043
0.063
0.121
0.042
-0.092
-0.099
0.061
-0.092
0.067
0.110
-0.068
-0.008
-0.061
0.112
0.096
-0.010
-0.101
-0.027
0.048
0.008
0.026
0.062
-0.061
-0.027
0.076
0.095
0.103
0.009
0.057
0.010
0.038
0.016
0.080
-0.040
0.026
0.029
0.072
0.034
-0.004
-0.041
-0.044
-0.012
0.091
-0.001
0.096
0.093
0.129
-0.093
0.017
0.060
0.158
-0.039
-0.105
0.061
0.145
-0.017
0.022
0.034
-0.043
0.038
0.154
-0.036
-0.060
-0.017
0.022
0.007
-0.021
0.033
0.020
-0.040
0.080
0.020
-0.032
-0.070
-0.145
-0.065
-0.137
0.180
-0.043
-0.095
-0.172
-0.072
-0.164
-0.069
-0.048
0.079
-0.011
0.086
-0.058
0.121
0.068
0.018
0.112
0.037
-0.019
0.034
0.007
-0.074
0.045
0.051
-0.040
-0.101
0.104
-0.107
0.095
0.019
0.027
-0.061
-0.058
0.024
0.038
0.042
0.080
-0.062
-0.109
-0.037
0.016
-0.127
0.042
0.035
-0.023
0.012
0.018
-0.061
0.031
-0.067
-0.145
-0.106
-0.116
-0.230
-0.081
-0.202
-0.012
0.173
0.287
0.241
-0.035
0.018
-0.171
0.032
0.068
0.159
0.130
0.227
0.170
0.101
-0.013
0.127
0.209
0.061
-0.044
-0.058
-0.088
-0.087
0.101
0.108
0.125
-0.051
-0.021
-0.050
0.105
0.124
-0.037
-0.004
0.007
-0.029
0.159
-0.016
-0.005
-0.085
0.066
0.101
0.012
0.110
-0.028
-0.029
-0.082
0.019
0.139
0.049
0.071
0.064
0.178
0.406
0.228
0.058
0.080
0.053
0.047
0.034
0.104
0.239
0.111
0.105
0.064
0.008
0.061
0.048
-0.160
-0.132
-0.002
-0.040
-0.162
0.069
-0.143
0.068
0.014
0.061
0.013
0.010
0.084
0.052
0.142
0.036
-0.006
0.067
0.061
0.055
0.063
0.081
0.131
-0.054
0.031
0.076
0.061
0.072
0.065
0.061
-0.004
0.111
-0.114
0.084
0.075
-0.023
0.060
-0.025
0.076
-0.039
0.151
-0.032
-0.037
0.050
0.109
0.016
0.033
0.013
0.035
-0.080
0.043
-0.061
-0.006
0.067
-0.072
0.038
-0.023
0.133
-0.073
0.067
0.131
-0.063
-0.050
-0.095
-0.130
-0.013
-0.540
-0.574
-0.414
0.470
0.585
0.388
0.109
-0.126
0.011
-0.184
0.015
0.240
0.281
0.176
0.217
0.330
0.204
0.122
0.049
0.077
-0.102
-0.091
-0.089
-0.132
-0.143
-0.040
-0.054
-0.030
-0.094
-0.169
-0.030
0.109
0.042
0.108
-0.022
0.081
0.050
-0.024
-0.025
-0.072
-0.025
0.064
0.030
-0.008
0.008
0.089
0.092
0.023
0.047
0.059
0.089
0.032
0.028
0.094
0.094
0.109
0.018
0.013
0.053
0.052
0.088
0.013
0.061
0.087
0.034
0.084
0.151
-0.093
-0.042
0.085
0.072
0.108
-0.172
-0.015
0.015
-0.018
-0.022
0.117
0.011
-0.105
0.214
-0.016
-0.036
0.053
-0.031
0.078
0.031
-0.042
-0.063
0.026
0.113
0.067
0.065
0.138
-0.018
-0.118
0.081
0.148
-0.049
-0.024
-0.087
0.025
0.049
-0.081
0.090
0.079
-0.083
-0.054
0.117
-0.079
-0.064
0.117
0.077
0.004
-0.081
0.185
0.021
0.037
-0.010
0.006
-0.028
0.028
0.144
0.059
-0.139
0.086
0.168
-0.084
-0.040
0.003
0.044
0.058
0.096
0.047
-0.056
0.014
-0.091
0.090
0.018
-0.049
0.055
0.006
0.013
0.005
0.059
-0.018
0.040
-0.166
-0.186
0.018
0.151
0.188
-0.004
0.133
0.018
-0.012
-0.118
0.037
0.063
-0.065
0.054
0.140
0.023
0.156
0.017
0.024
-0.037
0.062
0.105
0.018
-0.076
-0.098
0.100
0.025
-0.012
0.013
-0.044
0.118
0.002
-0.033
-1.395
-3.556
-1.606
-1.042
-0.834
3.155
4.252
2.178
-0.602
-1.886
-1.997
-0.939
0.329
1.646
2.462
2.771
2.869
2.420
1.825
1.108
0.323
-0.334
-0.850
-1.217
-1.314
-1.193
-1.057
-1.001
-0.866
-0.569
-0.299
-0.200
-0.030
0.149
-0.003
0.223
0.089
0.120
0.275
0.127
0.117
0.157
0.088
0.136
0.192
0.151
0.049
-0.254
0.150
0.268
0.481
0.593
0.481
0.474
0.236
0.201
0.391
0.311
0.328
0.379
0.362
0.496
0.389
0.313
0.236
0.275
0.042
-0.007
0.071
-0.388
0.069
0.290
0.357
0.158
-0.010
-0.193
-0.507
-0.359
0.166
0.428
0.146
0.041
-0.989
-2.832
-3.371
2.186
3.530
3.452
1.490
-0.472
-2.091
-2.633
-1.840
-0.766
0.577
2.055
2.843
3.045
2.965
2.371
1.572
0.811
0.129
-0.513
-1.252
-1.802
-1.646
-1.462
-1.236
-0.977
-0.779
-0.555
-0.450
0.038
0.241
0.403
0.818
0.739
0.623
0.522
0.557
0.556
0.494
0.567
0.545
0.720
0.574
0.592
0.507
0.659
0.432
0.285
0.290
0.288
0.417
0.314
0.463
0.249
0.235
0.264
-1.890
-3.476
-0.131
3.529
-1.163
-3.190
-3.740
-3.798
-3.700
-3.589
-3.429
-3.326
-3.184
-2.331
-0.226
2.908
5.019
5.490
5.402
5.158
4.852
4.533
4.226
3.921
3.623
3.351
3.099
2.810
1.797
-0.038
-1.708
-3.360
-4.333
-5.254
-5.446
-5.432
-5.097
-4.518
-3.888
-2.897
-2.220
-1.732
-1.094
-0.791
-0.455
-0.298
-0.090
-0.005
0.047
-0.041
-0.055
0.091
0.191
0.135
0.238
0.244
0.303
0.364
0.441
0.415
0.427
0.595
0.527
0.542
0.465
0.411
0.491
0.360
0.267
0.368
0.276
0.085
0.169
0.105
0.085
-0.139
-0.206
-0.081
-0.100
-0.253
-0.336
-0.403
-0.360
-0.393
-0.373
-0.515
-0.683
-0.387
-0.695
-0.723
-0.557
-0.544
-0.642
-0.677
-0.692
-0.608
-0.480
-0.733
-0.723
-0.520
-0.677
-0.575
-0.541
-0.494
-0.483
-0.331
-0.385
-0.293
-0.233
-0.343
-0.344
-0.233
-0.190
-0.078
-0.031
-0.114
0.008
0.076
-0.056
0.184
-0.003
-0.070
0.160
0.162
0.221
0.100
0.257
0.193
0.148
0.205
0.139
0.288
0.135
0.207
0.112
0.191
0.188
0.221
0.176
0.185
0.069
0.133
-0.065
0.082
0.058
0.067
0.084
0.093
-0.078
-0.089
-0.048
-0.108
-0.032
-0.078
-0.049
-0.056
-0.186
-0.245
-0.092
-0.207
-0.190
-0.063
-0.051
-0.118
-0.195
-0.116
-0.123
-0.223
-0.062
-0.252
-0.118
-0.115
-0.028
-0.112
-0.063
-0.106
0.068
-0.145
-0.029
0.024
-0.124
0.006
0.034
0.053
0.042
0.082
0.046
0.122
0.017
0.073
0.203
0.146
0.119
0.002
0.021
0.157
0.218
0.072
0.045
0.045
0.031
0.158
0.068
0.004
0.161
0.162
0.026
-0.042
-0.003
0.109
-0.013
-0.157
0.057
-0.029
-0.011
-0.042
-0.067
-0.082
-0.002
-0.040
-0.018
-0.058
-0.136
-0.068
-0.131
-0.068
-0.034
0.025
-0.050
-0.100
-0.077
-0.156
-0.221
-0.036
-0.199
0.033
-0.160
-0.129
-0.010
-0.021
-0.117
-0.190
-0.116
0.112
-0.018
0.048
-0.018
-0.038
0.046
-0.039
-0.049
0.078
0.085
0.060
0.047
-0.001
-0.052
-0.029
0.201
0.097
0.217
0.050
0.094
0.110
0.010
0.016
0.043
0.126
0.077
0.129
0.064
0.055
0.104
0.132
0.059
-0.004
0.030
0.118
0.006
0.151
0.123
0.064
-0.016
0.043
0.004
0.011
0.026
0.068
-0.009
-0.039
-0.078
0.107
-0.018
-0.024
0.068
-0.069
0.030
0.055
-0.098
-0.131
-0.024
0.004
-0.039
-0.004
-0.043
-0.154
0.071
-0.137
-0.020
-0.142
0.007
0.023
-0.195
-0.021
-0.095
-0.019
0.023
-0.055
-0.027
-0.085
0.073
0.021
-0.038
-0.021
0.032
0.015
-0.067
-0.013
0.034
-0.027
-0.033
-0.035
-0.010
0.061
0.064
0.067
0.095
0.034
-0.014
-0.012
0.122
0.108
-0.029
-0.015
0.045
0.089
0.151
0.197
-0.057
-0.013
0.148
-0.043
0.089
0.033
0.003
0.007
-0.001
0.055
0.073
-0.116
-0.129
0.099
0.004
-0.087
0.083
0.115
0.063
-0.082
-0.009
-0.009
-0.068
0.115
0.060
-0.073
-0.022
-0.042
0.067
0.081
-0.102
0.013
-0.009
-0.115
0.058
0.049
-0.026
0.045
-0.012
-0.047
0.113
-0.021
-0.021
0.082
0.011
-0.068
0.073
0.018
-0.015
-0.009
0.061
-0.029
0.002
0.053
-0.013
0.170
-0.015
-0.084
0.040
0.078
0.115
-0.082
-0.057
0.068
0.085
-0.039
-0.038
0.002
-0.091
-0.010
0.004
0.061
0.051
-0.015
-0.026
-0.021
0.122
0.013
-0.062
0.015
-0.039
0.076
-0.068
-0.083
0.131
0.167
0.013
-0.000
0.018
-0.107
-0.005
0.065
0.134
-0.008
-0.007
0.045
0.074
-0.027
-0.011
0.059
-0.038
0.017
-0.110
0.049
0.041
0.078
0.011
-0.031
-0.038
0.048
-0.066
-0.018
0.060
-0.078
0.095
0.097
-0.105
-0.088
0.043
0.044
0.043
-0.058
0.057
-0.018
0.092
0.040
-0.018
-0.028
0.100
0.007
-0.037
0.030
0.029
0.027
0.064
-0.019
-0.011
0.063
0.084
-0.085
0.032
0.001
-0.052
-0.033
0.082
0.018
-0.032
0.148
-0.072
0.035
-0.028
-0.153
0.020
0.114
0.061
-0.008
0.011
-0.044
0.122
-0.042
-0.021
-0.121
-0.025
0.017
-0.022
0.173
-0.055
0.155
0.063
-0.112
-0.030
0.025
0.053
-0.029
0.075
0.054
0.184
0.010
-0.030
-0.004
0.098
-0.050
0.116
0.015
0.008
0.079
-0.015
-0.116
0.100
0.079
-0.029
-0.040
0.018
0.054
-0.051
0.058
-0.028
0.014
-0.030
0.014
0.069
0.102
0.173
0.013
0.079
-0.041
-0.011
0.003
-0.101
0.228
0.053
-0.056
0.065
0.012
0.041
0.035
-0.019
-0.040
0.057
0.056
0.069
-0.027
-0.071
0.006
0.085
0.069
-0.032
-0.065
0.007
0.087
0.064
0.082
-0.003
-0.064
0.027
0.127
-0.012
0.050
-0.030
-0.080
-0.081
0.161
0.018
0.018
0.017
0.046
-0.052
0.077
0.161
0.072
-0.116
0.083
0.060
0.010
-0.095
-0.005
0.078
0.062
-0.103
0.138
0.002
-0.013
-0.110
0.034
0.163
-0.054
-0.051
-0.002
-0.253
-0.104
0.076
0.035
0.000
-0.028
-0.394
-1.333
-0.267
0.075
-0.114
-0.865
-0.677
-0.169
-1.118
-0.386
0.525
0.104
-0.023
0.395
0.625
0.617
0.681
0.578
0.525
0.554
0.500
0.622
0.547
0.537
0.404
0.349
0.042
-0.047
-0.331
-0.343
-0.454
-0.496
-0.366
-0.390
-0.416
-0.407
-0.150
-0.279
-0.261
0.020
-0.209
-0.070
0.029
0.010
-0.026
-0.068
0.071
-0.029
0.153
0.167
0.095
0.148
0.081
0.156
-0.030
0.085
0.144
0.114
0.263
0.031
0.139
0.248
0.155
0.069
0.053
0.162
0.120
0.138
0.101
0.133
0.074
0.165
0.141
0.051
0.208
0.138
0.036
0.130
0.162
0.173
-0.079
0.080
0.039
0.084
0.196
0.049
0.064
0.008
0.032
-0.070
0.017
0.150
0.114
-0.209
-0.008
-0.048
0.048
-0.014
0.098
-0.053
-0.018
0.092
-0.034
-0.150
-0.174
-0.047
-0.086
0.030
0.015
-0.151
-0.082
-0.067
-0.012
-0.002
-0.020
0.032
-0.053
-0.076
0.018
-0.025
-0.017
-0.090
0.022
0.129
0.103
-0.006
-0.033
-0.013
0.025
-0.087
0.080
-0.024
0.046
0.063
0.011
-0.013
0.052
-0.048
0.054
0.068
0.036
0.142
0.005
-0.008
0.065
0.131
-0.011
-0.023
0.187
0.112
-0.038
0.095
-0.037
0.123
0.085
0.128
-0.008
-0.029
0.040
-0.070
0.081
-0.017
0.066
0.059
0.001
0.083
0.052
0.063
-0.052
0.058
-0.011
0.021
0.066
0.032
0.095
-0.005
0.000
-0.071
-0.025
0.076
0.082
0.046
0.153
0.072
-0.003
-0.042
0.131
0.036
0.170
0.133
0.183
0.347
0.187
0.260
0.161
0.116
0.068
0.127
0.202
-0.008
0.027
0.137
0.075
0.053
-0.173
0.103
-0.224
-0.041
-0.080
0.125
-0.080
0.075
0.091
-0.031
0.051
0.077
0.069
-0.023
0.117
-0.007
0.006
0.152
0.082
-0.097
0.046
0.044
-0.003
0.098
0.050
0.025
0.125
0.028
0.051
0.022
-0.009
-0.046
0.111
0.068
0.048
0.039
-0.043
-0.055
0.134
-0.030
-0.058
0.093
-0.054
0.052
0.039
-0.088
0.005
0.048
-0.015
-0.113
0.101
0.109
0.019
-0.015
-0.080
-0.032
-0.066
0.155
-0.020
0.046
-0.050
-0.002
0.061
0.027
0.030
0.108
0.016
-0.023
0.032
0.094
0.016
0.017
-0.073
0.081
0.018
-0.061
-0.005
-0.050
0.147
0.000
-0.064
0.086
-0.014
-0.016
-0.000
-0.038
0.113
0.061
0.014
-0.036
-0.000
-0.033
-0.079
0.147
0.150
0.065
0.060
0.029
-0.160
0.111
-0.064
-0.019
0.015
0.113
-0.008
-0.066
0.063
-0.002
0.114
-0.038
0.035
0.009
-0.081
0.035
0.022
-0.044
-0.112
0.090
0.010
-0.088
0.056
-0.061
-0.074
0.004
0.145
0.099
-0.083
-0.058
0.053
0.111
0.048
-0.042
-0.006
-0.009
0.099
0.005
0.006
0.070
-0.019
0.028
-0.014
0.053
0.103
-0.110
-0.026
-0.027
0.101
0.015
-0.041
0.014
0.013
0.078
-0.050
0.055
0.113
-0.060
-0.049
-0.037
0.028
0.196
0.076
-0.075
0.029
0.110
0.001
-0.007
-0.110
0.060
0.041
-0.013
0.060
0.055
0.037
-0.130
0.051
0.095
0.129
0.000
-0.030
0.010
-0.066
0.007
0.010
-0.087
0.020
-0.028
0.025
-0.001
-0.032
-0.008
-0.006
0.115
0.082
0.029
-0.011
0.069
-0.000
0.003
-0.074
0.185
0.073
-0.054
0.010
0.211
0.141
-0.037
0.025
-0.033
0.022
0.047
0.092
-0.007
0.014
0.035
-0.023
-0.016
-0.023
-0.065
0.034
0.029
0.061
0.096
0.056
-0.108
-0.074
-0.057
0.161
-1.616
-3.601
-3.948
-4.016
-4.003
0.714
3.901
4.470
-0.668
-3.010
-3.020
-1.904
0.056
2.323
4.182
4.685
4.644
4.465
4.251
3.977
2.886
1.237
-0.131
-1.430
-2.217
-2.596
-2.717
-2.757
-2.414
-1.930
-1.409
-0.940
-0.683
-0.361
-0.244
-0.010
0.218
0.126
-0.029
0.036
-0.158
-0.052
-0.066
0.006
0.026
0.114
0.056
0.185
0.221
0.121
0.367
0.295
0.490
0.239
0.439
0.517
0.481
0.461
0.467
0.414
0.409
0.479
0.427
0.340
0.376
0.390
0.021
-2.836
1.556
3.945
4.522
4.564
-0.257
-3.415
-4.291
-3.944
-1.017
2.366
3.985
4.368
4.344
4.188
3.995
3.585
1.937
0.027
-1.233
-2.228
-2.981
-2.861
-2.862
-2.707
-2.898
-3.522
-3.078
-2.605
-1.185
-0.447
1.432
0.825
0.113
-0.157
-0.137
-0.117
-0.719
-0.268
0.641
1.109
1.565
1.896
1.410
-0.066
0.808
1.804
1.630
0.990
0.132
-1.605
-2.279
-0.390
1.459
1.081
1.042
0.427
-0.423
-0.555
-1.508
-3.430
-4.131
-3.871
-1.136
3.097
2.971
0.859
1.518
1.633
-1.158
-3.726
-4.458
-4.568
-3.129
-2.830
-3.862
-4.102
-1.196
3.145
4.382
4.454
-1.169
-3.653
-4.369
-3.209
1.616
3.653
4.139
4.115
3.945
3.715
3.516
3.233
1.280
-1.280
-3.762
-5.239
-5.711
-5.668
-5.247
-4.468
-3.458
-2.268
-1.258
-0.345
0.240
0.381
0.575
0.659
0.643
0.484
0.207
0.178
-0.157
-0.165
-0.163
-0.046
-0.235
-0.047
0.044
0.060
0.297
0.146
0.271
0.280
0.277
0.258
0.238
0.247
0.254
0.263
0.196
0.028
0.059
0.245
0.099
-0.017
-0.075
0.099
0.119
0.061
-0.038
-0.075
-0.135
-0.156
-0.148
-0.193
-0.157
-0.221
-0.273
-0.073
-0.188
-0.225
-0.251
-0.260
-0.283
-0.198
-0.097
-0.243
-0.287
-0.202
-0.096
-0.185
-0.156
-0.273
-0.313
-0.056
-0.083
-0.228
-0.088
-0.369
-0.089
-0.083
-0.051
0.006
-0.021
0.039
-0.085
0.056
-0.037
-0.059
0.085
-0.055
0.053
0.063
0.071
0.200
0.013
-0.020
0.109
-0.006
-0.017
0.047
0.115
0.029
-0.019
0.077
0.075
0.050
0.015
0.027
0.052
-0.054
0.085
-0.023
-0.006
0.007
-0.020
-0.029
-0.080
-0.033
0.084
-0.080
-0.017
-0.107
-0.055
-0.076
0.035
-0.011
-0.011
0.008
-0.049
-0.064
-0.107
-0.185
-0.035
-0.018
-0.022
-0.131
-0.088
0.087
-0.039
-0.065
0.110
0.054
-0.100
0.027
-0.056
0.016
0.041
-0.105
0.018
0.131
-0.033
-0.005
0.115
0.090
0.017
0.076
0.016
0.077
0.064
0.139
0.195
0.113
-0.007
0.039
0.059
0.150
0.108
0.094
-0.025
0.129
0.053
0.040
-0.005
0.068
0.064
0.065
-0.073
-0.086
-0.012
0.190
0.107
-0.114
-0.083
0.073
0.061
-0.072
-0.065
-0.090
0.027
-0.064
-0.013
-0.046
-0.037
0.035
-0.115
0.056
-0.040
-0.010
-0.121
-0.148
0.009
-0.025
-0.148
-0.060
0.007
0.151
-0.098
0.059
-0.103
-0.062
0.014
-0.025
-0.022
0.113
-0.056
-0.112
0.075
-0.118
0.005
-0.006
-0.003
0.018
-0.042
0.066
0.009
-0.029
0.105
0.037
0.032
0.023
0.154
0.097
0.038
0.070
0.112
0.090
-0.024
0.102
0.086
0.055
0.066
0.043
0.002
0.132
0.069
0.036
0.055
0.080
0.072
0.156
0.054
-0.088
0.046
0.086
0.013
0.116
0.045
0.027
-0.037
0.065
0.105
-0.037
-0.056
-0.042
0.054
-0.064
-0.039
-0.067
0.096
-0.098
0.091
0.001
-0.088
-0.072
-0.007
0.026
-0.093
0.000
0.056
0.106
-0.059
-0.073
0.095
-0.037
-0.007
0.040
-0.024
-0.011
-0.044
-0.172
-0.022
0.030
0.048
0.025
-0.035
-0.127
0.154
0.064
0.120
-0.042
-0.060
0.027
0.105
-0.087
0.140
0.046
0.052
-0.013
0.181
-0.041
-0.039
0.003
-0.020
-0.072
0.082
0.054
0.030
0.053
-0.006
0.001
0.084
0.049
0.012
-0.032
0.162
-0.019
-0.066
0.059
-0.010
0.063
0.086
0.061
-0.014
0.006
0.059
-0.056
-0.058
0.054
0.057
0.010
-0.013
-0.024
-0.051
0.070
-0.039
0.030
0.007
0.001
-0.070
0.058
-0.066
0.108
-0.080
0.006
0.108
-0.029
-0.062
0.034
0.042
0.104
-0.103
-0.034
0.174
-0.075
0.034
-0.102
-0.086
0.100
0.037
-0.074
-0.152
0.030
-0.016
0.128
0.006
-0.011
0.034
-0.088
-0.034
0.073
-0.030
0.022
0.064
-0.008
-0.039
0.048
-0.061
-0.030
0.089
0.079
-0.121
0.019
0.023
0.090
0.082
-0.044
0.009
0.018
0.007
-0.005
0.012
0.093
-0.088
0.033
0.052
-0.016
-0.003
-0.043
0.041
0.103
0.060
-0.074
0.020
0.009
0.075
-0.005
0.040
0.009
-0.052
-0.018
0.048
0.055
0.021
0.011
0.047
-0.055
0.024
0.055
-0.020
0.005
0.079
0.105
-0.106
-0.013
0.165
0.102
0.015
0.017
0.062
-0.116
0.060
0.096
-0.061
0.049
0.098
0.090
0.038
0.040
-0.007
-0.049
0.070
0.058
0.013
0.012
0.037
-0.044
-0.030
0.115
0.105
-0.091
-0.088
0.023
0.089
0.010
0.032
-0.082
0.015
0.135
-0.013
0.098
-0.002
-0.143
0.025
0.093
-0.124
0.051
0.095
0.046
0.042
0.004
-0.112
-0.037
-0.049
0.078
0.158
0.006
-0.131
-0.071
0.186
-0.015
0.062
0.044
-0.011
-0.009
-0.042
0.074
0.010
-0.069
0.017
0.085
0.015
-0.086
0.087
-0.012
-0.030
-0.039
0.073
-0.051
0.069
-0.015
0.077
0.085
0.098
-0.081
-0.021
0.026
0.103
0.089
-0.066
0.042
0.083
0.066
-0.032
-0.022
0.036
0.060
0.015
0.015
-0.063
0.073
-0.087
-0.047
0.042
0.029
0.055
0.048
0.110
0.030
0.014
0.024
0.025
0.066
-0.078
0.121
-0.027
-0.044
0.021
0.024
0.025
0.036
-0.100
-0.107
-0.011
0.052
0.054
0.131
-0.008
-0.032
0.037
-0.082
-0.000
0.094
0.108
0.020
0.041
0.007
0.056
0.020
-0.022
-0.042
0.085
-0.102
0.248
0.132
-0.178
0.036
0.140
0.073
-0.087
-0.087
0.112
-0.015
0.077
0.096
0.111
-0.116
-0.016
0.006
0.063
-0.071
-0.100
-0.034
0.074
0.058
0.034
0.054
0.091
-0.079
-0.107
-0.025
0.108
0.023
-0.083
0.073
-0.004
0.108
0.012
-0.119
-0.123
-0.019
-0.004
0.092
0.073
0.052
0.109
-0.010
0.044
-0.076
-0.002
0.038
0.043
-0.001
0.071
0.089
0.005
-0.044
-0.119
0.014
0.026
0.111
-0.903
-3.383
-4.081
-4.178
-1.963
-0.654
-2.689
-3.454
-3.597
-3.265
2.027
4.450
4.695
3.714
4.159
4.587
4.531
4.335
4.106
3.856
3.625
3.398
3.195
2.992
2.794
1.891
-0.722
-3.128
-4.613
-5.435
-5.331
-4.837
-3.706
-2.564
-1.356
-0.483
0.355
1.062
1.211
1.336
1.265
0.954
0.742
0.758
0.607
0.342
0.332
0.311
0.479
0.586
0.659
0.452
0.562
0.672
0.648
0.528
1.112
1.794
2.080
1.721
1.192
0.544
0.097
0.448
0.666
1.244
1.705
1.299
1.048
0.776
0.720
0.436
0.380
0.370
0.298
0.231
0.295
0.350
0.194
0.170
0.232
0.313
0.166
0.023
0.044
-0.028
-0.157
-0.181
-0.139
-0.128
0.020
-0.130
-0.075
-0.126
-0.195
-0.237
-0.218
-0.147
-0.229
-0.290
-0.349
-0.205
-0.365
-0.396
-0.485
-0.444
-0.361
-0.228
-0.194
-0.271
-0.216
-0.110
-0.218
-0.226
-0.083
-0.137
0.028
-0.019
-0.131
-0.049
0.042
-0.050
0.055
0.100
0.056
0.085
0.121
0.194
0.105
0.100
0.164
0.278
0.213
0.239
0.430
0.162
-0.059
0.100
0.463
0.797
0.642
0.404
0.224
0.175
-0.673
-0.467
-0.131
0.363
0.246
0.430
0.799
0.477
0.102
-0.103
-0.181
-0.145
0.253
0.445
0.311
0.149
0.071
0.291
0.042
0.055
-0.030
-0.095
-0.110
-0.219
-0.344
-0.135
-0.170
-0.326
-0.019
-0.158
-0.140
0.025
0.150
0.222
0.261
-0.011
0.205
0.112
0.115
-0.023
0.084
0.166
0.197
0.243
0.255
0.179
0.168
0.168
0.120
-0.041
0.150
0.049
0.166
0.262
0.130
0.128
0.139
-0.405
-0.363
-0.133
0.109
0.309
0.435
0.185
-0.055
-0.052
0.051
0.152
0.062
-0.056
-0.050
-0.061
-0.071
-0.401
-0.240
0.120
-0.184
-0.417
-0.626
-0.580
-0.209
-0.310
-0.195
-0.333
-0.412
-0.215
-0.130
0.116
0.247
0.069
-0.382
-0.236
0.232
0.549
0.458
0.356
0.485
0.666
0.603
0.601
0.360
0.291
0.271
0.299
0.418
0.439
0.354
0.378
0.383
0.102
0.139
0.013
-0.081
-0.058
-0.148
-0.049
-0.050
-0.096
-0.058
0.115
0.143
0.298
0.211
0.216
0.245
0.334
0.182
0.249
0.264
0.349
0.311
0.235
0.311
0.288
0.223
0.144
0.225
0.225
0.295
0.274
0.168
0.117
0.103
0.046
0.162
0.193
0.052
0.092
-0.026
0.018
-0.047
-0.051
0.007
0.011
0.015
0.014
-0.117
-0.164
-0.159
-0.210
-0.200
0.010
-0.158
-0.250
-0.097
-0.189
-0.208
-0.261
-0.139
-0.230
-0.147
-0.142
-0.043
-0.147
-0.259
-0.223
-0.183
-0.126
-0.169
0.043
-0.121
-0.118
-0.164
-0.193
-0.142
-0.098
-0.024
-0.054
-0.137
0.073
0.011
-0.065
-0.086
-0.095
-0.044
0.079
0.059
0.053
-0.104
-0.063
0.052
-0.004
0.038
0.164
0.110
-0.145
0.045
0.087
0.071
0.156
0.084
0.013
0.057
0.067
0.022
0.110
0.033
0.012
0.119
0.075
0.083
-0.026
0.024
0.080
0.133
-0.022
-0.076
-0.015
-0.048
0.231
-0.039
-0.015
0.040
-0.091
0.020
0.091
0.157
-0.092
0.012
0.073
-0.026
0.157
-0.048
-0.141
0.063
0.016
-0.090
0.015
-0.039
0.143
-0.082
-0.097
0.054
-0.091
0.128
0.047
-0.090
-0.059
0.091
0.004
-0.066
-0.061
0.106
0.027
0.013
-0.087
-0.925
-0.403
0.193
0.225
0.254
0.009
-0.262
-0.430
-0.170
0.277
0.250
0.172
0.057
0.125
-0.029
0.097
0.071
-0.044
0.023
-0.097
-0.340
-1.008
-2.632
-2.081
0.663
2.141
1.731
0.482
-0.315
-0.673
-0.721
-0.193
0.102
0.638
0.686
0.862
0.802
0.728
0.501
0.225
0.071
-0.140
-0.390
-0.367
-0.258
-0.435
-0.400
-0.365
-0.209
-0.298
-0.183
-0.089
-0.052
0.019
-0.021
-0.002
0.101
0.053
0.004
-0.007
0.062
0.075
0.101
0.107
0.136
0.055
0.060
0.111
0.035
0.064
0.150
0.136
0.139
-0.021
0.120
0.100
0.034
0.193
0.109
0.054
0.039
0.070
0.213
-0.500
-0.210
0.339
0.359
0.229
0.145
-0.049
-0.117
-0.072
0.028
0.015
0.133
0.155
0.098
-0.115
-2.090
-3.765
-4.189
-0.226
3.373
4.371
0.195
-2.091
2.578
3.184
0.085
-1.446
0.466
3.138
3.895
4.015
3.908
3.760
3.590
3.417
3.286
2.399
-0.076
-2.573
-4.383
-5.104
-5.225
-4.861
-4.224
-3.099
-1.983
-1.035
-0.206
0.586
1.028
1.262
1.392
1.204
1.187
0.979
0.775
0.657
0.663
0.621
0.100
-2.375
-3.154
-3.309
-3.212
1.832
4.766
2.022
2.708
-0.229
-2.497
-0.694
2.298
3.120
4.156
4.811
4.849
4.640
4.384
4.122
3.851
3.612
3.311
1.813
-0.385
-2.364
-3.741
-4.467
-4.688
-4.452
-3.875
-3.062
-2.289
-1.493
-0.860
-0.382
0.030
0.170
0.185
0.136
0.155
0.151
0.063
0.085
-0.179
-0.115
-0.016
0.008
0.080
0.201
0.257
0.403
0.455
0.420
0.418
0.429
0.526
0.496
0.683
0.590
0.591
0.404
0.525
0.511
0.533
0.444
0.457
0.412
0.309
0.251
0.328
0.250
0.366
0.096
0.067
0.163
0.010
0.140
0.032
-0.050
-0.126
-0.100
-0.110
-0.245
-0.189
-0.182
-0.303
-0.354
-0.242
-0.323
-0.405
-0.292
-0.302
-0.408
-0.344
-0.364
-0.333
-0.394
-0.474
-0.429
-0.448
-0.441
-0.299
-0.260
-0.197
-0.310
-0.328
-0.418
-0.362
-0.326
-0.032
-0.008
-0.113
0.169
0.123
0.110
0.136
0.143
0.103
0.226
0.108
0.246
0.369
0.256
0.122
0.127
-0.027
-0.041
0.081
-0.031
-0.427
-1.128
-1.067
-0.257
0.890
0.897
-0.066
0.212
-0.050
-0.613
-0.332
0.133
0.357
0.284
0.327
0.229
0.472
0.304
0.308
0.206
0.278
0.291
0.104
0.025
-0.190
-0.190
-0.144
0.082
-0.039
0.019
-0.019
-0.122
-0.127
-0.250
-0.114
-0.225
-0.291
-0.216
-0.229
-0.181
-0.280
-0.209
-0.301
-0.192
-0.135
0.048
0.085
-0.099
0.031
0.024
0.015
0.128
0.145
0.141
0.123
0.034
-0.030
0.178
0.231
0.132
0.229
0.093
0.238
0.094
0.166
0.124
0.159
-0.034
-0.771
-0.502
-0.028
0.521
0.966
0.580
0.123
0.062
-0.023
-1.105
-2.252
-1.483
0.702
2.496
2.134
0.982
0.199
-0.453
-0.342
-0.194
0.113
0.190
0.440
0.539
0.218
-0.228
-0.409
-0.294
-0.418
-0.063
0.128
0.200
-0.065
-0.586
-0.593
-0.558
-0.319
-0.020
0.045
0.226
0.271
0.263
0.215
0.152
0.071
0.072
-0.075
-0.061
-0.202
-0.259
-0.173
-0.107
0.083
-0.003
0.103
0.003
0.123
0.134
0.165
0.054
0.276
0.225
0.127
0.105
0.062
0.127
0.147
0.183
0.162
0.110
0.245
0.092
0.136
0.127
0.231
0.146
0.137
0.130
0.089
0.119
0.026
0.139
0.016
-0.061
0.022
0.079
-0.420
-0.255
0.048
0.031
-0.019
-0.288
-0.551
-0.900
-0.693
-0.496
-0.254
-0.191
-0.057
-0.218
-0.488
-0.351
0.211
0.348
-0.013
0.157
0.098
0.114
-0.107
-0.208
0.582
0.747
0.519
0.129
0.249
0.501
0.340
0.142
-0.060
-0.033
-0.026
-0.111
-0.110
0.062
0.067
0.066
-0.014
0.014
-0.121
-0.350
-0.286
-0.270
-0.247
-0.333
-0.307
-0.160
-0.014
-0.076
-0.052
0.097
0.102
-0.046
0.057
0.134
0.064
-0.072
0.055
0.105
0.141
0.093
0.140
0.176
0.067
0.182
0.338
0.186
0.213
0.274
0.222
0.233
0.135
0.161
0.289
0.123
0.175
0.200
0.245
0.112
0.119
0.171
0.257
0.195
0.020
-0.020
0.047
0.137
0.241
0.048
0.022
0.047
-0.025
0.005
0.046
0.084
-0.103
-0.084
0.123
0.030
-0.158
-0.073
-0.055
-0.007
0.034
0.014
-0.033
-0.035
0.013
-0.167
-0.143
-0.103
-0.040
-0.104
0.002
-0.006
-0.108
-0.163
-0.077
-0.173
0.074
-0.059
-0.058
-0.001
-0.175
-0.039
-0.047
0.003
-0.083
-0.034
0.016
-0.122
0.062
0.028
-0.059
0.029
-0.020
0.014
0.040
-0.035
0.096
0.049
0.015
-0.061
-0.062
-0.053
0.167
-0.018
-0.011
-0.033
0.034
0.011
0.043
-0.050
0.096
-0.054
0.132
-0.049
-0.113
0.010
0.123
-0.110
0.015
-0.011
-0.032
0.020
0.064
0.041
0.032
-0.092
-0.055
0.000
-0.028
0.083
0.052
0.057
0.042
-0.027
-0.060
0.142
-0.007
0.068
0.032
-0.046
0.052
0.076
-0.000
-0.100
0.046
0.046
-0.006
0.073
-0.024
-0.035
0.151
0.132
-0.007
-0.003
-0.048
0.071
-0.034
0.105
0.035
0.009
0.016
0.002
0.037
0.084
-0.036
0.020
-0.001
0.003
0.116
0.019
0.078
0.008
-0.111
0.023
0.038
-0.111
0.040
0.052
-0.038
-0.050
-0.018
-0.046
-0.042
0.052
-0.087
-0.013
-0.028
0.044
0.042
-0.057
-0.091
-0.036
0.018
-0.019
-0.124
-0.035
-0.127
-0.093
0.012
-0.119
0.063
-0.007
-0.017
0.042
-0.001
-0.089
-0.021
0.156
-0.025
0.059
-0.083
-0.064
-0.049
-0.027
0.092
0.056
0.054
-0.099
-0.035
-0.019
-0.050
0.069
0.133
-0.063
0.080
0.124
-0.146
0.075
0.032
0.071
0.034
0.049
-0.039
0.010
0.039
0.056
0.035
-0.066
0.101
0.018
0.014
0.063
0.044
0.170
0.045
0.100
0.083
0.012
-0.014
-0.034
0.033
0.005
-0.065
0.070
-0.130
-0.050
0.119
0.036
0.045
-0.021
-0.104
0.080
0.039
-0.063
0.039
0.018
-0.113
0.077
0.027
-0.077
-0.042
0.036
0.079
0.083
-0.105
-0.060
0.030
0.113
0.009
-0.014
-0.104
-0.032
0.027
0.082
0.017
-0.036
-0.010
0.086
-0.015
-0.059
-0.093
-0.063
0.061
0.058
0.138
-0.000
0.105
0.119
-0.018
-0.006
0.055
0.075
0.017
0.084
-0.041
0.181
-0.014
-0.016
-0.048
-0.064
-0.017
0.135
-0.109
-0.010
0.185
-0.064
0.003
-0.103
0.024
-0.065
0.109
-0.074
0.125
0.154
-0.054
0.037
0.025
0.076
0.047
-0.017
0.065
0.063
0.035
0.003
0.004
-0.088
-0.616
-0.286
-0.024
0.076
0.089
-0.062
-0.090
-0.198
-0.298
-0.476
-0.653
-0.380
-0.116
-0.048
0.032
-0.138
-0.162
-0.266
-0.262
-0.222
-0.290
-0.167
-0.101
-0.090
0.010
0.243
0.019
0.085
0.146
0.072
0.079
-0.054
0.004
0.103
0.205
0.205
-0.064
-0.167
0.021
-0.096
-0.007
-0.165
-0.043
-0.239
-0.195
-0.194
-0.085
-0.141
-0.205
-0.263
-0.056
-0.105
-0.266
0.000
-0.101
-0.134
-0.172
-0.214
-0.167
-0.097
0.041
-0.067
-0.119
-0.031
-0.306
0.098
0.106
-0.055
0.103
0.004
0.126
0.094
0.150
-0.006
-0.009
0.156
0.210
0.133
0.112
0.030
0.230
0.106
0.113
0.081
-0.005
0.022
0.101
0.101
0.092
0.202
0.241
0.317
0.176
0.107
0.093
0.137
0.050
0.130
0.166
0.110
0.173
0.168
0.108
0.142
0.097
-0.013
0.065
-0.124
-0.030
0.062
0.115
-0.007
0.015
0.072
-0.094
0.013
-0.066
0.073
0.139
-0.008
0.003
0.050
-0.043
-0.022
0.052
-0.140
-0.002
0.159
0.004
0.016
-0.107
-0.104
-0.023
0.006
0.034
-0.013
0.053
-0.012
-0.001
-0.119
0.043
0.197
0.079
-0.078
0.058
0.176
-0.452
-0.618
-0.343
0.291
0.701
0.757
0.896
0.633
0.033
-0.252
0.211
0.538
0.672
0.763
0.590
0.636
0.283
0.288
0.233
0.212
0.090
-0.026
-0.267
-0.151
-0.313
-0.305
-0.067
-0.218
-0.165
-0.198
-0.065
-0.112
-0.095
0.097
-0.004
0.027
-0.003
0.143
0.052
0.183
0.184
0.149
0.232
0.116
0.055
-2.300
-3.580
-3.927
-3.897
0.217
3.850
4.861
3.112
-1.898
-3.460
-3.840
-3.775
-0.147
3.708
4.770
4.938
4.807
4.604
4.359
4.120
3.889
3.376
1.825
0.159
-1.027
-0.618
-1.906
-2.786
-2.663
-1.558
-1.138
-0.896
0.128
0.974
1.068
1.915
2.119
1.568
0.771
0.285
0.055
-0.410
-0.439
-0.342
0.104
0.447
0.955
3.248
2.888
1.587
0.656
0.269
0.396
0.744
1.321
1.802
1.786
1.697
1.443
1.328
0.804
0.531
0.235
0.217
0.135
0.208
0.447
0.417
0.558
0.721
0.891
1.002
0.989
1.001
1.117
1.141
1.078
1.077
0.980
0.852
0.964
0.826
0.696
0.730
0.695
0.453
0.576
0.475
0.385
0.371
0.199
0.321
0.235
0.016
0.126
0.008
-0.132
-0.142
-0.123
-0.172
-0.184
-0.411
-0.419
-0.522
-0.467
-0.358
-0.544
-0.434
-0.571
-0.498
-0.627
-0.592
-0.367
-0.589
-0.608
-0.653
-0.340
-0.451
-0.506
-0.545
-0.467
-0.438
-0.380
-0.503
-0.584
-0.306
-0.249
-0.294
-0.319
-0.227
-0.217
-0.182
-0.203
-0.165
-0.097
-0.174
-0.027
-0.002
-0.059
-0.044
0.112
-0.031
-0.119
0.009
0.153
-0.020
0.006
0.212
0.034
0.118
0.017
0.146
0.163
0.041
0.143
0.021
0.101
0.141
0.079
0.082
0.117
0.198
0.031
0.029
0.230
-0.007
0.045
0.000
0.169
0.006
0.167
0.133
-0.020
0.115
-0.004
0.116
0.137
0.035
0.085
0.181
0.061
0.070
0.059
0.121
0.115
0.072
0.153
0.188
0.056
0.140
0.094
0.112
0.145
0.009
0.005
0.126
0.116
0.066
0.057
0.098
0.119
0.101
0.064
0.008
0.021
0.099
0.046
-0.030
-0.045
0.105
0.046
-0.008
-0.022
-0.070
-0.016
-0.029
-0.117
0.024
-0.049
-0.046
-0.067
-0.009
-0.041
-0.054
-0.122
-0.211
-0.100
-0.086
-0.174
-0.135
-0.079
-0.071
-0.232
-0.247
-0.176
-0.137
-0.183
-0.110
-0.072
-0.125
-0.099
-0.143
-0.203
-0.114
-0.159
-0.016
-0.096
-0.131
-0.064
-0.059
-0.060
0.006
0.020
-0.028
-0.040
-0.039
0.038
0.012
0.078
0.078
0.159
0.044
-0.023
0.235
0.021
0.183
0.190
0.106
0.157
0.131
0.176
0.127
0.032
0.303
0.004
0.044
0.115
0.135
0.231
0.120
0.086
0.091
0.122
0.126
0.047
0.158
0.118
0.087
0.068
-1.575
-0.905
1.728
2.102
1.145
0.165
-0.381
-0.620
-0.705
-0.273
-2.717
-2.783
2.448
3.988
4.367
0.949
-3.085
-3.795
-3.534
-2.254
-0.024
2.479
3.930
4.325
4.306
4.172
3.938
3.008
1.796
0.347
-1.875
-4.437
-5.088
-1.723
2.323
3.550
3.471
-1.697
-4.099
-4.695
-4.156
-1.123
2.597
4.113
4.515
4.541
4.452
4.334
4.075
2.644
0.866
-0.636
-1.716
-2.250
-2.578
-2.365
-1.912
-1.494
-0.752
-0.028
0.389
0.850
0.956
-0.038
-2.274
-3.093
-3.205
-2.798
-1.889
-1.656
-1.675
-1.857
-2.247
-2.330
-2.305
-1.922
1.428
4.411
5.637
5.880
5.927
5.683
5.353
0.286
2.030
3.673
3.991
3.855
2.635
-2.954
-2.070
1.517
2.503
2.306
0.769
-0.376
-0.965
-0.755
-0.330
0.179
0.271
0.084
-0.086
-0.202
-0.828
-1.267
-1.485
-1.942
-2.131
-2.162
-1.953
-1.656
-1.416
-1.208
-0.913
-0.504
-0.209
-0.145
0.330
0.482
0.576
0.768
0.916
1.015
1.048
1.197
1.428
1.259
1.497
1.434
1.582
1.626
1.603
1.645
1.779
1.700
1.629
1.669
1.543
1.538
1.453
1.480
1.434
1.377
1.405
1.082
1.019
0.930
1.040
0.895
1.197
2.544
2.017
1.189
0.464
0.228
0.191
0.336
0.365
0.427
0.415
0.185
-0.139
-0.358
-0.623
-0.968
-0.882
-1.063
-1.150
-1.102
-1.201
-1.143
-0.884
-0.804
-0.677
-0.509
-0.516
-0.344
-0.506
-0.354
-0.269
-0.223
-0.298
-0.118
-0.122
-0.040
-0.056
-0.037
0.001
0.037
0.122
0.124
0.220
0.265
0.299
0.086
0.237
0.270
0.377
0.291
0.217
0.357
0.350
0.135
0.158
0.267
0.293
0.195
0.115
0.234
0.124
0.095
-0.074
-0.014
0.033
-0.090
0.002
-0.076
-0.047
-0.159
-0.204
-0.202
-0.129
-0.117
-0.239
-0.273
-0.233
-0.188
-0.210
-0.287
-0.310
-0.201
-0.318
-0.267
-0.363
-0.338
-0.071
-0.164
-0.193
-0.267
-0.190
-0.273
-0.225
-0.050
-0.069
-0.097
-0.042
0.048
0.041
-0.017
0.126
0.122
0.274
0.155
0.257
0.178
0.273
0.208
0.261
0.293
0.321
0.186
0.284
0.294
0.198
0.227
0.234
0.044
0.195
0.253
0.202
0.208
0.244
0.123
0.156
0.161
0.077
0.216
0.125
0.127
0.070
-0.005
0.035
-0.018
-0.006
-0.008
-0.032
-0.129
-0.156
-0.249
-0.084
-0.130
-0.223
-0.076
-0.191
-0.169
-0.172
-0.215
-0.247
-0.184
-0.305
-0.165
-0.254
-0.290
-0.275
-0.209
-0.303
-0.236
-0.177
-0.226
-0.209
-0.141
-0.222
-0.145
-0.031
-0.048
-0.173
-0.046
0.052
-0.077
0.027
0.039
0.004
0.034
0.027
0.042
0.036
0.109
0.145
0.097
0.067
0.171
0.167
0.098
0.097
0.376
0.305
0.278
0.291
0.181
-0.000
0.092
0.014
0.312
0.219
0.381
0.157
0.282
0.209
0.019
0.098
0.105
0.145
0.164
0.123
0.021
0.066
0.051
0.043
0.180
0.027
-0.008
0.011
-0.008
-0.009
0.005
-0.057
0.035
-0.221
-0.087
-0.086
-0.038
-0.028
-0.015
-0.114
-0.161
-0.074
-0.000
0.031
-0.158
-0.075
-0.134
-0.155
0.000
-0.049
-0.033
-0.055
-0.260
-0.065
-0.073
-0.099
-0.006
0.094
0.020
-0.117
-0.101
-0.063
0.070
-0.046
0.122
0.027
-0.040
-0.206
0.049
0.095
0.061
0.087
-0.091
-0.029
0.033
0.019
0.058
0.065
0.133
-0.026
0.030
0.020
0.002
0.084
0.047
0.114
0.067
0.104
0.000
0.029
0.098
0.090
-0.117
0.025
0.072
-0.067
0.012
0.118
0.062
0.115
0.099
0.002
-0.134
0.015
0.170
-0.049
0.009
-0.030
0.142
0.017
-0.103
0.011
0.177
0.003
-0.051
0.000
0.043
-0.035
-0.011
0.020
-0.021
0.022
0.018
0.086
-0.069
0.033
-0.050
-0.075
0.029
-0.017
-0.016
0.098
-0.093
0.050
0.029
0.030
-0.005
0.016
-0.055
-0.037
0.073
0.026
-0.023
0.175
-0.021
-0.165
-0.014
-0.051
-0.004
0.023
0.045
0.009
0.005
0.025
0.147
0.014
-0.083
-0.096
0.024
0.033
0.043
-0.014
-0.021
-0.053
-0.034
0.208
0.103
0.063
-0.158
-0.045
-0.006
0.052
0.057
-0.017
0.004
-0.069
0.028
0.058
-0.110
0.095
0.043
0.066
-0.036
-0.033
-0.001
-0.061
0.005
0.046
-0.049
0.101
-0.002
-0.097
0.052
0.053
0.148
-0.066
-0.040
0.022
0.065
0.044
-0.034
0.043
0.094
0.033
-0.055
0.099
-0.067
0.066
-0.010
-0.078
-0.010
0.119
0.126
0.081
-0.072
0.020
-0.058
0.005
0.101
0.053
-0.012
-0.014
0.045
0.009
-0.036
-0.007
0.086
0.089
0.001
-0.178
0.066
0.008
0.144
-0.041
0.005
-0.042
-0.079
0.078
0.028
0.170
-0.085
-0.040
-0.024
0.117
0.088
-0.075
0.052
0.012
-0.099
0.020
-0.036
-0.008
-0.126
-0.077
0.142
0.001
0.017
0.051
-0.073
-0.075
0.085
-0.088
-0.063
0.093
-0.027
0.145
0.086
-0.001
-0.091
-0.034
0.016
-0.020
-0.021
-0.022
0.068
-0.074
0.109
-0.000
0.002
-0.005
-0.048
0.151
0.097
0.060
0.016
-0.023
0.030
0.050
0.082
-0.002
0.040
-0.047
0.003
-0.105
0.045
-0.079
0.054
0.001
0.049
-0.048
0.028
-0.037
-0.109
0.137
0.169
-0.032
-0.015
0.068
-0.003
0.076
-0.023
-0.110
0.100
-0.032
0.070
-0.001
0.068
0.088
-0.053
-0.025
0.096
0.001
0.005
0.051
-0.059
0.071
0.071
-0.096
0.078
0.024
-0.029
0.074
-0.027
0.067
-0.026
0.067
-0.028
-0.009
0.051
-0.041
-0.019
0.092
-0.079
0.175
-0.021
-0.058
0.030
0.033
0.006
0.007
0.045
0.020
0.016
-0.057
0.066
0.006
0.081
-0.015
0.038
-0.014
-0.101
0.122
0.109
0.080
-0.023
0.013
0.101
-0.009
-0.085
-0.111
0.008
0.093
0.022
0.050
-0.008
0.032
-0.099
0.060
0.067
-0.116
0.105
0.055
0.139
-0.030
-0.054
-0.048
-0.066
-0.088
0.128
0.106
0.018
0.027
0.004
-0.050
-0.022
0.074
0.061
0.062
-0.055
-0.083
-0.012
0.065
-0.072
-0.085
0.153
0.065
0.053
0.034
-0.063
-0.058
0.130
-0.038
0.088
-0.001
0.027
0.069
-0.087
0.141
-0.052
0.018
0.045
-0.017
-0.075
0.105
0.061
-0.135
-0.330
-0.558
-0.557
-3.004
-3.973
-4.129
-1.636
3.105
3.206
3.168
4.176
-0.819
-3.384
-3.225
-2.060
-1.480
2.520
4.136
4.483
4.474
4.287
4.092
3.887
3.681
2.904
0.475
-2.634
-4.851
-5.204
-4.423
-3.743
-2.624
-1.035
-0.555
-0.580
-1.196
-1.165
-0.333
0.492
1.128
1.348
1.485
1.140
0.971
0.747
0.413
0.332
0.119
-0.004
-0.007
-0.148
-0.133
0.140
-0.024
-0.276
-2.423
-2.056
0.269
1.535
1.271
-0.378
-0.326
-0.361
0.271
0.250
0.178
1.293
1.339
1.386
0.961
1.092
0.938
0.143
0.893
0.425
0.156
0.482
-0.278
-1.056
-2.421
-2.649
-1.605
-1.179
-2.842
-4.040
-3.817
-1.126
0.888
1.139
-0.016
-2.121
-3.052
-2.065
-0.918
0.189
1.284
1.989
1.922
2.102
2.141
1.843
1.508
1.208
1.086
0.846
0.641
0.269
0.159
0.171
0.045
-0.017
-0.249
-0.330
-0.305
-0.271
-0.457
-0.427
-0.636
1.378
2.550
1.456
-0.284
-2.262
-0.459
1.351
1.953
1.672
0.996
0.817
0.553
0.351
0.263
0.152
0.120
0.177
0.214
0.199
0.132
0.202
0.168
0.219
0.385
0.314
0.544
0.543
0.639
0.782
0.722
0.884
0.976
0.944
1.120
1.153
1.054
1.148
1.205
0.980
1.121
1.032
0.985
0.952
0.947
0.794
0.889
0.781
0.650
0.571
0.578
0.644
0.372
0.317
0.312
0.294
0.260
0.116
0.040
0.030
0.057
-0.103
-0.157
-0.236
-0.313
-0.368
-0.357
-0.295
-0.262
-0.427
-0.458
-0.508
-0.631
-0.514
-0.477
-0.425
-0.560
-0.445
-0.465
-0.660
-0.588
-0.460
-0.390
-0.407
-0.409
-0.555
-0.375
-0.352
-0.370
-0.338
-0.410
-0.455
-0.352
-0.226
-0.143
-0.105
-0.233
-0.169
-0.093
-0.282
-0.176
0.050
-0.037
-0.098
0.051
-0.027
-0.043
-0.111
0.009
-0.002
0.048
0.090
0.080
0.022
0.196
0.042
-0.045
0.111
0.024
-0.051
0.283
0.117
0.073
0.230
0.016
-0.015
-0.042
0.174
0.035
0.072
0.125
0.213
0.110
0.088
0.060
0.138
0.047
0.047
0.232
0.090
0.133
0.132
0.174
0.084
0.157
0.138
0.239
0.014
0.096
0.150
0.134
0.112
0.057
0.141
0.119
0.132
0.090
0.080
0.023
0.147
0.148
0.077
0.139
0.136
0.123
-0.003
0.093
0.184
-0.005
0.008
0.027
0.103
0.020
0.080
-0.002
-0.085
0.068
-0.064
0.004
-0.092
-0.045
-0.081
-0.084
-0.100
-0.098
-0.062
-0.127
-0.064
-0.061
-0.232
-0.138
-0.129
-0.103
-0.097
-0.108
-0.068
-0.172
-0.135
-0.057
-0.106
-0.166
-0.040
-0.241
-0.195
-0.108
-0.089
-0.097
-0.061
-0.127
-0.036
-0.183
-0.117
0.007
-0.038
-0.163
0.003
-0.067
-0.008
-0.006
0.034
0.164
0.020
-0.032
0.056
0.149
0.004
0.001
0.179
0.180
0.201
0.066
0.104
0.088
0.024
0.162
0.126
0.138
0.149
0.194
0.108
0.060
0.249
0.227
0.095
0.144
0.175
0.247
0.179
0.155
0.078
0.141
0.096
0.198
0.049
0.111
0.043
0.098
-0.044
0.054
0.140
-0.099
-0.013
0.137
-0.023
-0.016
-0.179
-0.025
0.043
-0.037
0.034
0.002
0.036
-0.044
-0.111
-0.172
-0.102
0.038
-0.155
-0.020
-0.051
-0.061
-0.146
-0.114
-0.120
-0.061
-0.197
-0.052
-0.069
-0.074
-0.068
-0.090
-0.106
0.011
0.058
-0.055
-0.048
-0.039
-0.099
-0.066
0.039
-0.076
-0.010
-0.028
0.007
0.006
-0.011
-0.000
-0.076
-0.013
0.088
0.063
-0.093
-0.130
-0.064
-0.042
-0.788
-1.476
-0.546
1.237
1.026
-0.447
-1.916
0.272
1.260
1.016
0.540
0.270
0.066
0.219
0.376
0.442
0.639
0.710
0.582
0.543
0.387
0.244
-0.149
-0.253
-0.288
-0.362
-0.232
-0.341
-0.339
-0.150
-0.201
-0.144
-0.080
-0.052
-0.091
-0.077
-0.053
0.025
0.052
0.010
0.067
-0.039
-0.002
0.028
-0.056
0.107
-0.054
-0.057
0.060
0.065
-0.029
0.128
0.164
0.130
-0.073
0.083
0.093
0.131
0.009
0.012
0.003
0.063
0.162
0.090
0.016
0.098
0.075
0.108
0.068
0.091
0.000
0.012
0.065
0.056
0.058
0.113
0.040
-0.071
0.097
-0.015
-0.038
0.003
0.110
0.046
-0.052
-0.078
-0.126
-0.016
-0.089
-0.132
-1.681
-0.728
-0.368
0.872
0.974
0.454
-0.015
-0.317
-0.448
-0.401
-0.005
0.288
0.353
0.334
0.536
0.260
0.200
0.148
-0.205
-0.468
-0.271
-0.328
-0.425
-0.195
-0.200
-0.278
-0.310
-0.188
-0.283
-1.669
-2.713
-1.228
0.937
0.156
-0.088
0.430
0.273
-0.642
-0.183
0.016
-0.020
-0.719
1.311
2.201
1.722
1.280
0.884
0.786
0.813
0.571
0.693
0.513
0.276
0.299
0.086
-0.148
-0.275
-0.464
-0.610
-0.613
-0.645
-0.504
-0.711
-0.528
-0.417
-0.359
-0.173
-0.260
-0.127
-0.074
-0.010
-0.013
0.095
0.128
0.060
0.106
0.130
0.079
0.107
0.150
0.144
0.212
0.273
0.196
0.193
0.323
0.343
0.350
0.215
0.285
0.347
0.140
0.323
0.295
0.513
0.308
0.192
0.182
0.212
0.312
0.189
-0.028
0.276
0.166
0.179
0.154
0.127
-0.019
0.173
0.079
-0.009
0.040
0.092
-0.033
0.001
0.054
-0.076
-0.027
-0.071
-0.023
-0.143
-0.152
-0.094
0.004
-0.147
-0.268
-0.205
-0.075
-0.079
-0.078
-0.064
-0.080
-0.212
-0.177
-0.068
-0.113
-0.101
-0.144
-0.235
-0.008
-0.109
-0.118
-0.061
-0.038
-0.056
0.012
-0.035
-0.001
-0.042
-0.139
0.121
0.042
-0.063
0.123
-0.018
0.068
0.071
0.094
0.108
-0.028
-0.099
-0.040
0.013
0.113
-0.005
0.045
0.047
0.057
0.015
-0.019
0.065
0.027
0.073
-0.005
-0.004
0.044
0.023
-0.077
0.089
0.007
0.035
-0.103
0.017
0.008
0.045
-0.020
-0.013
-0.034
0.219
-0.028
0.017
0.109
-0.102
-0.011
0.090
0.041
-0.018
0.079
0.003
-0.103
-0.031
0.164
0.031
0.045
0.002
-0.097
0.003
-0.008
-0.025
0.143
-0.054
0.147
-0.027
-0.045
-0.093
0.190
0.067
-0.008
-0.019
0.105
0.031
0.027
-0.039
0.015
0.059
0.028
0.016
-0.030
0.045
-0.029
0.092
0.018
0.017
0.094
-0.023
0.070
0.040
-0.070
-0.131
-0.033
0.047
0.049
0.037
-0.072
-0.062
-0.019
0.014
-0.054
0.088
-0.095
-0.150
-0.028
0.038
0.139
0.004
-0.008
-0.059
0.021
-0.047
0.024
-0.074
0.079
0.131
0.035
0.017
-0.100
0.021
-0.054
-0.048
0.109
0.014
-0.032
-0.009
0.081
0.010
-0.009
0.029
-0.061
-0.073
0.030
0.131
0.034
0.153
0.015
0.059
-0.011
0.042
-0.064
0.117
0.040
0.063
0.093
0.171
0.058
0.094
0.073
-0.002
-0.002
-0.002
0.153
0.159
0.071
0.045
-0.021
0.111
0.054
-0.069
0.050
0.168
0.045
0.076
-0.027
0.057
-0.064
-0.026
0.016
0.057
0.034
0.089
0.049
-0.035
-0.048
-0.088
0.081
0.042
0.092
0.014
-0.014
-0.004
-0.028
0.012
0.058
-0.045
-0.137
0.095
0.114
0.010
-0.002
0.003
-0.066
-0.018
-0.030
-0.021
0.050
-0.041
-0.047
-0.071
0.017
0.015
0.031
0.000
-0.065
-0.009
-0.006
-0.021
0.017
0.038
0.101
0.019
-0.033
0.007
0.122
-0.141
-0.018
0.067
-0.039
0.038
0.081
0.056
-0.072
-0.000
-0.030
-0.025
0.185
-0.086
0.016
0.101
-0.025
-0.002
0.096
0.064
0.047
0.100
-0.020
-0.045
0.041
0.052
-0.018
0.089
0.066
0.049
-0.024
-0.029
-0.032
0.000
-0.037
0.002
0.012
0.029
0.023
0.113
-0.036
-0.017
-0.033
-0.009
0.060
0.048
-0.007
0.000
0.007
-0.031
-0.053
0.098
-0.028
-0.047
0.042
0.018
-0.054
-0.048
0.058
-0.025
0.142
0.131
0.062
0.001
0.031
-0.014
-0.073
0.086
0.060
-0.132
0.040
-0.042
0.057
0.014
0.105
-0.055
-0.039
0.043
0.100
-0.019
-0.012
0.031
-0.083
0.104
-0.072
0.049
0.091
-0.112
0.013
0.060
0.013
0.085
-0.033
0.034
0.027
-0.068
0.121
0.040
-0.016
0.133
-0.008
0.133
0.036
-0.036
-0.015
0.075
-0.118
0.049
0.007
-0.005
-0.045
0.053
-0.006
0.209
0.018
0.063
-0.116
0.082
-0.036
0.028
0.178
0.092
-0.010
-0.079
-0.027
-0.005
-0.044
0.005
0.149
0.049
0.024
0.025
0.078
-0.006
0.022
-0.014
-0.083
0.133
0.056
0.011
0.024
-0.025
0.096
0.035
0.062
0.046
0.077
0.034
0.028
0.052
-0.022
0.042
-0.003
-0.038
0.003
-0.023
0.102
0.030
0.063
-0.003
-0.132
-0.125
0.064
0.042
0.007
-0.015
0.128
-0.028
0.043
0.093
0.087
0.042
0.029
-0.069
0.055
0.030
0.128
-0.087
0.071
-0.102
0.171
-0.062
0.076
-0.178
-0.056
0.029
0.178
-0.012
-0.065
0.053
0.135
-0.120
0.136
0.078
-0.026
-0.034
0.046
0.103
-0.033
-0.019
0.168
0.022
0.023
-0.007
0.116
-0.095
0.001
0.045
-0.085
0.027
0.106
0.013
-0.005
-0.053
-0.083
0.130
0.093
0.103
-0.057
-0.117
-0.028
-0.020
0.105
0.049
0.111
0.082
-0.053
-0.008
0.083
0.063
0.066
0.123
-0.059
0.039
0.088
0.086
0.017
-0.028
-0.056
0.014
0.063
0.080
0.073
0.000
-0.063
-0.066
0.061
0.078
0.067
0.049
0.004
0.020
-0.020
0.059
-0.031
0.068
0.033
0.045
0.055
0.014
0.039
0.004
-0.080
0.064
0.001
0.043
0.093
0.029
-0.150
0.024
0.100
-0.025
-0.015
0.121
0.061
0.016
-0.029
0.081
0.041
-0.022
-0.035
0.017
0.076
0.011
-0.029
-0.062
0.040
0.101
-0.056
-0.030
0.090
0.048
0.100
-0.068
0.081
0.131
0.001
-0.140
-0.126
0.095
0.035
-0.013
0.132
-0.072
0.092
-0.001
0.116
-0.046
-0.029
0.047
0.109
0.115
0.174
-0.077
-0.066
-0.034
-0.021
0.013
0.158
0.009
-0.002
-0.020
-0.062
0.041
0.102
-0.008
0.020
0.042
0.109
-0.046
-0.013
0.022
0.025
0.048
-0.011
-0.032
0.016
0.048
0.068
0.048
0.016
-0.009
-0.033
-0.011
0.009
0.036
0.039
-0.042
0.063
-0.059
0.042
-0.182
0.262
-0.047
0.038
0.125
-0.061
0.076
-0.051
0.106
-0.075
-0.008
0.086
0.124
0.090
-0.030
-0.199
-0.655
-1.308
-1.765
-1.895
-2.532
-3.351
-2.413
-1.210
-1.340
1.067
2.214
0.599
-2.083
-3.374
-2.955
0.124
1.087
2.551
3.250
2.894
2.358
1.323
0.574
0.416
0.382
0.463
0.712
0.820
0.750
0.639
0.312
-0.250
-0.530
-0.808
-0.826
-0.816
-0.827
-0.827
-0.862
-0.881
-0.828
-0.874
-0.861
-0.745
-0.513
-0.446
-0.364
-0.410
-0.340
-0.311
-0.249
-0.150
-0.040
-0.056
-0.121
0.196
0.207
0.107
0.252
0.324
0.332
0.451
0.529
0.362
0.168
0.473
0.415
0.370
0.528
0.501
0.495
0.750
0.404
-1.148
-1.039
0.853
0.921
0.738
0.241
0.341
0.447
-0.264
-0.730
0.053
0.867
1.335
0.866
0.867
0.807
0.691
0.706
0.932
0.663
0.528
0.265
0.472
0.696
0.691
0.210
-0.053
-0.064
-0.286
-0.375
-0.261
-0.341
-0.186
-0.305
-0.345
-0.442
-0.454
-0.514
-0.227
-0.240
-0.146
-0.171
-0.266
-0.203
-0.441
-0.435
-0.414
-0.466
-0.149
-0.686
-3.034
-3.900
-4.046
-2.556
0.421
2.019
4.325
4.921
4.594
-1.142
-3.373
-3.962
-2.595
2.355
4.261
4.705
4.682
4.527
4.303
4.112
3.879
3.435
1.753
0.087
-1.528
-2.477
-3.508
-3.579
-3.179
-2.232
-1.366
-0.374
0.348
0.706
1.039
1.142
1.109
0.809
0.773
0.586
0.294
0.160
0.026
-0.031
-0.056
0.187
0.307
0.250
0.268
0.308
0.378
0.506
0.654
0.617
0.873
0.641
0.809
0.872
0.898
0.691
0.745
0.787
0.668
0.707
0.809
0.937
0.993
1.138
3.195
3.347
2.279
1.377
0.624
0.712
0.872
1.114
1.367
1.364
1.168
0.769
0.403
0.021
-0.312
-0.616
-0.754
-0.844
-0.736
-0.737
-0.692
-0.550
-0.439
-0.277
-0.238
-0.161
-0.014
-0.060
0.193
-0.023
0.109
-0.018
-0.001
-0.074
0.109
0.081
0.019
-0.061
0.075
0.042
0.088
0.162
0.055
0.074
0.150
0.072
-0.066
0.086
0.029
0.041
0.169
-0.100
0.070
0.089
0.059
-0.048
-0.052
0.077
-0.145
-0.162
-0.010
-0.017
-0.131
-0.021
-0.274
-0.093
-0.021
-0.174
-0.021
-0.124
-0.261
-0.286
-0.198
-0.270
-0.077
-0.225
-0.169
-0.097
-0.156
-0.329
-0.183
-0.155
-0.084
-0.157
-0.096
-0.041
-0.072
-0.225
-0.066
-0.071
-0.090
0.006
-0.042
-0.026
-0.033
0.054
-0.044
0.032
0.032
-0.054
0.099
-0.040
-0.001
0.173
0.100
-0.002
0.063
0.086
0.091
0.104
0.116
0.090
0.105
0.138
0.029
-0.002
0.069
0.090
0.133
0.148
0.035
0.050
0.050
0.153
0.040
0.038
0.108
0.033
0.010
-0.009
0.038
0.064
0.021
-0.017
0.017
0.021
0.012
-0.013
0.026
-0.082
-0.081
-0.036
-0.037
-0.046
-0.039
-0.057
-0.043
-0.084
-0.092
-0.088
0.077
-0.088
-0.001
-0.030
-0.069
-0.058
-0.105
-0.124
-0.021
0.040
-0.101
0.002
-0.121
-0.124
0.080
-0.014
-0.067
-0.030
0.066
-0.019
-0.067
0.121
-0.068
0.036
-0.004
-0.066
-0.046
0.043
0.120
0.040
-0.049
0.036
-0.029
0.070
0.107
0.001
0.041
0.058
0.108
-0.018
0.001
0.069
-0.029
-0.019
0.133
0.068
-0.010
0.104
0.078
0.113
-0.001
0.039
0.042
0.007
0.112
-0.009
-0.123
-0.032
0.014
0.040
-0.045
0.027
0.049
-0.021
0.105
0.023
-0.077
0.061
-0.021
0.016
0.009
0.070
0.082
-0.082
0.071
-0.045
-0.013
-0.338
-1.243
-0.560
0.068
-1.557
-0.478
-1.083
-2.685
-3.756
-3.956
-3.791
-3.757
-3.642
-3.502
1.586
4.481
5.239
4.722
2.157
2.435
-0.126
-1.188
1.065
3.464
4.043
4.069
3.897
3.674
3.455
3.232
3.033
2.119
-0.410
-3.165
-5.067
-5.795
-5.871
-5.678
-4.854
-3.794
-2.669
-1.386
-0.628
-0.092
0.588
0.856
0.772
0.764
0.648
0.431
0.387
0.301
0.058
0.054
0.038
0.236
0.094
0.371
0.402
0.407
0.561
0.712
0.533
0.533
0.721
0.608
0.717
0.469
0.522
0.520
0.442
0.446
0.446
0.459
0.267
0.218
0.201
0.240
0.108
0.209
0.051
0.147
-0.059
-0.041
-0.333
-0.514
-0.153
-0.156
-0.437
-2.251
-3.950
-4.364
-4.394
-3.099
-1.421
-2.376
-3.504
-3.769
-0.652
3.524
4.704
3.763
4.350
4.089
2.084
1.629
0.434
2.648
3.366
3.464
3.352
0.466
-0.495
1.926
0.284
-2.624
-2.911
-2.905
-3.735
-4.778
-5.143
-4.742
-3.704
-2.164
-0.315
1.195
2.491
3.271
3.563
3.343
2.844
2.316
1.524
0.768
0.123
-0.360
-0.486
-0.564
-0.606
-0.429
-0.192
-0.058
0.003
0.424
0.535
0.627
0.709
0.749
0.674
0.787
0.791
0.867
0.636
0.787
0.786
0.613
0.498
0.562
0.669
0.658
0.773
0.871
1.020
1.081
0.807
0.456
0.295
0.215
0.386
0.373
0.442
0.350
0.212
0.061
0.073
-0.155
-0.186
-0.225
-0.218
-0.201
-0.260
-0.154
-0.071
-0.096
0.119
0.103
0.188
0.100
0.042
0.367
0.309
0.454
0.455
0.235
0.140
0.236
0.211
0.178
0.435
0.324
0.315
0.089
-0.161
-0.125
-0.099
-0.104
-0.189
-0.211
-0.170
-0.294
-0.240
-0.186
-0.331
-0.267
-0.134
-0.092
-0.229
-0.312
-0.123
-0.073
0.039
-0.006
0.023
0.039
0.044
0.104
0.059
0.076
0.202
0.094
0.045
0.119
0.124
0.089
0.051
0.105
0.255
0.155
0.080
0.095
0.115
0.020
0.095
0.093
0.065
0.224
0.022
0.093
-0.028
0.050
0.012
0.117
0.093
-0.140
-0.070
0.101
0.025
-0.156
0.048
-0.007
-0.022
-0.040
0.046
0.150
-0.050
-0.144
-0.029
-0.035
0.205
0.185
0.105
-0.016
-0.273
-0.011
0.011
-0.125
-0.380
-0.258
-0.455
-3.021
-3.651
1.963
3.999
3.211
0.966
-0.796
-1.483
-1.254
-0.453
0.460
0.959
1.519
1.584
1.367
1.300
0.840
0.404
-0.027
-0.525
-0.598
-0.796
-0.719
-0.837
-0.803
-0.721
-0.628
-0.655
-0.449
-0.279
-0.559
-0.577
-0.871
-2.647
-3.796
-3.385
-3.614
-2.890
-0.903
1.768
1.957
0.667
-0.921
-1.859
-1.235
-0.257
0.784
1.864
2.452
2.944
3.339
3.771
3.516
2.940
1.355
-0.389
0.175
0.980
1.150
0.779
0.158
-0.235
-0.435
-0.500
-0.646
-0.562
-0.585
-0.650
-0.589
-0.586
-0.732
-0.856
-0.858
-0.781
-0.735
-0.743
-0.609
-0.548
-0.453
-0.173
-0.147
-0.019
0.181
0.260
0.187
0.444
0.494
0.458
0.467
0.682
0.627
0.710
0.760
0.691
0.705
0.691
0.910
0.693
0.767
0.669
0.674
0.709
0.769
0.749
0.525
0.637
0.524
0.597
0.503
0.331
0.551
0.315
0.420
0.137
0.193
0.304
0.067
0.100
0.090
-0.080
-0.103
-0.066
-0.206
-0.196
-0.157
-0.226
-0.267
-0.267
-0.328
-0.467
-0.337
-0.167
-0.337
-0.299
-0.547
-0.392
-0.333
-0.421
-0.273
-0.320
-0.432
-0.350
-0.325
-0.244
-0.213
-0.346
-0.319
-0.153
-0.184
-0.211
-0.087
-0.212
-0.142
-0.108
-0.078
0.002
0.124
0.068
-0.044
0.106
0.034
0.102
0.070
0.096
0.157
0.067
0.116
0.140
0.169
0.103
0.142
0.148
0.180
0.032
-0.005
0.044
0.156
0.179
0.068
0.038
0.185
0.089
0.097
0.057
-0.053
0.084
-0.018
0.089
0.101
0.081
0.044
-0.005
0.086
0.016
0.059
-0.017
-0.082
-0.109
-0.099
0.067
-0.029
-0.036
-0.081
0.073
0.002
0.007
-0.039
-0.077
0.031
0.022
-0.095
0.113
-0.036
0.052
0.063
0.051
0.118
-0.056
0.026
-0.023
0.019
0.151
0.115
0.022
0.013
0.045
0.162
0.053
0.091
0.051
0.064
0.058
0.141
-0.058
0.079
0.176
0.111
0.025
0.023
0.207
0.042
-0.003
0.043
-0.071
0.168
-0.029
-0.010
-0.031
0.136
-0.014
-0.212
-0.049
-0.137
-0.684
-3.110
-4.049
-4.221
-4.135
0.209
3.442
2.944
-0.274
-2.866
-3.762
-3.932
-3.200
-0.964
2.245
4.252
4.824
4.801
4.615
4.379
4.133
3.912
3.651
3.161
1.920
0.593
-0.402
-1.248
-1.690
-1.855
-2.038
-1.695
-1.412
-1.055
-0.760
-0.644
-0.426
-0.327
-0.214
-0.086
0.034
-0.089
-0.123
0.059
0.073
-0.061
0.223
0.290
0.397
0.406
0.491
0.593
0.594
0.813
0.662
0.866
0.933
0.933
0.975
1.144
1.107
1.162
1.115
1.080
1.116
1.158
1.158
1.003
0.980
0.911
0.978
0.943
0.945
0.825
0.878
0.725
0.594
0.545
0.643
0.497
0.411
0.430
0.362
0.349
0.146
0.073
0.043
0.044
-0.016
0.018
-0.135
-0.134
-0.242
-0.234
-0.279
-0.216
-0.370
-0.685
-0.427
-0.486
-0.422
-0.483
-0.482
-0.427
-0.595
-0.649
-0.401
-0.364
-0.400
-0.438
-0.406
-0.344
-0.285
-0.447
-0.327
-0.313
-0.211
-0.190
0.070
-0.065
-0.114
-0.098
0.027
0.029
-0.109
0.036
0.189
0.107
0.193
0.164
0.075
-0.063
0.228
0.090
0.076
0.098
0.010
0.005
0.031
0.184
0.044
0.179
0.196
-0.023
0.140
-0.004
0.001
0.134
-0.016
0.152
-0.029
0.079
0.095
0.010
-0.069
-0.074
-0.028
0.078
0.104
-0.032
0.118
-0.054
-0.051
0.004
-0.010
0.093
0.053
-0.031
-0.019
0.007
-0.004
-0.082
0.101
0.095
0.082
0.103
-0.027
0.088
0.120
0.074
0.161
0.013
0.084
0.148
0.129
0.144
0.193
0.210
0.065
0.090
0.118
0.172
0.062
0.112
0.153
0.150
0.133
0.047
0.079
0.084
0.110
0.183
0.009
0.189
0.162
0.148
0.023
0.055
0.025
-0.097
-0.073
0.110
0.013
-0.030
-0.050
0.011
-0.177
-0.023
-0.155
0.020
-0.161
-0.051
-0.046
-0.130
-0.004
-0.152
-0.144
-0.216
-0.043
0.093
-0.167
-0.118
-0.004
-0.178
-0.146
-0.072
-0.096
-0.244
-0.019
-0.089
0.022
-0.067
-0.060
-0.091
-0.131
-0.021
0.040
-0.025
-0.005
0.136
0.064
0.052
0.054
0.016
0.072
0.010
0.131
-0.070
-0.001
0.114
0.140
0.005
0.122
0.020
0.103
0.052
0.042
0.171
0.172
0.190
-0.039
0.002
0.259
0.173
0.090
0.156
-0.015
0.161
0.051
0.110
0.145
0.024
0.096
0.151
0.045
0.073
0.139
0.067
-0.047
-0.069
0.106
0.098
-0.005
0.066
0.043
0.094
-0.097
-0.029
0.101
-0.107
0.027
0.010
-0.044
-0.109
-0.047
-0.001
0.076
-0.090
-0.158
-0.021
-0.124
0.097
-0.055
-0.075
-0.001
-0.060
-0.087
-0.025
-0.004
-0.135
0.073
0.003
-0.066
-0.012
-0.099
-0.044
-0.045
0.068
-0.008
0.013
0.013
0.018
-0.071
-0.013
0.005
-0.003
0.013
0.113
0.029
0.142
-0.005
0.071
0.088
0.091
-0.020
0.112
0.060
0.149
0.021
0.003
0.250
0.178
0.078
0.218
0.092
0.125
0.104
0.113
0.324
0.170
0.094
0.148
0.324
0.161
0.206
0.196
0.225
0.299
0.415
0.400
0.354
0.044
0.020
0.120
0.052
0.101
0.115
0.047
0.172
0.037
-0.116
0.079
-0.082
-0.084
-0.041
-0.087
-0.109
-0.069
-0.039
0.017
0.030
0.038
-0.038
0.067
0.091
0.194
0.267
0.025
0.206
0.192
0.059
0.064
0.187
0.214
0.105
0.231
0.037
0.290
0.223
0.094
0.052
0.080
0.234
0.115
0.068
0.013
-0.004
0.034
0.073
0.063
0.101
0.011
-0.094
0.039
-0.038
-0.025
0.024
-0.041
0.033
-0.029
-0.260
-0.069
-0.103
-0.076
-0.028
-0.029
-0.063
-0.064
-0.070
-0.070
-0.083
-0.101
-0.121
-0.435
-3.102
-4.068
-3.705
2.026
4.021
4.548
2.350
-1.863
-3.789
-4.199
-2.833
-0.476
2.027
3.927
4.463
4.489
4.336
4.174
3.910
3.101
1.848
0.618
-0.457
-1.095
-1.392
-1.419
-1.471
-1.311
-0.988
-0.919
-0.810
-0.574
-0.474
-0.455
-0.314
-0.243
-0.093
-0.172
-0.129
0.095
0.090
0.206
0.404
0.347
0.374
0.455
0.584
0.619
0.572
0.631
0.655
0.699
0.833
0.769
0.816
0.681
0.884
0.817
0.638
0.670
0.625
0.647
0.598
0.808
0.634
0.467
0.546
0.319
0.486
0.406
0.253
0.353
0.189
0.141
0.153
0.036
-0.095
0.020
0.153
-0.186
-0.042
-0.145
-0.203
-0.205
-0.305
-0.279
-0.269
-0.336
-0.495
-0.265
-0.399
-0.290
-0.299
-0.377
-0.301
-0.308
-0.346
-0.520
-0.382
-0.326
-0.220
-0.324
-0.254
-0.341
-0.283
-0.263
-0.143
-0.294
-0.178
-0.196
-0.202
-0.067
0.029
-0.097
-0.171
0.038
0.009
-0.028
-0.073
-0.084
0.040
0.050
0.031
0.112
-0.007
0.101
0.164
0.079
0.056
0.093
0.113
0.147
0.208
-0.048
0.108
0.094
0.107
0.105
0.158
0.068
0.084
0.170
0.099
-0.161
0.000
0.082
0.083
0.067
0.102
0.119
0.059
-0.005
-0.025
0.040
-0.014
0.096
0.026
-0.077
0.192
0.113
0.018
-0.087
0.182
0.068
-0.010
-0.001
0.005
0.100
0.124
0.005
-0.005
0.141
0.140
0.067
0.072
-0.100
0.061
0.031
0.047
0.042
0.019
0.075
0.095
0.004
-0.012
0.081
0.125
0.041
0.003
0.023
0.177
0.062
-0.013
0.061
-0.032
0.069
-0.032
0.013
-0.023
0.025
-0.003
0.030
-0.121
-0.085
0.050
0.023
-0.011
-0.039
-0.090
-0.047
-0.076
-0.171
0.033
-0.019
0.010
-0.083
-0.126
-0.065
-0.098
-0.038
-0.013
-0.110
-0.037
-0.074
-0.122
-0.022
-0.032
-0.029
-0.134
-0.104
-0.070
-0.025
-0.020
-0.023
-0.063
0.004
-0.053
0.001
-0.034
0.054
0.105
-0.025
0.081
0.060
0.062
0.071
0.029
0.100
0.053
0.116
-0.004
0.143
0.108
0.104
0.221
-0.044
0.006
0.107
0.100
0.146
0.121
0.169
0.098
0.126
0.165
0.071
0.027
0.064
0.197
0.090
-0.010
0.071
0.067
0.117
-0.031
0.024
0.124
-0.008
0.044
0.067
0.057
0.050
0.053
-0.069
-0.050
0.045
-0.020
0.038
-0.076
0.120
-0.002
-0.092
-0.083
0.019
0.011
0.013
-0.098
-0.036
0.044
-0.130
-0.273
0.031
0.021
0.089
-0.046
-0.172
-0.060
-0.139
-0.041
-0.337
-0.340
-1.400
-0.771
1.067
1.185
0.658
0.088
-0.265
-0.380
-0.282
-0.151
0.132
0.425
0.401
0.393
0.290
0.297
0.220
0.056
0.045
-0.180
-0.043
-0.090
-0.126
-0.142
-0.082
-0.007
-0.043
-0.110
0.016
0.098
0.034
0.074
0.034
0.002
0.015
0.078
0.049
0.042
0.057
-0.098
0.078
0.060
0.092
-0.023
-0.044
0.128
0.005
0.033
-0.200
0.072
0.124
0.103
0.073
0.167
-0.019
-0.004
0.056
0.126
0.101
0.034
0.101
0.029
0.147
0.024
0.090
0.152
-0.035
0.061
-0.056
-0.080
-2.562
-3.656
2.130
3.946
4.165
-0.518
-1.943
-2.788
-2.283
-0.998
0.219
1.518
2.409
2.761
3.067
2.737
2.128
1.408
0.738
-0.020
-0.556
-1.014
-1.363
-1.329
-1.717
-1.367
-1.051
-0.807
-0.654
-0.705
-0.834
-0.669
-0.864
-0.408
0.250
-0.483
-0.947
0.083
-0.086
-0.367
-0.446
-0.177
-0.300
0.247
0.695
0.757
0.955
1.188
1.108
0.787
1.032
0.645
0.482
0.734
0.882
1.158
0.667
0.578
-0.030
-0.595
0.158
1.166
1.411
0.700
0.154
-0.304
-0.352
-0.236
-0.187
0.026
0.342
0.264
0.040
-0.112
-0.155
-0.148
-0.345
-0.632
-0.573
-0.653
-0.483
-0.454
-0.445
-0.412
-0.214
-0.228
-0.019
-0.008
0.003
0.148
0.157
0.045
0.173
0.270
0.267
0.279
0.263
0.276
0.319
0.242
0.372
0.263
0.321
0.410
0.359
0.428
0.344
0.334
0.297
0.292
0.234
0.347
0.332
0.229
0.232
0.233
0.285
0.172
0.001
0.091
0.180
0.173
0.078
0.014
0.036
0.062
-0.083
-0.092
-0.058
-0.130
0.004
-0.246
-0.061
-0.076
-0.074
-0.179
-0.174
-0.047
-0.172
-0.215
-0.197
-0.100
-0.053
-0.094
-0.168
-0.267
-0.151
-0.056
-0.138
-0.096
-0.172
-0.070
0.010
-0.215
-0.051
-0.098
-0.055
-0.082
0.063
-0.211
-0.005
-0.024
0.006
0.090
-0.136
0.037
0.026
0.080
0.036
0.065
0.037
0.041
0.098
0.145
0.149
0.101
0.146
0.100
0.018
0.139
-0.037
0.050
0.005
0.224
0.100
-0.106
0.086
0.017
-0.006
0.051
-0.057
-0.024
0.078
-0.011
0.202
-0.001
-0.072
0.017
0.056
0.014
0.035
0.082
0.067
0.024
0.043
-0.204
-0.081
0.039
0.028
-0.010
0.142
-0.107
0.102
-0.045
0.076
-0.044
-0.078
-0.040
0.019
0.086
0.024
-0.002
0.115
-0.053
0.051
0.148
-0.071
0.109
0.070
0.057
0.041
0.083
0.092
-0.003
0.086
0.055
0.038
-0.088
0.017
0.112
0.046
-0.040
-0.026
0.028
0.110
-0.019
0.097
0.026
0.048
0.079
0.039
-0.064
0.069
0.078
0.082
0.043
-0.105
-0.035
-0.033
0.135
0.076
0.074
-0.094
-0.068
0.009
-0.022
-0.090
0.048
-0.120
-0.036
-0.089
0.022
-0.005
-0.074
0.075
0.081
-0.142
-0.027
-0.037
-0.049
0.099
0.050
-0.096
0.015
0.015
0.028
-0.008
0.015
-0.024
-0.026
-0.043
0.023
-0.034
0.076
0.061
-0.011
0.128
0.016
-0.017
-0.055
0.141
0.090
0.015
0.009
0.061
0.042
0.117
0.069
0.089
0.082
-0.049
0.089
0.153
0.186
0.085
0.020
0.052
-0.001
-0.013
0.024
0.166
-0.024
-0.064
0.060
0.097
0.164
-0.019
0.008
0.160
0.096
-0.004
-0.040
-0.006
-0.034
0.055
0.019
0.060
-0.013
0.036
-0.020
0.038
-0.055
0.172
0.039
-0.097
-0.020
-0.033
-0.011
0.037
-0.098
0.014
-0.014
-0.092
0.052
0.012
-0.033
-0.046
0.063
0.033
0.039
0.058
-0.032
0.026
0.020
-0.067
0.033
-0.016
-0.090
0.028
0.101
0.048
-0.122
-0.188
0.158
-0.121
0.017
0.116
0.038
-0.007
-0.021
0.105
-0.063
-0.016
0.081
0.062
-0.031
0.188
-0.015
-0.087
0.050
0.054
0.154
-0.060
-0.047
0.053
0.093
0.023
-0.036
0.074
0.044
-0.026
-0.030
-0.074
0.017
0.061
0.092
0.103
-0.010
0.010
-0.069
0.105
-0.074
0.120
-0.003
0.076
-0.015
0.023
0.032
0.119
-0.044
0.098
-0.098
-0.095
0.031
-0.022
0.013
0.104
-0.107
-0.159
0.147
-0.162
-0.037
0.053
0.073
0.086
-0.065
-0.217
0.142
0.097
0.008
0.022
0.029
0.104
0.030
0.027
-0.102
-0.008
0.048
0.076
0.046
-0.004
0.030
0.083
-0.050
0.042
0.088
-0.028
0.064
-0.057
0.012
0.061
0.067
0.026
-0.120
0.044
-0.011
0.114
-0.090
0.095
0.009
0.009
0.112
-0.004
0.036
-0.043
-0.000
0.010
-0.012
0.009
0.061
0.015
-0.031
0.067
0.061
-0.002
-0.106
0.023
0.139
0.118
0.028
-0.092
0.031
0.026
0.059
0.072
0.018
-0.028
0.079
0.092
-0.020
0.107
-0.008
-0.042
-0.030
0.036
0.059
-0.011
0.035
0.075
0.026
0.041
-0.051
0.025
-0.067
0.065
0.011
0.022
0.046
0.032
0.145
0.096
-0.035
0.078
0.018
-0.046
0.067
0.057
-0.088
-0.114
0.001
0.171
0.095
-0.067
-0.007
0.037
0.105
-0.024
-0.062
0.023
0.046
-0.028
-0.001
0.071
0.083
0.003
0.111
-0.033
-0.034
-0.105
0.114
-0.048
-0.081
0.057
0.075
0.081
-0.101
-0.083
0.063
0.020
0.099
0.099
-0.100
0.006
0.121
-0.037
0.021
0.002
0.011
0.131
-0.088
0.065
-0.106
0.014
0.081
0.130
0.012
-0.087
0.045
0.189
0.039
-0.050
-0.056
0.000
-0.090
0.067
-0.031
0.055
0.030
0.147
0.021
0.078
-0.017
-0.035
0.016
0.035
-0.085
0.092
0.002
0.012
-0.057
0.066
0.043
-0.113
0.256
-0.065
0.040
-0.016
-0.072
0.072
0.100
0.112
0.107
0.058
-0.027
0.008
0.092
-0.027
-0.004
-0.057
-0.050
-0.004
0.004
0.075
-0.024
-0.021
0.090
0.079
-0.040
-0.036
0.027
-0.049
0.067
0.019
-0.029
0.102
0.008
-0.042
-0.053
-0.119
0.022
0.021
0.116
0.199
0.000
-0.069
-0.048
0.006
0.019
-0.007
0.053
-0.028
0.120
0.058
-0.030
0.084
-0.085
0.005
-0.025
0.066
-0.007
-0.067
-0.014
0.021
0.067
0.039
0.053
0.007
0.013
0.025
0.028
0.007
-0.118
0.029
0.060
0.081
-0.085
0.072
0.059
0.011
-0.070
-0.003
0.062
-0.067
0.027
0.025
-0.001
-0.022
0.117
0.029
0.067
-0.006
0.002
0.060
0.034
0.011
0.012
-0.019
-0.011
0.022
0.074
-0.015
0.097
0.045
-0.043
0.079
-0.006
-0.074
-0.029
0.028
0.041
0.095
0.111
0.039
-0.012
-0.063
-0.083
0.016
-0.070
0.189
-0.020
0.053
0.114
-0.036
-0.172
-0.015
0.047
-0.003
-0.012
0.047
0.069
-0.028
-0.052
-0.057
0.152
0.121
-1.149
-0.291
0.506
0.546
0.178
0.101
-0.099
-0.052
-0.060
0.032
0.030
0.099
0.153
0.184
0.171
0.093
0.038
0.012
0.010
-0.003
-0.064
-0.054
-0.112
0.010
-0.076
-0.102
-0.077
-0.120
-0.101
-0.106
0.187
0.032
-0.053
0.074
-0.055
0.159
0.053
-0.059
-0.006
0.001
-0.137
-0.063
0.150
0.178
-0.019
-0.034
0.084
-0.058
0.017
-0.022
0.020
0.113
0.049
0.055
-0.011
0.111
-0.012
-0.059
0.075
0.043
0.032
-0.001
0.052
-0.119
0.008
0.024
0.003
0.059
0.020
0.026
-0.066
-0.010
0.072
0.105
-0.010
0.141
0.108
-0.076
-0.015
0.096
-0.018
-0.025
0.025
0.017
0.045
0.029
-0.063
-0.017
-0.050
0.039
0.037
0.047
0.015
0.017
-0.033
0.037
-0.057
-0.071
0.019
-0.007
0.144
-0.068
0.059
-0.030
