-0.019
-0.008
0.043
0.042
-0.024
-0.060
-0.034
-0.063
0.068
0.169
0.115
-0.088
0.058
-0.045
-0.007
-0.002
0.021
0.051
0.000
-0.045
0.052
-0.039
-0.004
-0.010
-0.012
-0.072
0.082
0.007
-0.066
-0.074
-0.095
0.068
-0.018
0.167
0.176
-0.002
-0.013
-0.029
-0.008
0.025
0.024
-0.017
0.124
0.018
-0.032
0.079
-0.050
-0.055
0.017
0.053
-0.056
0.020
0.073
0.100
0.135
0.077
-0.109
0.035
0.007
0.076
0.054
0.025
-0.030
-0.080
0.017
0.097
-0.005
-0.005
-0.075
0.128
-0.028
0.024
0.010
0.012
0.020
-0.072
0.006
0.093
0.077
0.002
0.001
0.064
0.042
-0.039
0.023
0.205
0.355
-0.038
-0.422
-0.353
0.006
0.215
0.371
0.135
0.039
0.005
-0.131
-0.028
-0.088
-0.150
-0.015
0.011
0.197
0.063
0.008
0.014
-0.031
0.084
0.034
-0.017
0.015
0.077
0.037
-0.014
0.037
0.051
-0.018
-0.068
0.071
-0.025
0.094
-0.003
0.018
-0.031
0.016
-0.016
0.096
0.071
-0.017
-0.090
0.037
0.003
0.118
-0.006
0.032
-0.070
0.036
-0.014
0.013
0.001
-0.033
-0.019
0.039
0.141
0.046
-0.049
-0.072
-0.003
0.042
0.001
0.053
0.036
-0.003
0.023
0.078
0.064
0.021
-0.015
-0.117
0.051
0.125
0.078
-0.020
-0.043
0.014
0.032
0.055
0.040
0.052
-0.035
0.024
0.042
-0.013
-0.057
0.028
0.114
0.077
0.059
-0.096
0.083
0.042
-0.033
-0.001
0.022
0.072
0.079
0.042
0.060
0.024
-0.073
-0.028
0.101
0.003
0.076
-0.001
0.118
-0.033
-0.045
0.142
0.008
0.004
-0.050
-0.008
-0.014
0.109
-0.010
-0.002
-0.053
0.004
0.097
0.053
0.016
-0.004
0.122
0.008
0.022
-0.052
-0.013
0.286
0.225
-0.139
-0.379
-0.291
0.030
0.313
0.242
0.160
0.012
-0.166
-0.110
-0.045
-0.088
0.017
0.072
0.047
0.037
0.000
0.073
0.113
0.023
0.036
-0.004
-0.130
0.107
0.087
0.019
-0.052
-0.062
0.117
-0.072
0.041
0.000
0.097
0.024
0.057
0.102
-0.004
-0.044
-0.034
0.018
-0.014
-0.019
0.085
0.040
-0.014
-0.054
-0.005
-0.073
0.141
0.029
0.046
-0.035
-0.020
-0.021
0.040
0.004
0.026
0.077
0.147
0.009
0.007
-0.015
0.038
-0.012
0.017
0.001
0.006
0.011
0.044
0.027
0.061
0.015
0.055
-0.083
-0.004
-0.012
0.058
0.109
0.036
-0.029
-0.097
0.056
0.062
0.038
-0.045
0.055
-0.043
0.038
0.058
0.078
-0.005
0.008
-0.097
0.038
0.141
0.053
-0.003
0.064
-0.039
0.098
0.117
0.025
-0.026
-0.021
0.054
0.090
0.074
-0.059
-0.061
0.106
0.081
0.064
-0.028
0.046
0.027
-0.078
-0.052
0.026
0.056
0.017
-0.088
0.033
0.013
0.101
0.057
0.048
-0.083
0.124
0.334
-0.038
-0.370
-0.382
0.009
0.237
0.276
0.187
0.063
-0.120
-0.106
-0.010
-0.022
0.022
0.123
0.012
0.106
-0.038
0.058
0.061
0.074
0.034
-0.022
0.048
0.128
0.014
0.018
-0.050
0.021
-0.015
0.019
0.013
-0.040
-0.056
0.127
-0.007
0.070
-0.032
-0.064
0.008
0.129
-0.004
-0.020
-0.111
-0.057
0.047
0.129
0.095
0.105
0.005
-0.069
-0.068
-0.050
0.038
0.022
0.029
0.019
0.159
-0.014
0.107
-0.031
-0.047
-0.008
-0.071
0.012
0.084
0.067
-0.046
-0.043
0.002
0.142
-0.033
0.015
0.023
0.004
0.034
-0.033
-0.047
0.033
0.029
0.013
0.034
0.078
0.085
0.013
-0.060
0.003
0.021
0.044
0.061
0.065
-0.116
-0.015
-0.010
0.043
0.027
0.088
0.092
-0.116
0.031
0.056
0.058
0.034
0.043
0.032
0.004
-0.019
-0.039
-0.025
0.027
0.145
0.042
-0.071
0.044
-0.038
0.003
0.009
0.092
0.258
0.141
-0.378
-0.413
0.017
0.159
0.276
0.158
0.071
-0.077
-0.026
-0.051
0.076
0.046
-0.107
0.101
0.084
0.067
0.120
0.133
0.032
0.032
0.016
-0.077
-0.114
0.030
0.021
0.029
0.061
-0.013
0.033
-0.125
0.035
0.068
0.111
0.066
-0.006
-0.079
-0.086
0.115
0.058
-0.036
-0.007
0.001
-0.079
0.022
0.018
0.045
0.113
0.037
-0.078
-0.037
-0.019
0.027
-0.035
0.065
0.171
0.011
0.034
0.025
-0.024
-0.174
0.030
0.111
0.103
0.097
0.003
-0.012
-0.070
-0.004
0.030
0.021
0.000
0.043
-0.080
0.007
0.014
0.007
-0.006
0.062
0.066
0.125
0.026
-0.038
-0.138
0.048
0.046
0.014
0.124
0.056
-0.079
0.077
-0.010
0.037
0.039
-0.038
-0.024
0.062
0.048
-0.034
-0.039
0.007
0.114
-0.024
0.055
0.076
-0.007
-0.028
-0.016
0.050
-0.055
0.092
0.030
-0.012
-0.104
0.144
-0.071
-0.042
0.074
0.004
0.036
0.065
0.041
0.225
0.175
-0.147
-0.364
-0.232
0.066
0.242
0.380
0.143
-0.046
-0.112
-0.069
-0.029
-0.025
0.039
0.088
-0.018
0.062
0.138
0.102
-0.122
-0.053
0.119
-0.018
0.086
-0.003
-0.070
-0.056
0.067
0.002
0.016
-0.001
0.013
0.024
0.062
-0.153
-0.043
0.049
0.034
0.052
0.071
0.002
0.062
-0.027
0.018
-0.011
0.018
-0.076
0.020
0.155
-0.015
0.012
-0.003
0.010
0.085
0.077
0.009
-0.115
-0.192
0.048
0.061
0.078
0.062
-0.053
0.063
-0.039
-0.037
0.023
0.061
-0.041
-0.081
0.043
-0.028
0.079
0.096
0.025
0.091
-0.026
0.012
0.100
-0.041
0.043
0.061
0.036
-0.025
-0.076
-0.048
0.029
0.065
0.037
0.020
0.007
-0.024
0.004
0.088
-0.025
-0.084
0.081
-0.001
0.091
-0.055
-0.109
-0.038
0.110
0.196
0.067
-0.065
-0.049
0.069
0.085
0.376
0.138
-0.235
-0.524
-0.176
0.120
0.262
0.230
0.062
0.045
-0.091
-0.049
-0.135
0.008
0.006
0.038
0.101
0.138
0.134
0.077
-0.052
0.011
0.034
-0.025
0.034
0.082
-0.033
0.002
0.086
-0.022
0.102
0.014
-0.026
0.023
-0.011
-0.041
0.058
0.112
-0.031
0.099
0.021
-0.031
0.054
0.016
0.063
0.031
0.123
0.049
-0.113
0.015
-0.024
-0.003
0.115
-0.036
0.048
-0.011
0.062
0.155
-0.027
-0.082
-0.056
-0.033
0.065
0.084
0.117
0.086
-0.023
-0.025
0.019
-0.025
-0.085
0.169
0.173
0.000
-0.033
-0.109
0.028
0.032
-0.018
0.030
0.073
0.017
-0.012
-0.019
-0.034
0.079
0.121
0.049
-0.076
0.009
0.060
0.071
-0.038
-0.022
0.060
0.113
0.029
0.044
0.040
-0.084
-0.026
0.066
0.115
0.120
0.043
-0.028
-0.048
-0.024
0.011
0.077
-0.016
0.086
0.046
-0.015
-0.015
-0.044
0.057
-0.100
0.091
0.150
0.036
0.005
-0.005
0.088
0.004
-0.105
0.281
0.288
-0.208
-0.453
-0.275
0.053
0.337
0.264
0.197
0.076
-0.029
-0.220
-0.145
-0.008
0.079
0.048
0.202
0.113
-0.003
0.068
-0.002
0.045
0.010
0.043
-0.047
0.054
0.024
-0.027
0.008
-0.037
-0.010
-0.095
0.051
0.084
-0.005
0.035
0.015
0.045
0.112
0.044
-0.049
0.001
-0.057
0.060
-0.019
0.000
0.033
0.024
0.088
0.144
-0.016
0.070
0.038
0.081
-0.009
-0.098
-0.017
-0.072
0.146
0.029
0.029
-0.008
0.021
0.100
-0.015
-0.050
-0.043
0.082
0.029
0.064
-0.033
-0.020
0.054
-0.006
-0.011
0.005
0.031
-0.062
0.073
0.057
-0.045
0.103
0.047
-0.049
0.093
-0.050
0.035
0.065
0.056
0.016
0.041
0.095
-0.079
-0.020
-0.025
0.132
0.190
0.015
-0.104
-0.083
0.064
0.044
0.010
0.032
-0.016
-0.015
0.071
0.128
-0.050
-0.024
0.094
0.007
-0.020
-0.023
0.047
0.072
0.075
0.024
0.002
0.016
0.092
0.078
0.087
0.048
0.050
0.156
0.376
-0.047
-0.427
-0.326
-0.091
0.135
0.263
0.226
0.030
0.040
-0.090
-0.125
-0.046
0.060
0.052
0.101
-0.055
-0.004
0.027
0.061
0.091
0.073
0.099
0.044
-0.035
-0.111
-0.090
0.055
0.118
-0.029
-0.091
0.075
0.104
0.054
-0.090
0.025
0.015
-0.081
-0.004
0.083
0.052
0.077
0.092
-0.020
0.003
0.024
0.013
0.062
0.068
-0.028
-0.056
-0.002
-0.005
0.029
0.013
0.090
0.037
0.079
0.051
-0.126
0.015
0.039
0.013
0.042
0.018
0.005
0.122
-0.010
-0.054
0.143
-0.037
-0.026
-0.034
0.000
0.088
-0.047
-0.015
-0.007
0.018
-0.030
0.060
-0.025
-0.018
0.004
0.026
-0.018
0.149
-0.032
0.003
-0.005
0.175
0.010
-0.025
0.031
0.048
0.040
-0.002
-0.070
-0.057
0.105
0.077
0.004
0.049
-0.024
0.020
-0.011
0.089
0.133
-0.035
-0.117
-0.047
0.079
0.014
-0.020
0.108
0.089
0.008
-0.061
0.013
-0.012
0.008
-0.008
-0.032
0.107
0.196
0.348
0.120
-0.319
-0.546
-0.293
0.219
0.429
0.201
0.179
-0.072
-0.100
-0.118
-0.006
-0.007
-0.014
0.039
-0.041
0.083
0.137
0.160
0.034
-0.078
-0.037
0.001
-0.008
-0.017
0.138
0.073
-0.029
0.004
-0.043
-0.013
0.054
0.068
-0.090
-0.044
0.023
0.058
-0.031
0.066
-0.023
0.070
-0.038
0.004
0.052
0.105
0.009
-0.078
-0.127
0.048
0.069
0.082
0.071
0.145
0.005
-0.078
-0.040
0.008
0.067
0.125
0.066
0.005
0.006
0.050
0.140
-0.026
-0.034
-0.026
0.056
-0.043
0.016
0.009
0.036
0.032
0.016
0.110
-0.005
-0.063
-0.032
0.040
-0.043
0.078
0.159
0.140
-0.088
-0.106
-0.019
0.071
0.108
-0.010
-0.024
-0.089
0.036
0.069
-0.003
-0.074
0.025
0.023
0.057
-0.028
-0.009
-0.011
0.083
0.117
-0.082
0.047
-0.016
0.047
0.058
0.030
-0.019
-0.001
0.142
0.017
-0.054
-0.014
0.046
-0.018
0.043
0.062
0.061
-0.010
0.051
0.030
0.042
-0.043
0.051
-0.023
-0.007
0.033
0.031
-0.057
-0.033
-0.025
0.042
0.004
0.079
0.016
-0.075
-0.018
-0.024
-0.056
0.145
0.245
0.389
-0.124
-0.465
-0.346
-0.051
0.286
0.298
0.238
-0.056
-0.018
-0.129
-0.020
-0.125
0.030
-0.011
0.063
0.033
0.104
0.148
-0.054
-0.031
0.096
-0.041
0.075
0.006
0.007
0.044
0.003
-0.058
0.044
0.029
0.067
0.104
0.048
-0.063
0.022
-0.159
0.090
0.011
-0.034
0.066
0.024
0.055
0.069
0.028
0.046
0.041
-0.027
-0.001
0.055
-0.002
-0.080
-0.047
0.035
0.072
0.007
0.053
0.004
-0.028
-0.022
0.031
-0.014
-0.002
-0.011
-0.021
0.080
0.158
0.024
-0.039
0.023
-0.028
-0.052
-0.024
0.023
0.172
-0.006
0.045
0.093
-0.116
-0.002
0.122
-0.024
-0.050
0.084
-0.022
-0.021
0.037
-0.051
0.144
0.000
0.034
-0.088
0.031
-0.060
-0.031
0.118
0.070
0.154
0.040
-0.051
-0.079
0.065
0.113
-0.129
-0.098
0.078
0.043
0.017
-0.002
0.023
0.092
-0.040
-0.064
0.006
-0.004
0.108
0.006
-0.025
-0.047
0.022
0.095
0.142
0.103
0.011
-0.159
-0.070
-0.008
0.001
0.074
0.133
0.053
-0.016
0.056
0.022
-0.040
0.086
-0.041
0.002
0.016
0.066
-0.016
0.003
0.108
-0.086
0.120
0.044
0.126
0.368
-0.072
-0.223
-0.283
-0.076
0.010
0.189
0.194
0.042
-0.083
-0.113
0.043
0.011
-0.112
0.021
0.059
0.065
-0.002
0.018
0.102
0.022
0.035
-0.056
0.062
0.039
0.021
0.003
-0.085
0.002
0.038
0.019
0.050
-0.044
0.007
0.031
0.033
-0.023
0.008
0.013
0.005
0.067
0.102
0.042
0.013
-0.052
0.004
-0.095
0.070
0.098
0.048
0.003
-0.000
-0.023
0.028
0.022
-0.029
0.088
0.025
0.011
0.029
-0.109
0.069
-0.022
0.076
0.150
0.000
0.075
0.108
0.034
-0.116
-0.010
0.020
0.056
0.068
-0.031
-0.076
0.049
0.079
-0.052
-0.063
0.053
0.039
0.023
0.089
0.030
0.050
0.033
-0.035
-0.040
0.070
0.095
-0.046
0.106
0.050
-0.067
-0.071
-0.001
0.028
-0.004
0.051
0.067
0.040
0.114
0.025
0.112
-0.029
-0.019
0.020
0.021
-0.007
0.103
0.086
0.034
0.043
-0.114
0.101
0.059
-0.010
-0.078
-0.034
0.050
0.140
0.063
0.107
-0.007
0.009
0.054
0.042
-0.092
0.015
0.034
0.020
-0.044
0.019
0.000
-0.017
0.053
0.023
0.003
0.088
-0.039
0.026
-0.012
0.030
-0.028
0.031
0.055
0.086
0.014
-0.029
-0.059
0.110
0.031
0.024
0.023
-0.021
-0.013
-0.025
0.131
0.046
-0.008
-0.015
0.077
0.001
0.105
0.108
0.324
0.059
-0.305
-0.366
-0.113
0.159
0.232
0.203
0.019
-0.009
-0.060
-0.001
-0.101
-0.006
-0.062
-0.004
0.054
0.105
0.098
-0.008
0.139
0.172
0.121
-0.033
-0.046
0.026
-0.030
-0.090
0.073
0.084
0.022
0.032
0.001
-0.052
-0.023
0.090
-0.055
-0.020
0.018
0.080
-0.019
0.055
-0.044
0.040
-0.033
0.021
0.037
0.069
0.033
0.020
0.090
0.015
-0.006
0.105
-0.045
0.052
0.011
-0.074
0.039
-0.024
0.057
0.068
0.085
0.108
-0.120
-0.022
0.130
0.015
-0.024
0.150
0.070
-0.044
0.006
0.077
0.048
-0.039
-0.050
0.070
0.033
0.033
0.016
-0.043
0.044
-0.079
0.007
0.068
0.098
0.001
0.037
0.080
0.128
-0.008
-0.089
-0.086
-0.016
0.042
0.127
0.052
0.055
0.101
0.092
-0.082
-0.025
-0.043
0.008
0.096
0.066
0.163
0.014
-0.074
0.037
0.042
0.027
0.020
0.020
0.117
0.071
-0.084
-0.033
0.033
0.050
0.024
0.010
-0.038
0.043
0.043
-0.049
-0.070
0.202
0.345
-0.049
-0.313
-0.395
-0.005
0.240
0.252
0.243
0.165
-0.087
-0.006
-0.086
-0.065
0.037
-0.004
0.032
0.108
0.106
-0.025
-0.034
0.072
0.105
-0.028
0.087
-0.016
-0.105
-0.065
0.028
0.003
0.067
0.109
0.063
-0.005
0.065
0.029
-0.012
-0.025
-0.009
0.112
0.044
0.009
-0.062
0.152
0.030
-0.030
-0.101
0.002
0.046
0.081
0.050
0.033
0.010
0.050
-0.050
0.012
0.052
-0.046
0.060
0.028
0.067
-0.052
0.033
0.092
-0.019
0.017
0.050
0.086
0.033
-0.006
0.048
0.098
0.056
-0.004
-0.068
-0.047
0.076
0.082
0.044
0.006
-0.040
0.048
0.125
-0.032
-0.019
0.090
-0.057
-0.006
0.091
0.097
0.002
-0.017
0.031
0.007
0.118
-0.027
-0.007
0.036
0.002
0.123
0.008
0.021
0.054
-0.035
0.007
0.058
0.067
0.047
0.041
0.039
0.074
-0.040
-0.113
0.010
-0.031
-0.029
0.023
0.103
0.055
0.020
-0.019
-0.072
-0.035
0.007
-0.004
-0.007
0.065
0.126
0.097
0.034
-0.000
-0.097
0.079
0.094
0.073
0.034
0.108
-0.136
-0.022
0.038
0.072
0.019
0.075
0.045
-0.110
-0.035
0.335
0.167
-0.314
-0.392
-0.216
0.085
0.321
0.429
0.127
-0.099
-0.109
-0.195
-0.070
0.033
-0.000
0.086
0.024
0.041
0.049
0.112
-0.022
0.015
-0.044
-0.048
0.035
0.106
-0.027
-0.014
0.020
-0.024
-0.001
0.048
0.076
0.040
0.010
0.038
0.067
-0.119
-0.015
-0.011
0.030
0.057
0.090
0.026
0.054
0.083
-0.060
-0.077
0.019
0.052
0.025
0.060
0.094
-0.114
0.129
-0.027
0.034
-0.074
-0.006
0.075
0.148
0.016
-0.044
-0.065
0.022
0.110
-0.010
-0.027
-0.100
-0.092
0.074
0.124
0.048
-0.007
0.001
-0.012
0.033
-0.027
0.012
-0.052
0.039
0.117
0.025
-0.033
0.030
0.070
0.104
0.006
0.059
-0.037
-0.077
-0.008
0.060
0.027
-0.071
-0.058
0.057
0.009
0.035
0.035
0.099
0.026
0.026
-0.037
-0.005
-0.019
-0.040
0.034
-0.043
0.117
0.017
-0.032
-0.001
-0.005
-0.059
0.075
-0.003
-0.043
-0.060
0.029
-0.025
0.065
0.131
0.160
0.271
-0.108
-0.425
-0.286
0.036
0.296
0.245
0.093
0.056
-0.014
-0.166
-0.055
-0.018
-0.030
-0.032
0.054
0.150
0.090
0.017
0.081
0.031
0.025
0.131
0.004
-0.095
-0.135
0.002
-0.032
-0.049
-0.124
0.071
0.090
-0.005
-0.004
-0.018
0.014
0.012
0.095
-0.002
0.011
-0.008
0.034
-0.016
0.048
0.002
0.105
-0.058
0.138
0.053
-0.094
0.104
0.119
0.007
0.083
0.052
-0.034
-0.133
0.009
0.027
0.087
0.046
0.002
0.089
0.063
0.063
-0.036
0.032
0.016
-0.000
-0.035
0.057
-0.040
0.015
0.010
0.055
0.000
-0.054
0.052
0.075
0.034
0.090
0.023
0.108
0.022
0.053
0.000
-0.174
-0.060
0.133
0.074
0.120
-0.028
-0.015
0.092
0.007
-0.034
-0.028
0.046
0.008
-0.015
0.181
-0.016
0.004
0.025
0.002
-0.005
0.125
0.090
0.310
0.248
-0.170
-0.371
-0.333
0.018
0.252
0.342
0.125
-0.057
-0.071
-0.040
-0.064
0.027
-0.054
-0.046
0.104
0.061
0.062
-0.030
-0.016
0.130
0.125
0.145
-0.062
-0.144
-0.045
0.016
0.026
0.039
0.005
0.004
0.066
-0.047
0.019
0.060
0.146
-0.076
-0.071
-0.003
-0.059
0.096
0.082
0.012
-0.076
-0.076
-0.006
0.103
0.079
0.020
-0.049
-0.005
0.047
0.083
0.092
-0.014
-0.032
0.036
0.015
-0.072
0.005
-0.005
0.056
0.054
-0.027
0.073
-0.111
-0.065
0.024
0.098
0.034
-0.005
0.052
0.050
-0.015
0.067
0.122
-0.012
0.005
-0.030
-0.099
0.080
0.050
0.084
0.051
-0.040
0.050
-0.075
-0.014
-0.055
0.111
0.096
0.027
0.072
-0.050
-0.007
-0.056
-0.045
0.140
0.129
0.016
0.005
-0.020
0.000
-0.016
-0.006
-0.002
0.045
0.044
-0.008
-0.038
0.049
0.043
-0.062
0.017
0.015
0.030
0.076
0.044
0.081
0.041
-0.063
0.029
-0.017
0.063
-0.041
0.116
-0.056
0.066
0.096
0.166
0.226
-0.106
-0.261
-0.275
-0.151
0.112
0.267
0.210
0.002
-0.029
-0.084
-0.062
0.006
0.021
0.017
0.046
0.040
-0.015
0.135
0.116
0.110
0.003
-0.014
-0.087
-0.043
0.050
0.030
-0.090
-0.016
-0.003
-0.049
0.059
0.081
0.082
0.024
-0.037
-0.062
0.014
0.046
-0.074
-0.009
0.079
0.086
0.102
-0.006
0.021
0.042
-0.107
-0.116
-0.045
0.112
0.010
0.058
0.044
0.086
0.064
-0.120
-0.026
0.047
0.172
0.025
-0.015
0.052
-0.093
-0.007
0.016
-0.010
0.222
0.149
-0.003
-0.026
-0.106
-0.071
0.066
0.166
-0.051
0.062
-0.007
0.062
0.028
-0.047
-0.021
-0.048
-0.005
0.095
-0.016
0.031
-0.097
0.030
0.067
-0.016
0.092
0.097
0.008
0.030
-0.025
0.058
0.084
0.012
-0.076
0.018
0.038
-0.021
0.040
0.063
-0.004
0.029
0.090
-0.002
-0.020
-0.032
0.073
-0.016
-0.037
0.034
0.080
0.282
0.264
-0.235
-0.365
-0.285
-0.018
0.329
0.295
0.006
-0.074
-0.076
-0.024
-0.043
-0.034
0.046
0.085
-0.033
0.168
0.249
0.050
0.048
-0.035
0.061
-0.007
-0.059
0.006
-0.072
-0.017
0.066
0.048
0.058
-0.008
-0.036
-0.072
-0.069
0.047
0.030
0.043
-0.045
-0.001
0.025
0.067
0.092
0.069
-0.084
-0.099
-0.045
0.082
0.017
0.103
0.102
-0.076
-0.049
0.025
0.045
0.074
0.018
0.026
0.137
-0.015
-0.090
0.015
0.083
0.053
0.015
0.061
-0.001
-0.089
-0.007
0.029
0.096
0.094
0.031
-0.138
0.007
-0.029
0.018
0.123
0.197
-0.031
-0.067
0.042
-0.055
0.012
-0.000
-0.017
-0.015
-0.029
0.129
0.078
0.045
-0.020
-0.034
0.055
0.022
0.009
-0.056
0.140
-0.042
0.068
0.039
0.029
0.063
-0.074
0.010
0.091
0.020
-0.017
-0.002
-0.023
0.067
-0.013
0.015
0.093
0.010
0.071
-0.010
-0.041
0.043
-0.010
0.026
0.072
0.002
0.020
0.003
0.036
0.007
-0.029
0.083
0.355
0.202
-0.214
-0.447
-0.216
0.028
0.245
0.350
0.271
0.038
-0.200
-0.094
-0.024
-0.026
-0.015
-0.026
0.209
0.089
0.046
0.113
0.005
0.056
0.101
0.011
-0.003
-0.122
-0.101
-0.020
0.010
0.097
0.001
0.010
0.074
0.091
0.048
-0.012
-0.002
-0.034
0.078
0.079
0.159
-0.054
-0.044
0.087
0.124
0.015
-0.028
-0.013
-0.023
0.072
0.128
-0.045
-0.045
0.000
0.072
-0.040
0.046
0.110
0.078
0.065
0.068
-0.116
-0.025
-0.006
0.058
0.029
0.047
0.058
-0.012
0.012
0.065
0.025
-0.049
0.096
0.056
-0.103
-0.039
0.004
0.133
0.026
-0.001
0.008
0.068
0.050
-0.019
-0.072
-0.037
0.072
0.068
0.006
0.082
-0.043
-0.023
-0.069
0.074
0.089
0.054
0.049
-0.194
0.080
-0.105
0.086
0.064
0.024
-0.001
-0.024
0.120
0.069
0.030
-0.064
0.026
0.048
-0.042
0.002
-0.023
0.069
-0.031
-0.027
0.071
0.178
0.017
-0.068
0.052
-0.008
-0.024
0.369
0.131
-0.197
-0.503
-0.284
-0.095
0.356
0.330
0.090
-0.004
-0.174
-0.176
-0.117
0.078
0.128
0.043
0.059
0.027
0.002
0.076
0.073
0.117
0.070
0.046
0.033
0.015
-0.054
0.077
0.012
-0.035
-0.052
0.087
0.036
0.016
0.064
0.010
0.067
0.060
0.019
0.034
-0.041
0.049
0.003
0.022
0.034
-0.070
0.060
0.059
-0.064
0.006
0.049
-0.004
-0.030
-0.084
0.119
0.002
0.015
-0.047
0.044
0.177
0.020
0.103
-0.042
-0.056
0.028
0.158
0.015
-0.035
-0.060
0.035
0.094
-0.015
0.083
-0.008
0.041
-0.014
-0.060
-0.054
-0.161
0.124
0.091
0.119
-0.010
0.005
0.035
0.034
-0.063
0.003
0.041
0.080
-0.004
0.038
0.060
-0.020
-0.001
-0.037
0.027
0.057
-0.018
0.066
0.086
-0.048
-0.065
0.034
-0.079
0.026
0.087
0.081
-0.047
-0.014
0.019
-0.000
-0.046
0.056
-0.063
0.068
0.086
-0.047
-0.076
0.010
0.101
-0.036
0.040
-0.046
-0.000
-0.070
0.048
0.335
0.256
-0.142
-0.435
-0.371
0.075
0.284
0.251
0.133
0.020
-0.073
-0.013
-0.141
-0.075
0.034
0.045
0.027
0.035
0.175
0.154
0.033
-0.010
-0.092
-0.044
0.030
0.016
0.010
0.021
-0.064
0.016
0.043
0.032
0.090
-0.077
-0.013
-0.050
0.044
0.016
0.003
-0.028
0.055
0.120
0.053
0.078
-0.105
0.054
0.020
0.009
0.062
0.044
-0.119
0.014
0.124
0.025
0.034
0.023
-0.087
-0.091
0.107
0.052
0.092
-0.001
-0.030
0.017
0.000
0.048
-0.070
0.003
0.024
0.038
0.090
0.032
-0.033
0.073
-0.049
0.016
0.183
0.022
-0.043
-0.045
-0.055
0.034
0.081
0.102
-0.036
-0.021
-0.006
0.006
0.118
0.038
-0.030
-0.033
-0.101
0.080
0.144
0.147
-0.113
-0.072
0.067
-0.096
0.024
-0.009
0.034
-0.021
0.048
0.073
-0.023
-0.003
-0.108
0.043
-0.025
0.033
0.079
0.020
0.040
0.000
0.105
0.056
0.031
-0.008
-0.011
0.032
-0.013
-0.032
0.095
0.041
0.033
0.001
0.007
0.039
-0.021
-0.030
0.045
-0.023
0.060
-0.006
-0.068
0.046
0.147
0.170
0.129
-0.278
-0.410
-0.176
0.105
0.313
0.169
0.041
-0.071
-0.077
0.020
0.009
-0.075
0.034
0.080
-0.007
0.059
0.087
0.005
0.018
0.002
0.037
0.066
0.017
-0.084
-0.049
0.045
-0.022
0.005
-0.004
0.016
0.052
0.209
0.011
-0.096
0.026
-0.009
-0.065
0.012
0.102
0.068
-0.034
-0.032
0.108
-0.068
0.082
-0.002
-0.021
0.029
-0.019
-0.008
0.074
0.042
-0.043
-0.025
0.061
-0.030
-0.014
-0.005
0.001
0.032
-0.061
0.074
0.030
0.056
0.045
-0.010
0.004
0.050
0.034
-0.034
-0.013
-0.043
0.119
0.030
-0.012
0.000
0.015
0.022
0.021
0.009
-0.045
0.069
-0.006
-0.013
0.046
0.064
-0.053
-0.034
0.020
0.043
0.012
-0.000
0.106
-0.044
-0.023
0.012
-0.010
-0.031
-0.046
0.106
0.036
0.131
-0.024
-0.108
0.091
0.002
0.089
0.022
-0.037
-0.049
0.123
0.144
0.114
0.047
-0.036
-0.115
0.034
0.156
0.094
0.023
-0.029
0.041
0.039
0.001
-0.090
-0.058
0.067
0.092
0.020
-0.027
-0.028
-0.013
0.027
0.066
0.086
0.146
-0.036
0.182
0.270
-0.220
-0.322
-0.404
-0.016
0.339
0.388
0.220
0.024
-0.123
-0.074
-0.082
-0.059
-0.044
0.055
0.031
0.061
0.149
0.131
0.076
0.032
0.008
0.003
-0.013
0.043
0.007
-0.020
0.054
-0.052
0.079
0.055
-0.061
-0.072
0.050
0.092
0.137
-0.019
0.040
0.030
0.038
0.003
0.005
0.006
-0.070
-0.010
0.132
0.051
-0.122
-0.045
0.086
0.094
0.014
-0.055
-0.048
-0.078
0.177
0.060
-0.001
-0.003
0.024
-0.067
-0.014
0.017
0.102
0.090
-0.059
0.057
-0.072
-0.041
-0.051
0.001
-0.022
0.017
-0.078
0.123
0.073
0.023
-0.037
-0.034
-0.065
0.196
0.137
0.040
-0.008
-0.081
-0.061
0.021
0.074
0.072
0.033
-0.039
-0.026
-0.001
-0.007
0.016
0.090
0.020
0.045
0.047
-0.037
0.037
0.022
-0.004
0.011
-0.070
0.008
-0.034
0.040
0.050
0.089
-0.025
-0.058
0.073
0.027
-0.047
-0.040
0.063
-0.018
-0.043
-0.011
0.050
0.058
0.036
0.164
-0.067
-0.103
-0.002
0.023
0.347
0.192
-0.221
-0.330
-0.365
0.015
0.319
0.343
0.198
-0.007
-0.150
-0.084
0.007
-0.035
0.018
-0.018
0.054
-0.031
0.144
0.013
0.062
0.058
0.073
-0.030
-0.069
-0.111
0.036
0.013
-0.028
0.013
0.034
0.092
0.055
-0.160
0.002
0.042
-0.014
-0.003
0.125
0.092
0.060
-0.064
-0.113
-0.024
0.064
0.103
0.051
-0.044
-0.032
-0.069
0.076
0.026
0.058
0.014
0.057
0.121
0.031
-0.068
-0.090
-0.064
0.074
0.016
0.106
-0.074
-0.016
0.132
0.098
-0.011
-0.087
-0.037
-0.100
0.113
-0.033
0.081
0.004
0.088
-0.030
-0.002
-0.003
-0.135
-0.007
0.150
0.053
-0.062
-0.019
-0.018
0.052
0.075
0.110
0.105
0.097
-0.039
-0.013
-0.003
0.003
0.037
-0.062
0.032
-0.010
0.049
-0.018
-0.056
0.055
0.045
0.050
0.032
-0.141
0.009
0.039
0.037
0.111
0.057
0.099
-0.014
-0.024
0.003
-0.073
0.013
0.046
0.070
0.024
-0.020
0.042
0.039
0.053
0.034
-0.038
-0.013
-0.045
-0.059
0.014
0.061
0.050
0.216
0.344
0.103
-0.338
-0.460
-0.114
0.137
0.276
0.230
0.098
-0.017
-0.013
-0.112
-0.036
0.056
0.022
0.023
0.042
0.051
0.059
0.100
0.198
0.110
-0.184
-0.030
0.023
0.049
-0.076
-0.034
0.004
0.077
0.061
0.001
0.031
-0.002
0.106
0.058
-0.016
0.037
0.107
-0.051
-0.045
-0.044
0.048
0.009
-0.046
0.037
0.035
0.130
-0.002
0.169
0.058
-0.115
-0.022
-0.075
0.026
0.068
0.050
0.054
0.101
0.021
-0.011
0.042
-0.026
-0.029
0.078
-0.027
0.040
0.026
0.080
0.035
-0.048
0.034
0.141
0.024
-0.044
0.038
0.068
-0.014
-0.001
0.040
0.077
0.016
-0.028
-0.024
-0.006
0.026
-0.010
0.005
0.001
0.015
0.063
-0.081
0.032
0.006
0.105
-0.009
0.050
0.014
-0.108
-0.048
0.116
0.171
-0.038
-0.014
0.043
-0.090
0.064
0.005
0.067
-0.006
0.032
0.042
0.015
0.009
0.023
0.009
0.037
-0.019
0.067
-0.024
0.012
-0.051
0.078
0.023
0.056
0.050
0.024
0.063
0.052
0.356
0.055
-0.288
-0.466
-0.114
0.248
0.306
0.134
0.053
0.011
-0.052
-0.030
-0.065
-0.046
0.050
-0.045
-0.043
-0.012
0.064
0.122
0.150
0.156
0.167
-0.017
-0.168
-0.057
-0.163
0.073
0.069
-0.019
0.088
0.017
-0.022
-0.011
-0.077
0.032
-0.012
0.043
0.094
0.084
-0.044
-0.060
0.091
0.071
0.038
0.017
-0.002
0.058
-0.043
0.040
0.001
0.056
0.055
-0.043
-0.042
0.059
0.103
0.081
-0.082
0.053
-0.115
-0.024
0.049
0.052
0.092
0.086
0.002
0.065
-0.000
-0.056
-0.021
0.034
0.004
0.046
0.052
-0.065
0.022
0.076
0.007
-0.055
-0.074
0.017
0.024
0.080
0.015
0.088
-0.001
-0.068
-0.004
0.053
0.000
-0.010
0.093
0.102
-0.076
0.103
0.094
-0.092
-0.046
0.084
0.060
0.071
0.013
0.109
-0.024
0.012
0.033
-0.005
-0.009
-0.017
0.083
-0.001
0.000
0.037
0.097
-0.043
0.020
0.037
0.080
0.025
-0.036
-0.018
0.001
0.006
0.121
0.444
0.141
-0.195
-0.480
-0.251
0.089
0.275
0.184
0.071
0.009
-0.093
0.193
0.003
0.052
-0.091
-0.052
-0.012
0.093
0.108
0.320
0.034
-0.032
-0.061
-0.074
0.029
-0.002
0.031
-0.029
-0.011
-0.038
-0.005
0.065
0.088
0.066
0.043
-0.076
0.055
0.026
-0.019
0.043
0.023
0.010
-0.004
0.020
-0.004
0.003
0.088
-0.103
-0.091
0.125
0.065
0.001
0.001
0.096
0.007
0.108
0.075
0.011
-0.074
-0.114
0.063
0.004
0.077
-0.063
-0.023
0.057
0.010
0.060
-0.036
0.042
-0.062
0.092
0.024
0.069
0.000
0.054
0.029
0.045
-0.106
0.059
-0.006
0.037
0.049
-0.015
0.015
-0.067
-0.013
-0.033
-0.007
0.066
0.006
-0.084
0.036
0.078
0.099
-0.082
0.001
-0.005
-0.061
0.034
0.039
0.059
0.084
0.020
0.052
-0.055
-0.009
-0.010
0.040
0.059
-0.000
0.031
-0.014
-0.028
0.001
0.115
0.047
-0.008
-0.009
-0.012
0.098
0.076
0.054
-0.037
-0.157
0.014
0.014
-0.051
0.161
0.023
-0.020
-0.076
0.127
0.335
0.231
-0.315
-0.471
-0.290
0.041
0.374
0.265
0.185
-0.055
-0.081
-0.076
-0.037
0.093
0.078
0.074
0.061
-0.043
-0.002
-0.016
0.046
0.085
0.164
0.075
0.036
-0.068
-0.135
-0.036
-0.006
-0.062
-0.053
0.133
0.071
0.069
0.044
-0.026
0.099
-0.008
-0.061
0.016
-0.012
0.003
0.015
0.025
0.043
0.107
0.128
0.035
0.114
-0.038
-0.096
0.017
0.050
0.128
0.035
0.005
0.131
0.006
0.149
-0.007
-0.075
-0.059
0.013
-0.020
0.104
-0.017
0.015
0.024
0.042
-0.045
-0.008
0.048
-0.036
0.015
-0.074
-0.021
-0.027
0.100
0.033
0.085
-0.001
-0.005
0.039
0.007
0.057
0.065
0.123
-0.109
-0.051
0.026
0.057
0.089
-0.054
0.038
-0.054
0.044
0.051
0.045
0.038
0.075
-0.054
-0.078
0.035
0.093
0.243
0.009
-0.052
-0.067
-0.109
0.041
0.181
-0.028
0.066
-0.061
-0.058
-0.009
-0.015
0.002
0.108
0.011
-0.017
-0.099
0.073
-0.004
-0.041
0.092
0.103
0.011
-0.044
0.023
0.036
0.033
0.018
0.105
0.037
-0.030
-0.077
-0.045
0.116
0.105
-0.010
0.077
0.337
-0.001
-0.304
-0.462
-0.190
0.127
0.385
0.329
0.072
-0.105
-0.151
-0.105
0.103
0.025
-0.039
0.065
0.099
0.103
0.011
0.079
-0.041
0.106
0.026
0.100
0.025
-0.051
-0.065
-0.003
-0.016
0.120
0.014
0.028
-0.049
0.024
0.028
0.066
-0.003
0.095
-0.025
-0.114
-0.089
-0.011
0.045
0.087
0.018
0.075
-0.008
-0.019
-0.098
0.052
0.028
0.151
0.067
-0.034
-0.038
0.056
-0.059
0.011
0.026
0.005
0.023
-0.063
-0.006
-0.035
-0.020
-0.008
0.094
0.109
0.046
0.022
0.046
0.017
-0.039
0.076
-0.049
0.142
0.096
-0.021
0.089
0.075
0.038
-0.044
-0.095
-0.089
0.007
0.187
0.062
-0.082
-0.062
0.009
0.022
0.147
0.072
-0.076
-0.054
-0.022
-0.050
0.029
0.096
0.006
0.038
-0.010
0.086
0.004
0.034
0.036
-0.046
0.080
0.010
0.011
0.059
0.058
0.047
0.016
0.001
-0.008
0.044
0.042
0.072
-0.051
0.027
0.018
0.085
-0.088
0.053
0.051
0.041
0.096
0.066
0.086
0.079
0.145
0.011
-0.255
-0.304
-0.097
0.114
0.380
0.218
0.091
-0.086
-0.137
-0.113
-0.068
-0.007
-0.029
0.073
0.107
0.125
0.082
0.043
-0.005
-0.051
-0.032
0.075
0.044
0.049
-0.046
-0.076
0.036
0.128
0.035
-0.017
-0.058
-0.027
0.120
0.086
-0.004
-0.028
0.041
0.017
-0.082
-0.034
0.107
-0.027
0.094
0.030
-0.000
-0.037
0.067
0.039
-0.008
-0.054
-0.044
0.040
0.036
-0.094
0.000
0.063
0.092
0.030
0.068
-0.077
-0.085
0.092
0.037
-0.064
0.056
0.022
-0.011
0.026
0.175
0.067
0.061
-0.118
-0.106
-0.065
0.043
0.203
0.184
0.048
-0.144
0.009
-0.012
0.057
-0.032
-0.047
-0.015
0.100
0.110
-0.095
-0.062
0.046
-0.082
0.028
-0.001
0.035
0.100
0.004
0.029
-0.024
-0.031
0.080
0.056
0.054
0.006
-0.033
0.089
-0.048
-0.023
0.036
0.051
0.128
-0.001
-0.048
-0.038
0.075
0.077
0.010
0.011
-0.109
0.011
-0.004
-0.001
0.071
0.065
0.028
0.024
-0.078
0.056
0.025
0.047
0.060
0.008
0.068
0.005
0.040
-0.045
0.009
0.086
0.034
0.006
0.027
-0.042
-0.010
-0.040
0.102
0.141
0.036
0.065
0.011
-0.073
-0.099
-0.035
0.139
0.338
0.223
-0.190
-0.339
-0.354
-0.001
0.251
0.330
0.225
0.061
-0.073
-0.129
-0.059
-0.043
-0.041
-0.005
0.160
0.012
0.051
0.070
-0.024
0.040
0.065
0.035
-0.064
0.041
0.048
-0.028
0.039
0.041
0.013
0.063
-0.051
-0.021
0.071
-0.015
0.051
0.107
0.133
0.076
-0.118
-0.055
-0.019
-0.009
-0.017
0.099
0.047
-0.003
-0.047
0.012
0.049
0.037
0.033
0.009
0.035
-0.099
-0.098
0.126
0.094
0.046
-0.037
-0.035
-0.036
0.171
0.112
0.024
-0.072
0.060
-0.025
-0.011
-0.007
0.130
-0.012
0.034
-0.053
-0.083
0.029
-0.072
-0.018
0.217
0.097
-0.056
-0.110
-0.128
0.116
0.120
-0.004
0.001
0.005
0.027
-0.017
0.151
0.066
-0.023
-0.094
-0.015
0.049
0.014
0.075
-0.080
0.128
-0.004
0.093
-0.002
0.011
0.011
0.036
-0.048
-0.018
0.129
-0.016
0.058
0.009
-0.072
0.022
0.022
-0.009
-0.052
0.021
0.031
0.090
0.065
0.007
0.057
0.053
-0.007
0.053
0.033
-0.009
0.058
-0.044
0.013
-0.003
0.033
-0.030
0.032
-0.037
-0.010
-0.055
0.053
0.058
0.009
0.042
0.042
0.015
0.059
-0.023
0.042
0.063
0.060
0.037
0.054
-0.023
0.009
0.014
0.050
0.073
0.014
-0.088
-0.001
0.038
-0.004
0.062
0.088
0.030
-0.104
0.045
0.214
0.352
-0.061
-0.407
-0.324
-0.094
0.233
0.264
0.145
0.016
-0.074
-0.047
-0.039
0.061
-0.112
-0.060
0.053
0.080
0.058
0.105
0.096
0.027
0.063
0.178
-0.026
-0.064
-0.069
-0.152
0.058
0.084
-0.016
0.041
-0.003
0.078
-0.088
0.033
0.046
0.046
-0.054
0.002
0.203
0.109
-0.097
-0.010
-0.004
0.061
0.082
0.007
-0.063
0.021
-0.026
-0.056
0.008
0.056
-0.001
0.042
0.071
0.025
-0.015
0.016
-0.029
0.062
-0.067
0.009
0.074
-0.032
0.073
-0.004
0.047
0.056
-0.027
0.080
0.037
-0.085
-0.090
0.164
0.094
-0.027
0.026
0.017
-0.027
0.027
0.030
-0.014
0.028
0.068
0.016
0.044
0.014
-0.036
-0.068
0.054
0.115
0.051
0.154
-0.068
0.018
-0.095
0.066
0.101
0.044
0.037
0.036
0.048
0.033
-0.005
-0.093
-0.030
-0.062
0.096
0.119
-0.045
-0.122
0.040
-0.061
0.111
0.022
0.174
-0.039
0.007
0.028
-0.004
-0.100
0.040
0.148
0.045
0.024
0.075
0.049
-0.026
0.020
-0.065
0.100
-0.001
-0.102
-0.014
0.114
0.008
0.097
0.029
0.081
-0.069
-0.067
0.134
0.147
-0.058
0.022
0.068
-0.019
0.063
-0.052
-0.072
0.017
0.031
0.031
-0.005
0.034
0.009
-0.042
-0.052
0.044
0.104
0.041
-0.033
-0.125
-0.113
0.067
0.054
0.062
0.136
0.243
-0.023
-0.305
-0.361
-0.055
0.279
0.248
0.151
0.076
-0.055
-0.038
-0.103
-0.041
-0.050
0.022
-0.008
0.160
0.000
0.126
0.024
0.027
0.012
-0.053
-0.006
0.027
-0.045
0.018
0.080
0.003
-0.067
0.067
-0.010
0.133
0.039
-0.047
-0.002
0.067
-0.038
0.029
-0.051
0.077
0.037
0.006
-0.010
-0.093
-0.044
0.018
0.043
0.021
0.121
0.010
-0.026
-0.063
-0.006
0.037
0.140
0.043
-0.027
-0.007
-0.027
0.083
0.017
0.030
-0.004
-0.079
-0.077
-0.035
0.055
0.000
0.016
-0.007
0.145
0.090
0.070
0.052
-0.007
0.029
-0.021
-0.032
-0.002
-0.006
0.047
0.051
-0.055
0.100
0.027
-0.066
0.010
-0.012
0.038
-0.091
-0.108
0.160
0.108
0.040
-0.033
0.032
-0.063
0.033
0.085
-0.035
-0.035
0.078
0.138
0.063
-0.059
0.025
0.120
-0.003
0.009
0.040
-0.053
-0.074
0.074
0.022
0.111
0.069
0.026
-0.057
-0.001
0.046
0.058
-0.044
0.050
-0.017
-0.046
0.084
0.054
-0.031
-0.005
0.062
0.047
-0.050
0.043
0.018
0.059
0.116
0.122
-0.093
-0.048
0.055
0.013
0.019
0.089
0.060
0.115
-0.047
-0.024
0.135
-0.005
-0.001
0.085
0.036
0.005
-0.015
0.240
0.271
0.039
-0.392
-0.352
-0.159
0.204
0.430
0.228
-0.047
-0.144
-0.074
-0.125
-0.071
-0.106
0.231
0.160
0.056
0.078
0.066
0.043
-0.097
0.044
-0.015
-0.019
0.062
0.042
0.015
-0.007
-0.004
-0.016
0.005
-0.024
0.004
0.132
-0.063
0.066
0.038
0.099
-0.027
-0.094
-0.046
-0.065
-0.030
0.095
0.033
0.150
0.055
0.013
-0.031
-0.002
-0.035
0.046
-0.031
0.019
0.016
0.072
0.005
-0.022
0.028
-0.030
0.030
0.119
-0.027
-0.069
0.008
0.065
-0.060
0.029
0.029
0.029
-0.019
0.029
-0.060
0.014
0.077
0.063
-0.070
0.056
0.012
-0.059
0.031
0.177
-0.006
-0.073
-0.053
0.020
0.030
0.050
-0.012
0.082
0.027
-0.052
-0.030
0.007
0.066
0.055
0.004
-0.066
0.115
0.054
-0.094
0.007
0.084
0.078
-0.090
0.001
0.054
-0.000
0.047
0.059
0.116
-0.057
-0.125
0.072
0.180
0.057
0.048
-0.050
-0.023
0.013
-0.036
-0.004
-0.087
0.025
0.146
0.045
0.078
-0.074
0.129
0.204
-0.161
-0.414
-0.226
0.030
0.205
0.333
0.142
-0.016
0.038
-0.078
-0.053
-0.040
-0.046
0.085
-0.007
0.033
0.086
0.104
0.024
0.054
-0.011
0.149
0.038
-0.065
-0.088
-0.225
0.019
-0.013
0.143
0.222
0.104
-0.037
-0.034
0.027
0.068
0.051
-0.034
-0.016
0.099
-0.007
-0.037
0.049
-0.014
0.028
-0.113
0.011
-0.004
0.095
0.153
0.116
-0.084
-0.071
0.037
0.005
0.071
-0.025
0.077
0.038
0.082
-0.086
0.036
0.095
0.035
0.010
-0.036
-0.004
0.061
0.017
-0.118
0.029
0.111
0.098
0.036
0.054
-0.038
0.030
0.014
0.023
-0.039
0.045
-0.010
0.027
0.100
0.013
-0.011
-0.010
0.060
-0.012
-0.106
0.079
0.077
0.076
0.055
-0.006
-0.076
-0.037
-0.027
0.064
0.073
0.045
0.056
0.042
-0.010
0.064
-0.070
-0.074
0.095
0.013
0.043
0.016
0.106
-0.004
-0.021
-0.110
0.066
0.118
-0.040
-0.045
-0.125
0.136
0.039
0.132
0.105
0.029
-0.118
-0.001
0.002
0.004
-0.001
0.066
-0.022
0.079
-0.008
-0.027
0.065
0.149
-0.011
-0.042
-0.068
0.008
-0.008
0.021
0.089
0.080
-0.020
0.010
0.071
0.037
0.087
-0.004
0.009
-0.001
-0.005
0.097
0.024
-0.012
0.267
0.146
-0.305
-0.445
-0.107
-0.053
0.313
0.250
0.093
0.055
-0.078
-0.118
-0.074
0.008
-0.024
0.120
0.078
0.017
0.135
-0.007
0.146
-0.012
0.087
0.010
-0.072
0.107
0.056
-0.005
-0.023
0.014
-0.049
0.170
0.062
-0.069
-0.165
0.063
0.032
0.044
0.044
0.048
-0.034
-0.081
0.069
-0.045
-0.044
0.014
0.075
0.042
0.128
0.094
0.024
-0.013
-0.071
-0.054
-0.042
0.025
0.035
-0.102
0.078
0.024
0.034
0.144
-0.109
-0.033
0.069
-0.022
-0.041
-0.054
0.006
0.049
0.047
0.069
0.089
0.058
0.100
-0.072
-0.032
0.037
0.004
-0.028
0.085
0.042
-0.032
0.027
0.064
-0.027
-0.060
0.033
0.107
-0.119
0.014
-0.045
0.054
-0.041
0.016
0.005
0.110
0.055
-0.031
0.006
0.072
-0.013
-0.015
0.034
0.064
0.081
0.059
-0.110
-0.049
0.000
0.031
0.040
0.068
0.017
-0.094
-0.046
0.090
-0.015
0.053
0.085
0.041
-0.073
-0.015
0.067
-0.030
0.005
0.025
-0.053
0.023
0.041
0.092
0.029
0.056
-0.109
0.035
-0.005
0.080
0.070
-0.088
0.124
0.066
0.119
0.050
-0.006
-0.026
-0.044
-0.022
0.000
0.055
0.124
0.017
-0.022
-0.001
0.021
-0.014
-0.038
0.099
-0.083
0.083
-0.065
0.015
0.106
-0.010
-0.068
0.085
0.178
0.376
-0.076
-0.410
-0.369
-0.040
0.206
0.385
0.128
0.047
-0.139
-0.161
-0.015
0.096
0.115
0.038
0.065
0.023
-0.054
0.068
0.068
0.021
0.022
0.045
-0.032
0.026
0.013
0.004
-0.015
0.063
0.003
-0.050
-0.069
-0.088
-0.130
0.095
0.140
0.137
0.009
-0.032
-0.028
0.076
0.056
-0.022
-0.042
0.044
0.083
0.033
-0.143
0.020
0.088
0.033
0.015
-0.007
-0.006
0.052
-0.045
0.064
0.096
-0.018
-0.073
-0.039
0.046
0.086
0.021
-0.007
0.050
-0.014
0.029
-0.080
0.017
0.038
0.065
0.082
-0.073
0.057
0.005
-0.031
-0.071
-0.055
0.008
-0.050
0.007
0.068
0.091
0.038
0.080
0.062
0.035
-0.015
-0.163
0.008
0.085
-0.009
0.069
-0.037
0.065
-0.022
0.039
0.116
0.037
-0.042
-0.030
-0.015
0.069
0.075
-0.003
0.019
0.040
0.067
0.043
0.027
-0.028
0.035
0.000
0.105
0.009
0.085
-0.020
0.082
0.022
-0.102
-0.036
0.019
0.073
-0.104
0.042
0.016
0.106
0.058
0.024
-0.135
-0.007
0.053
0.023
0.059
-0.045
0.082
0.049
0.031
-0.018
0.048
-0.032
-0.006
-0.018
-0.024
0.037
-0.029
-0.042
-0.036
0.053
0.075
-0.003
0.069
-0.047
-0.002
0.009
0.033
0.113
-0.003
-0.017
-0.015
0.112
0.092
-0.039
-0.007
-0.047
0.066
-0.011
0.032
-0.018
0.020
0.327
0.087
-0.289
-0.349
-0.228
0.107
0.309
0.191
0.160
-0.083
-0.162
-0.086
0.015
-0.110
0.057
0.014
-0.032
0.073
0.019
0.117
-0.050
0.058
-0.082
0.005
0.088
0.037
-0.059
-0.034
-0.049
0.025
0.097
-0.033
0.001
0.073
-0.086
0.015
0.107
0.088
0.137
-0.001
-0.093
-0.030
0.014
0.037
0.072
0.106
0.014
-0.023
-0.064
0.031
-0.010
-0.020
0.064
0.017
-0.066
0.006
0.063
0.013
-0.037
0.079
0.131
0.083
0.128
-0.069
-0.031
-0.143
0.009
0.032
0.051
0.063
0.011
0.031
0.064
0.120
-0.047
-0.042
0.010
-0.064
0.004
0.057
0.072
0.010
0.019
0.060
0.012
-0.114
0.074
0.026
0.014
0.148
0.046
0.014
0.029
-0.002
-0.057
0.002
0.024
0.164
0.117
0.021
-0.081
-0.041
0.008
0.021
0.032
-0.014
0.034
0.029
0.015
-0.086
-0.102
-0.011
0.066
0.055
0.067
-0.082
-0.036
0.059
0.119
-0.012
0.000
0.089
0.095
-0.040
-0.090
-0.008
-0.068
0.067
0.075
0.093
0.034
-0.102
-0.067
0.031
0.125
0.079
0.032
-0.007
0.054
-0.013
-0.017
0.085
-0.087
0.007
0.002
-0.047
0.003
0.078
0.016
0.005
0.089
0.034
-0.006
-0.008
-0.009
0.107
-0.076
0.038
-0.063
-0.106
0.096
0.110
0.052
0.039
0.032
-0.011
0.032
0.011
-0.015
0.060
0.080
0.406
0.053
-0.429
-0.412
-0.181
0.057
0.298
0.279
0.069
-0.049
-0.096
-0.182
-0.093
-0.003
0.125
0.166
0.132
0.065
-0.072
-0.059
0.032
0.075
0.134
0.031
0.069
-0.007
-0.024
-0.122
-0.038
0.064
0.147
0.005
-0.046
0.060
0.004
-0.077
0.032
0.081
-0.003
0.034
0.059
0.057
-0.058
-0.067
-0.066
-0.018
0.114
0.102
0.019
-0.128
0.002
-0.099
0.026
0.088
0.042
0.021
0.044
-0.052
0.119
-0.051
-0.001
0.043
0.017
0.074
-0.019
0.034
0.059
-0.075
-0.048
-0.013
0.082
0.031
0.005
0.012
0.012
0.007
0.014
0.041
-0.030
0.038
0.036
0.015
-0.012
-0.084
0.023
-0.043
-0.056
0.094
0.030
0.015
0.139
0.033
-0.082
-0.018
-0.097
-0.034
0.122
0.030
0.072
-0.048
-0.102
0.044
-0.035
0.073
0.128
0.029
0.013
-0.036
-0.051
-0.012
-0.024
-0.006
0.019
0.034
0.046
0.061
-0.076
0.036
-0.010
0.009
0.052
0.157
-0.033
0.001
-0.019
-0.016
-0.054
0.077
0.023
0.058
-0.067
0.060
-0.053
0.030
0.035
0.046
-0.016
-0.063
0.034
-0.038
0.104
0.027
-0.042
0.041
-0.002
0.040
0.033
0.000
-0.010
0.009
-0.025
0.033
-0.066
0.010
0.011
0.135
-0.040
0.054
0.002
-0.003
0.042
-0.067
0.095
0.094
-0.006
-0.070
0.078
0.058
0.024
-0.009
0.041
0.012
-0.063
-0.017
-0.073
0.102
0.051
0.139
0.094
-0.009
-0.009
-0.040
0.280
0.243
0.263
-0.165
-0.445
-0.334
-0.090
0.196
0.364
0.121
-0.025
-0.074
-0.030
-0.108
-0.036
0.020
0.014
0.035
0.185
0.011
0.079
-0.022
0.027
0.158
0.105
-0.004
0.054
-0.091
-0.051
-0.068
0.091
0.014
0.039
-0.095
0.081
0.005
0.112
0.005
0.041
0.063
-0.068
-0.119
0.100
0.070
-0.029
0.004
0.060
0.002
0.009
0.090
-0.015
-0.024
-0.067
0.039
-0.016
0.056
0.046
-0.019
0.029
-0.029
0.128
-0.087
0.023
0.104
0.049
-0.094
-0.064
0.055
-0.010
0.114
0.006
0.081
-0.025
-0.026
-0.019
0.120
0.016
0.030
0.063
0.011
0.029
0.000
-0.217
0.008
0.009
0.007
0.040
0.053
0.074
-0.089
0.042
0.037
0.086
0.008
0.007
0.015
-0.028
0.135
-0.023
0.120
0.105
-0.063
-0.132
0.035
0.111
-0.059
-0.046
-0.005
0.119
0.003
-0.074
0.057
-0.036
0.028
0.125
0.012
-0.005
0.002
0.080
0.052
-0.005
0.025
0.003
0.012
0.018
0.147
-0.006
-0.045
-0.068
0.011
0.029
0.114
-0.002
0.023
0.027
0.007
0.040
0.005
0.038
0.015
0.053
-0.085
-0.075
0.036
0.038
0.097
0.129
0.049
0.113
-0.041
-0.070
-0.031
-0.012
0.012
0.073
0.070
0.062
-0.070
-0.053
0.034
-0.010
-0.028
0.006
0.070
-0.009
-0.030
0.032
0.144
-0.068
-0.032
-0.038
0.159
0.064
0.103
0.028
0.010
-0.103
-0.031
-0.059
0.008
0.026
0.020
0.016
0.040
-0.036
0.074
-0.067
0.012
0.063
-0.003
0.017
0.105
0.063
-0.056
-0.033
-0.045
0.068
0.175
0.077
-0.099
-0.015
0.057
-0.039
-0.064
-0.008
0.157
0.087
-0.038
-0.046
-0.086
-0.103
0.066
0.043
0.066
0.129
-0.012
-0.049
-0.083
0.007
0.080
0.050
0.174
0.012
-0.041
-0.038
-0.063
0.110
0.010
0.047
0.017
-0.014
-0.069
0.002
-0.022
0.105
0.336
-0.027
-0.247
-0.409
-0.189
0.261
0.257
0.205
0.063
-0.196
0.032
0.025
0.008
-0.024
-0.003
0.048
0.110
0.022
0.063
0.164
-0.006
-0.026
-0.074
0.002
-0.002
-0.046
-0.013
0.075
0.052
0.094
-0.075
0.041
0.099
-0.051
-0.033
0.095
0.030
-0.023
0.032
0.032
-0.051
-0.047
0.121
0.101
0.054
0.111
-0.166
0.014
-0.100
0.051
-0.071
0.042
0.106
0.102
0.015
-0.090
0.000
0.051
0.032
-0.015
-0.030
0.013
0.020
0.004
0.066
0.100
0.025
0.082
0.000
-0.008
0.002
0.041
0.011
-0.008
0.068
-0.010
0.071
-0.001
0.015
0.202
-0.043
-0.103
0.070
0.075
0.025
0.054
-0.074
-0.071
-0.089
0.084
0.051
0.008
0.024
-0.060
0.001
0.134
0.090
-0.033
0.055
-0.061
0.050
-0.012
0.076
0.012
-0.045
-0.042
0.018
0.003
-0.019
0.025
0.098
-0.006
0.035
-0.064
-0.041
-0.003
0.012
0.046
0.076
0.010
0.033
0.078
0.028
-0.016
-0.006
0.053
0.014
0.004
0.010
0.099
-0.004
0.017
-0.024
0.007
0.060
0.052
-0.013
0.078
0.039
-0.056
0.034
-0.009
0.074
0.064
0.051
-0.004
0.053
0.068
-0.022
-0.022
0.008
0.043
-0.010
0.055
-0.087
0.039
0.064
0.070
0.048
-0.175
-0.009
0.037
-0.004
0.114
0.010
0.028
0.006
-0.020
0.003
0.025
-0.019
-0.022
0.095
0.051
-0.051
0.012
-0.016
0.028
0.031
-0.008
0.078
0.056
0.084
0.035
0.003
0.015
0.042
0.023
0.017
-0.064
0.036
0.011
-0.041
-0.006
0.128
0.017
0.109
-0.089
-0.060
0.028
0.070
-0.012
0.010
-0.049
0.045
0.068
-0.079
-0.018
-0.021
0.092
0.142
0.189
-0.041
-0.399
-0.299
-0.035
0.223
0.333
0.056
0.008
-0.024
-0.135
-0.011
0.064
-0.052
0.013
0.087
0.022
0.112
0.036
0.071
0.013
0.117
0.047
0.015
0.052
-0.006
0.016
-0.069
-0.044
0.045
-0.061
-0.028
0.188
0.010
-0.001
-0.001
0.079
-0.046
0.056
-0.006
0.018
-0.035
0.121
-0.030
0.051
-0.046
0.090
0.038
-0.018
0.062
0.076
0.024
-0.060
-0.064
0.063
0.065
0.085
-0.060
-0.004
0.045
-0.066
0.060
0.198
0.106
0.022
-0.025
-0.065
-0.008
0.019
-0.036
-0.011
0.017
0.095
0.100
0.002
0.018
0.047
-0.025
-0.035
-0.003
-0.004
-0.019
0.087
0.013
-0.031
0.024
0.024
-0.011
-0.005
-0.035
-0.010
0.099
0.076
0.005
0.031
0.000
0.017
-0.027
0.021
0.054
0.016
0.065
-0.008
-0.020
-0.074
-0.055
0.009
0.112
0.002
-0.002
0.033
-0.037
-0.053
0.004
0.045
0.073
-0.023
0.020
0.133
0.107
-0.122
-0.037
0.032
0.069
0.075
-0.035
-0.038
0.058
0.099
0.007
-0.060
0.044
0.088
0.004
0.013
-0.000
0.021
-0.057
0.020
0.019
0.036
-0.013
0.004
0.064
0.027
-0.010
-0.056
0.050
0.087
-0.009
0.031
0.162
-0.015
-0.040
0.114
0.048
0.035
0.015
-0.029
0.035
0.006
0.161
-0.072
0.016
-0.005
-0.020
0.034
0.007
0.053
-0.089
0.051
0.019
-0.027
0.055
0.010
0.114
-0.055
-0.031
-0.029
0.119
-0.012
0.055
0.065
0.037
0.401
0.181
-0.321
-0.440
-0.198
0.106
0.253
0.144
0.126
0.067
0.088
-0.094
-0.073
-0.074
-0.151
0.022
0.223
0.208
0.112
-0.030
0.007
-0.003
-0.066
-0.018
0.033
-0.002
-0.026
0.002
0.104
-0.082
-0.069
0.103
0.071
-0.056
0.077
0.074
-0.008
-0.008
0.013
-0.014
0.040
0.013
-0.028
0.035
-0.002
0.057
-0.026
-0.059
0.022
0.150
0.002
0.028
-0.033
0.010
0.052
-0.059
0.051
0.046
-0.024
-0.050
0.052
0.050
-0.042
0.006
-0.055
0.004
0.018
0.128
0.084
0.051
0.098
-0.014
0.019
-0.091
0.027
0.047
0.015
0.008
0.182
0.110
-0.060
-0.040
-0.009
0.099
-0.013
-0.105
0.046
0.050
0.057
-0.063
-0.008
-0.007
-0.026
0.092
0.012
0.012
-0.019
0.083
0.130
-0.037
-0.037
-0.007
-0.042
-0.058
0.010
0.089
0.031
0.042
-0.047
0.064
-0.018
0.004
0.024
0.066
-0.011
0.008
0.047
0.058
0.016
0.008
0.036
0.032
0.052
-0.014
0.004
0.022
-0.037
0.001
0.032
0.089
0.046
-0.041
0.157
0.002
0.104
-0.008
-0.071
-0.011
-0.036
0.170
0.035
0.016
0.006
0.050
-0.023
-0.036
-0.020
-0.036
0.027
0.077
0.031
0.019
0.056
-0.041
-0.023
0.069
0.014
0.043
0.012
0.101
0.057
-0.025
0.021
0.031
-0.008
0.044
-0.040
0.028
-0.005
0.039
-0.016
-0.094
0.041
0.017
0.054
0.027
0.020
0.117
0.045
-0.013
-0.040
0.006
0.023
-0.018
0.036
0.058
0.029
0.263
0.294
-0.084
-0.347
-0.353
-0.086
0.198
0.229
0.164
-0.029
0.064
0.030
-0.083
-0.007
0.003
-0.091
0.045
0.121
0.065
0.101
-0.010
0.032
0.018
0.082
-0.087
0.034
0.108
-0.017
-0.000
0.051
-0.008
0.069
-0.024
0.046
0.050
0.005
0.036
0.102
-0.057
-0.002
0.020
0.012
-0.020
-0.025
0.078
0.026
0.024
0.070
-0.129
-0.052
-0.060
0.146
-0.054
0.128
0.034
0.054
0.014
-0.019
0.170
0.024
-0.064
-0.019
0.066
0.056
0.004
0.048
0.061
0.015
0.053
0.008
-0.065
0.040
-0.076
-0.022
0.085
0.086
0.068
-0.021
-0.004
0.012
0.107
0.012
-0.033
0.038
0.118
0.051
0.059
-0.027
-0.063
-0.062
-0.025
0.040
0.054
-0.020
0.017
0.081
-0.016
0.009
0.166
0.026
0.068
0.021
-0.075
-0.040
0.034
0.033
0.027
-0.035
0.059
0.056
0.060
-0.033
-0.088
0.011
0.049
0.003
0.019
0.109
-0.111
0.018
0.076
0.120
-0.007
-0.084
0.008
0.028
0.100
0.059
0.014
0.076
-0.043
-0.029
0.084
-0.030
0.033
0.005
-0.023
0.033
0.010
-0.039
-0.000
0.050
0.029
-0.043
0.009
0.078
-0.071
0.033
-0.008
-0.003
0.002
-0.019
0.035
0.122
-0.071
0.020
0.106
0.032
0.024
0.012
-0.054
0.049
0.031
-0.113
0.041
-0.007
-0.023
-0.012
0.045
-0.054
-0.018
0.099
0.043
-0.048
0.023
0.101
0.095
-0.021
-0.004
-0.039
0.074
0.055
0.246
0.278
-0.199
-0.405
-0.373
-0.047
0.203
0.212
0.163
0.077
-0.077
-0.056
-0.049
-0.113
-0.023
-0.019
0.033
0.061
0.065
0.075
0.071
0.021
0.097
0.103
0.057
-0.030
-0.066
-0.074
-0.013
-0.028
-0.045
0.054
-0.011
-0.022
0.154
-0.046
-0.072
-0.043
0.103
0.051
-0.062
0.077
0.069
-0.061
-0.026
0.027
0.010
0.036
0.097
0.102
0.036
-0.056
-0.010
0.008
0.061
-0.007
0.016
-0.029
0.025
0.015
0.111
-0.001
-0.047
0.008
-0.067
-0.032
0.089
-0.029
0.019
-0.011
-0.031
0.142
0.037
-0.028
-0.006
0.027
0.076
-0.063
-0.197
0.030
0.016
0.036
0.097
0.046
0.198
-0.034
0.039
-0.120
0.044
-0.079
0.041
0.028
0.040
0.132
0.078
0.017
-0.128
-0.035
0.051
-0.069
0.131
-0.022
0.046
-0.091
-0.093
-0.017
0.038
0.035
0.144
0.049
0.038
-0.022
-0.072
-0.000
0.025
0.066
0.081
0.013
0.006
0.068
0.038
-0.153
-0.020
0.105
0.061
0.072
-0.064
-0.008
-0.048
-0.008
0.054
0.083
-0.014
0.120
0.057
-0.012
-0.008
-0.001
-0.057
0.081
-0.007
0.052
0.023
0.101
0.024
-0.057
-0.061
0.014
0.072
-0.040
-0.015
0.114
0.030
-0.066
0.105
0.040
-0.016
-0.010
0.001
0.007
0.040
0.074
0.024
-0.012
0.041
-0.002
-0.044
0.081
0.013
-0.007
-0.009
0.099
0.101
-0.022
0.011
0.153
0.200
-0.007
-0.375
-0.392
-0.055
0.162
0.335
0.167
0.014
-0.093
0.019
-0.001
-0.045
-0.140
0.099
0.062
0.019
0.109
0.286
0.048
0.130
-0.095
-0.116
-0.072
-0.015
-0.046
-0.025
0.050
0.024
0.073
0.004
-0.116
-0.071
0.035
0.117
0.008
-0.025
0.025
0.122
0.048
0.006
-0.062
0.114
-0.007
0.062
0.062
0.062
-0.108
0.010
0.031
0.018
0.058
0.023
-0.020
-0.035
0.080
0.026
0.007
-0.056
-0.024
0.049
0.127
0.019
-0.094
-0.133
0.059
0.054
0.097
0.100
0.001
-0.041
-0.054
0.026
-0.044
-0.000
-0.016
0.129
0.106
0.003
-0.045
0.046
0.055
0.033
0.065
0.031
-0.073
0.016
0.089
0.045
0.044
-0.032
-0.055
-0.038
-0.011
0.092
0.092
0.035
-0.057
-0.031
0.010
0.182
0.068
-0.038
-0.146
-0.026
0.105
-0.004
0.080
0.153
-0.016
-0.003
-0.120
-0.017
0.000
0.014
0.086
-0.002
0.009
0.185
0.005
0.072
0.074
-0.026
-0.067
0.007
0.000
0.145
0.131
0.017
0.031
-0.033
0.007
0.017
-0.099
-0.016
-0.046
0.116
0.037
0.088
0.084
0.020
-0.021
0.087
0.056
0.009
-0.020
-0.005
0.017
0.035
0.039
0.023
-0.017
-0.007
0.003
0.040
0.062
0.002
-0.002
0.063
-0.055
0.016
0.042
0.035
0.036
0.086
0.024
-0.047
0.023
0.036
0.020
0.102
-0.052
0.001
-0.039
0.032
0.021
-0.004
0.051
0.039
0.033
0.007
0.019
0.145
-0.023
0.031
0.028
-0.035
0.044
0.062
0.046
-0.010
-0.016
-0.072
-0.086
0.098
0.092
0.059
-0.031
0.056
-0.008
-0.035
-0.040
0.050
0.022
-0.010
0.080
0.320
0.310
-0.115
-0.361
-0.431
-0.139
0.160
0.345
0.204
-0.032
-0.044
-0.036
0.063
-0.044
0.095
-0.057
-0.009
-0.071
0.026
0.148
0.176
0.213
0.078
-0.052
-0.082
-0.095
-0.022
0.132
-0.011
-0.082
-0.037
0.019
0.100
0.034
0.018
-0.065
-0.037
0.014
0.030
0.014
0.130
0.033
-0.019
-0.051
0.038
0.111
0.067
-0.062
-0.037
0.028
0.090
-0.012
-0.045
0.064
0.051
0.045
-0.002
0.056
-0.072
0.096
0.025
-0.075
0.007
0.057
0.034
0.003
-0.004
0.046
0.014
0.023
-0.037
0.226
0.082
-0.063
-0.112
0.040
0.009
0.006
0.191
-0.050
0.023
-0.089
-0.037
0.048
-0.034
-0.019
0.037
0.024
0.111
-0.017
-0.054
-0.005
0.073
0.058
0.051
-0.041
0.034
-0.021
0.041
0.046
-0.007
-0.004
-0.081
0.104
0.176
-0.036
-0.051
0.103
-0.089
-0.070
0.042
0.105
0.049
0.027
-0.004
0.137
0.053
-0.041
-0.067
0.042
0.014
0.071
-0.116
0.165
0.096
0.047
-0.060
0.042
0.054
0.001
0.049
0.014
0.034
-0.019
0.056
-0.008
0.033
0.049
-0.026
0.020
-0.055
0.041
0.076
0.060
-0.068
-0.117
0.041
0.082
0.101
0.002
0.074
0.017
-0.050
0.005
-0.014
0.047
0.017
-0.030
0.045
-0.013
-0.074
0.140
0.079
0.014
-0.046
-0.095
-0.081
0.075
0.212
0.022
-0.099
-0.044
0.077
0.035
0.028
-0.015
0.064
0.009
-0.052
-0.050
0.085
0.089
0.030
0.039
0.015
-0.119
-0.024
0.051
0.068
0.051
0.047
-0.025
0.218
0.231
0.001
-0.320
-0.450
-0.117
0.086
0.280
0.248
0.130
-0.099
-0.086
-0.094
-0.012
-0.031
0.022
-0.038
0.035
0.079
0.008
0.141
0.014
0.020
0.082
0.006
-0.080
-0.026
0.001
-0.004
0.039
-0.068
-0.024
0.001
0.065
0.070
0.089
0.078
0.007
-0.029
0.055
0.050
-0.032
-0.091
0.014
0.117
0.061
0.014
0.062
-0.013
-0.017
0.071
-0.094
0.058
0.034
-0.054
0.006
0.023
0.096
0.044
0.010
0.095
0.063
0.048
0.086
-0.124
0.035
-0.054
0.067
0.085
0.011
0.025
-0.008
-0.190
0.078
0.003
-0.011
0.048
0.093
-0.030
-0.054
-0.106
-0.005
0.062
0.028
-0.018
0.162
0.116
0.030
0.012
-0.033
-0.033
0.045
0.002
0.068
0.039
0.096
-0.049
0.080
-0.038
0.032
-0.066
0.069
0.029
0.014
0.024
0.069
0.057
-0.065
0.045
0.034
-0.073
0.043
0.083
-0.008
0.096
0.014
-0.011
-0.071
0.052
0.037
0.033
-0.026
0.024
0.044
0.021
-0.038
0.045
-0.044
0.061
-0.018
0.082
0.028
-0.019
-0.062
-0.012
-0.041
0.058
-0.002
0.003
0.016
0.032
0.054
0.022
0.053
0.002
0.019
0.028
0.041
0.025
0.047
0.080
0.077
-0.099
0.005
-0.046
0.018
0.077
0.089
0.100
-0.049
-0.060
-0.018
0.007
0.004
0.045
0.106
0.072
0.002
0.055
-0.029
-0.046
0.063
0.098
0.058
0.026
-0.047
-0.046
0.007
-0.047
0.034
0.026
0.142
0.002
-0.078
-0.003
-0.047
0.019
0.019
0.402
0.073
-0.331
-0.412
-0.119
0.153
0.303
0.217
0.095
-0.069
-0.129
-0.041
0.010
-0.060
-0.057
0.162
0.061
-0.018
0.128
0.042
0.142
0.045
0.035
0.002
0.043
0.057
-0.069
0.064
-0.026
0.048
-0.080
-0.026
-0.018
0.098
0.032
0.090
-0.028
-0.021
-0.013
-0.040
0.078
0.020
-0.083
0.049
-0.050
0.011
0.164
0.042
0.065
-0.034
-0.019
0.052
-0.038
0.018
0.028
0.004
0.099
0.028
-0.084
-0.005
0.054
0.012
-0.059
-0.053
0.054
0.006
0.000
0.085
-0.013
-0.019
0.018
0.069
0.043
0.007
-0.009
0.061
0.016
0.020
-0.026
0.085
-0.118
-0.046
-0.026
0.025
0.029
0.058
0.070
-0.082
0.110
0.057
0.036
0.043
-0.047
-0.068
0.025
0.072
0.069
0.066
-0.051
0.008
0.080
0.022
0.021
0.138
-0.020
0.009
0.000
0.011
-0.071
-0.036
0.054
0.048
-0.009
0.057
0.020
-0.020
-0.019
-0.082
-0.042
-0.009
0.053
0.107
0.054
-0.085
0.103
-0.026
-0.027
0.009
0.141
-0.034
-0.058
-0.024
0.092
0.009
0.056
0.071
0.058
0.011
-0.014
-0.038
0.059
-0.009
-0.035
0.087
0.068
0.026
-0.038
0.001
0.011
-0.007
-0.004
0.093
0.010
0.041
0.063
0.007
0.028
0.001
-0.064
-0.079
0.106
0.019
0.004
0.072
0.063
0.085
0.317
-0.011
-0.406
-0.344
-0.081
0.232
0.228
0.199
0.025
-0.053
0.015
-0.137
-0.080
-0.062
0.097
0.160
0.054
0.122
0.010
-0.015
0.004
0.099
-0.177
0.104
-0.019
0.128
0.092
-0.010
-0.038
-0.084
-0.092
0.022
0.099
0.269
-0.009
-0.032
-0.089
0.013
0.057
0.011
0.066
0.127
0.040
-0.112
-0.069
0.016
0.001
0.079
-0.040
0.041
0.100
-0.028
0.041
-0.041
0.002
0.051
-0.001
0.026
0.006
-0.005
0.136
0.020
0.076
0.076
0.001
0.070
0.115
-0.025
0.079
-0.024
-0.097
0.015
-0.032
0.093
-0.004
-0.032
0.008
-0.038
0.115
-0.047
0.033
-0.002
-0.028
-0.061
0.055
0.108
-0.050
0.023
0.047
0.052
-0.003
-0.065
0.031
0.057
-0.024
0.068
0.073
0.012
0.040
-0.039
0.005
-0.132
0.082
0.032
-0.049
-0.079
0.054
0.133
0.044
0.051
-0.053
0.027
0.063
-0.121
0.057
0.115
0.085
-0.124
0.009
0.128
-0.009
-0.063
-0.085
0.078
0.034
0.034
-0.037
0.025
0.069
-0.064
-0.067
-0.051
0.075
0.156
-0.090
0.110
-0.012
0.035
0.016
0.015
0.109
0.114
0.011
0.004
-0.029
0.096
-0.026
0.025
0.134
0.129
0.313
-0.045
-0.321
-0.292
-0.190
0.150
0.304
0.227
0.128
0.021
-0.140
-0.033
-0.141
0.052
0.053
-0.022
0.083
0.171
-0.086
-0.058
0.208
0.072
0.070
-0.029
0.025
0.002
-0.037
-0.047
-0.076
0.064
0.091
0.095
-0.005
0.005
0.085
-0.039
0.014
-0.024
0.090
-0.015
0.077
0.079
-0.031
-0.024
0.129
-0.044
-0.040
-0.059
0.050
0.094
-0.107
0.037
0.103
0.162
0.080
-0.009
0.012
0.041
0.078
-0.096
0.024
0.085
0.033
0.044
0.027
-0.041
-0.079
0.001
-0.000
-0.029
0.032
0.106
0.125
0.038
0.051
-0.160
-0.093
0.009
0.044
0.080
0.103
0.014
0.022
-0.097
-0.025
-0.053
0.068
0.044
0.007
-0.144
0.081
0.054
0.091
0.037
0.001
-0.035
0.078
0.072
0.029
-0.002
0.038
-0.014
-0.033
0.049
0.037
0.026
0.064
0.053
-0.000
-0.022
-0.038
0.099
-0.026
0.000
-0.047
0.044
0.067
0.044
-0.001
0.073
0.040
0.078
-0.013
0.032
0.052
-0.046
0.075
0.067
-0.059
0.014
0.079
0.083
-0.018
0.000
0.097
-0.042
-0.032
-0.046
0.057
0.033
0.004
-0.065
0.029
0.007
0.084
0.044
0.031
0.063
-0.003
-0.055
-0.085
0.076
0.111
0.057
0.277
0.088
-0.228
-0.417
-0.298
0.123
0.457
0.214
0.164
0.094
-0.248
-0.096
-0.044
0.014
-0.016
-0.015
0.194
0.054
0.049
0.066
0.080
-0.018
0.047
0.094
-0.025
-0.090
0.020
0.034
0.106
0.020
0.058
-0.011
0.111
0.105
-0.094
-0.091
-0.030
-0.059
0.037
0.057
0.127
0.014
-0.103
-0.173
0.052
-0.017
0.052
0.016
0.064
0.025
-0.009
-0.007
-0.036
0.119
0.047
-0.020
-0.019
0.101
0.044
0.159
0.033
-0.138
-0.018
-0.004
0.010
0.031
0.141
0.050
-0.085
-0.009
0.039
0.126
0.028
0.087
-0.112
-0.054
-0.002
0.106
0.040
-0.029
0.048
0.075
0.038
-0.023
-0.069
0.006
-0.039
0.067
0.032
0.013
0.035
-0.041
0.015
0.029
-0.046
-0.006
0.124
-0.087
0.053
0.038
0.035
0.040
0.052
-0.002
-0.014
-0.010
0.104
0.121
-0.008
-0.042
0.038
0.017
-0.004
0.074
-0.024
0.026
0.027
-0.039
0.053
0.048
-0.050
-0.041
0.039
0.063
-0.021
-0.047
0.008
0.227
0.005
0.016
-0.070
-0.084
0.024
-0.002
0.099
0.058
0.054
-0.007
-0.011
0.047
-0.011
0.081
0.026
-0.041
0.096
0.029
-0.016
-0.055
-0.083
0.060
0.063
0.010
0.055
-0.013
0.069
-0.033
0.122
0.324
0.097
-0.314
-0.531
-0.088
0.122
0.324
0.199
0.124
-0.066
-0.086
-0.045
-0.004
-0.073
-0.043
0.080
0.106
0.010
0.064
0.027
0.081
0.052
-0.010
-0.053
0.025
-0.067
0.043
0.030
0.018
-0.046
0.112
0.096
0.045
-0.070
-0.016
0.017
0.061
0.004
0.040
0.050
-0.104
0.002
0.029
0.033
0.084
0.007
-0.066
-0.060
0.139
0.101
-0.048
-0.048
-0.049
0.000
0.003
0.068
0.007
0.067
0.125
-0.007
-0.133
0.056
0.020
0.034
0.048
0.040
-0.016
0.032
0.083
-0.098
0.066
0.064
0.020
-0.048
-0.026
0.030
-0.014
0.037
0.031
0.058
-0.065
-0.015
0.029
0.060
0.004
-0.040
0.108
0.107
0.062
-0.027
0.017
0.018
0.064
-0.033
-0.091
0.006
-0.017
-0.027
0.011
0.128
0.089
-0.046
-0.032
0.005
0.008
0.060
-0.033
0.068
-0.107
-0.007
0.085
0.012
0.014
-0.028
0.075
0.050
0.040
-0.016
-0.037
0.063
0.041
-0.062
0.095
-0.043
0.062
0.105
-0.051
0.001
0.094
0.114
0.034
-0.001
0.016
0.061
-0.049
0.003
-0.019
0.095
0.115
-0.025
-0.019
0.042
-0.093
-0.053
0.017
0.135
0.106
-0.041
-0.074
0.024
0.286
0.250
-0.157
-0.463
-0.302
0.059
0.320
0.216
0.125
0.052
-0.147
-0.103
-0.079
0.043
-0.005
0.130
-0.002
0.051
0.192
0.106
0.014
-0.024
0.031
0.046
0.086
-0.024
-0.067
-0.046
0.025
0.076
0.124
-0.021
0.039
0.013
-0.043
-0.082
-0.042
0.095
0.009
-0.060
0.084
0.017
0.000
0.077
0.126
0.002
0.075
-0.077
-0.055
0.039
0.065
0.036
0.085
-0.007
-0.031
-0.049
0.021
-0.010
-0.012
0.053
-0.035
-0.057
0.065
0.012
0.103
-0.073
-0.080
0.035
0.183
0.146
0.008
-0.108
0.072
-0.026
0.053
0.039
0.138
-0.074
0.044
-0.081
0.144
-0.047
0.012
0.071
-0.007
0.037
-0.020
0.005
-0.032
0.082
0.045
0.054
0.069
0.013
-0.141
0.011
0.056
-0.091
0.035
0.092
-0.042
-0.018
0.087
0.176
-0.065
-0.068
0.036
-0.030
-0.030
0.066
0.099
0.048
0.093
0.057
0.018
-0.012
-0.047
0.046
0.024
0.089
0.018
0.039
0.042
-0.038
0.090
-0.080
0.098
-0.038
-0.087
0.007
0.282
0.382
-0.176
-0.370
-0.352
0.011
0.144
0.225
0.244
0.087
-0.094
-0.154
0.008
0.004
-0.100
0.051
0.108
0.204
0.138
-0.052
-0.032
-0.001
0.105
0.010
0.089
0.070
0.029
0.030
-0.092
-0.043
0.012
-0.002
0.078
0.088
-0.013
-0.016
0.034
-0.011
0.020
0.061
0.077
-0.098
0.028
-0.023
0.052
0.073
-0.005
0.032
0.050
0.007
0.026
-0.015
-0.052
0.095
-0.055
0.038
-0.006
0.145
0.019
0.074
-0.060
0.012
-0.036
0.212
-0.009
-0.078
0.049
0.027
-0.004
0.001
-0.004
0.093
-0.009
0.035
0.044
-0.027
-0.019
0.043
0.072
-0.106
0.036
-0.051
0.014
0.076
0.059
0.006
0.030
-0.002
0.041
-0.005
0.162
-0.074
-0.150
0.018
0.106
0.162
0.042
-0.128
-0.063
0.045
0.039
0.022
-0.001
0.081
-0.037
-0.003
0.031
0.103
0.035
-0.170
0.045
-0.014
0.044
0.061
0.022
-0.059
0.054
0.063
-0.069
0.008
-0.006
0.186
0.099
0.085
0.069
0.029
-0.039
-0.139
-0.183
0.054
0.244
-0.029
0.143
0.021
-0.089
-0.014
0.024
-0.032
-0.092
0.032
-0.002
0.117
0.065
-0.033
0.125
0.281
0.114
-0.268
-0.325
-0.228
0.043
0.334
0.250
0.184
-0.089
-0.096
-0.144
-0.048
-0.004
0.104
0.057
0.050
0.202
-0.003
0.005
0.066
-0.069
0.058
0.010
0.018
-0.076
0.006
-0.063
0.016
0.044
0.060
0.177
0.017
-0.067
-0.044
-0.060
-0.046
0.055
-0.011
0.082
-0.004
0.002
-0.081
-0.068
0.049
0.009
0.117
0.145
-0.041
-0.105
-0.013
0.076
-0.015
0.050
0.112
0.042
-0.014
-0.093
0.003
0.015
-0.040
0.030
-0.037
0.009
0.062
0.041
0.016
-0.095
-0.051
-0.019
0.022
0.176
-0.059
-0.114
0.069
-0.018
-0.025
-0.018
0.094
0.033
0.016
-0.035
-0.112
-0.008
0.009
0.303
0.084
0.057
0.002
-0.112
-0.046
0.023
-0.032
0.078
0.106
0.029
0.006
-0.033
0.018
-0.026
0.075
0.039
-0.098
-0.033
-0.027
0.121
-0.013
0.041
-0.047
0.036
-0.013
0.073
0.035
-0.061
0.105
0.090
0.012
-0.047
0.074
0.068
0.008
0.059
-0.048
0.009
0.035
0.052
0.011
-0.004
-0.081
0.051
0.012
-0.009
0.122
0.116
0.062
-0.099
-0.018
0.028
0.014
0.081
-0.054
0.061
0.044
-0.068
0.070
0.017
0.007
0.091
0.360
0.197
-0.218
-0.484
-0.274
0.062
0.333
0.249
0.123
0.065
-0.045
-0.015
-0.043
-0.067
-0.061
0.064
0.103
0.061
0.085
0.069
0.099
0.044
-0.032
0.032
0.070
0.005
-0.036
-0.178
-0.044
0.007
0.017
0.043
0.094
0.198
0.002
-0.102
-0.093
-0.007
0.013
0.006
-0.023
0.035
0.064
0.143
0.091
0.121
-0.036
-0.138
-0.033
0.052
0.081
0.007
0.046
0.038
0.023
0.018
-0.035
0.026
0.004
-0.024
-0.055
0.004
0.110
0.025
-0.008
-0.012
0.072
0.020
0.058
0.031
0.082
-0.013
0.034
-0.081
-0.036
0.108
0.048
0.117
0.053
-0.020
-0.029
-0.016
-0.056
0.033
0.019
-0.064
0.068
0.060
0.004
-0.001
-0.001
-0.008
0.008
0.014
-0.004
0.023
0.104
-0.029
-0.016
0.031
0.038
-0.089
0.057
0.184
0.069
0.012
-0.086
-0.073
0.125
0.016
0.055
0.062
-0.002
0.002
0.049
-0.018
-0.002
0.012
0.024
0.077
0.020
-0.029
0.031
0.004
0.039
-0.075
0.042
0.104
0.002
-0.008
-0.065
0.026
0.052
0.052
0.068
-0.017
0.013
-0.024
0.025
0.289
0.080
-0.078
-0.378
-0.304
0.030
0.239
0.261
0.131
0.002
0.024
-0.042
-0.048
-0.120
0.079
-0.016
0.006
0.106
0.058
0.077
0.058
0.159
-0.023
0.027
0.016
0.069
0.026
-0.123
0.025
-0.029
0.090
-0.040
-0.097
0.196
0.132
-0.009
-0.114
-0.022
-0.073
-0.020
0.099
0.027
0.043
0.035
-0.028
-0.051
-0.088
0.066
0.050
0.108
0.019
0.003
0.004
0.061
-0.050
-0.127
0.073
0.118
0.092
0.006
0.036
-0.062
-0.025
-0.036
0.118
-0.015
-0.005
0.092
0.010
0.052
-0.187
-0.009
0.073
0.075
-0.057
0.060
0.101
0.017
-0.045
0.022
0.135
0.074
0.040
0.026
-0.111
-0.017
-0.019
0.033
-0.024
0.013
0.145
0.055
-0.081
0.011
0.034
-0.123
0.061
0.055
-0.094
0.043
0.048
0.071
0.029
0.054
-0.013
0.028
0.008
-0.015
0.007
-0.110
-0.015
0.035
0.047
0.088
0.080
0.009
-0.003
-0.014
-0.049
-0.009
0.022
0.065
-0.030
0.061
0.024
0.029
0.009
0.002
-0.039
-0.065
0.099
0.090
0.029
-0.028
-0.011
-0.104
0.054
0.182
-0.047
0.037
0.049
-0.054
0.065
-0.007
0.047
0.089
-0.058
0.111
0.097
-0.041
-0.000
-0.071
0.009
-0.012
-0.005
-0.009
0.022
0.020
-0.094
0.083
0.024
-0.048
0.015
-0.038
0.136
0.063
0.049
-0.056
0.028
0.033
0.009
0.008
0.099
0.162
0.302
-0.052
-0.289
-0.391
-0.103
0.134
0.289
0.165
0.136
-0.030
-0.081
-0.121
-0.088
-0.033
0.047
0.070
0.044
0.124
0.112
0.064
-0.019
0.004
0.019
-0.054
-0.045
0.025
0.015
-0.030
0.091
-0.074
-0.078
-0.018
0.116
0.087
0.017
0.054
0.008
0.067
-0.073
0.034
0.081
-0.019
0.233
0.036
-0.049
-0.053
-0.097
-0.049
-0.012
0.007
0.076
0.075
-0.071
0.076
0.021
0.085
-0.014
-0.064
-0.015
0.112
0.071
-0.045
-0.019
0.067
-0.026
0.050
-0.070
0.015
0.062
0.116
-0.088
-0.124
0.005
0.105
-0.083
0.032
0.017
0.015
-0.028
0.008
0.173
0.176
0.013
-0.072
-0.088
-0.026
0.137
0.004
0.066
-0.008
0.056
0.031
0.014
-0.008
-0.053
0.070
-0.074
0.092
-0.039
-0.042
-0.006
-0.001
0.015
0.048
0.051
0.006
0.046
0.024
-0.036
0.006
-0.017
-0.057
0.062
0.054
0.049
0.102
-0.019
-0.100
0.066
0.001
-0.077
0.000
0.135
0.171
0.039
-0.117
-0.045
0.032
-0.001
-0.013
0.069
0.020
0.014
0.003
0.102
0.075
0.064
0.030
-0.009
-0.075
-0.032
-0.033
0.084
-0.008
-0.025
0.079
0.021
0.148
-0.023
0.076
-0.035
-0.083
0.057
0.392
0.150
-0.228
-0.412
-0.223
0.127
0.248
0.264
0.088
0.019
-0.138
-0.125
0.007
-0.009
0.010
-0.027
0.114
-0.009
0.091
0.101
0.133
0.041
0.010
-0.074
-0.109
0.065
0.068
0.047
-0.071
0.099
0.114
-0.030
0.009
0.047
-0.157
0.018
0.079
0.162
0.008
0.085
0.037
0.000
-0.087
-0.045
-0.083
0.135
0.138
0.122
0.107
-0.089
-0.116
-0.027
0.053
0.111
0.067
0.169
0.040
-0.004
-0.033
-0.073
-0.029
0.081
-0.060
0.039
0.014
0.069
0.038
-0.006
-0.007
0.031
-0.011
0.024
0.073
-0.051
0.017
0.040
0.024
0.019
0.011
0.030
0.056
0.029
-0.008
-0.004
0.101
0.058
0.051
0.017
0.059
-0.020
-0.006
-0.035
-0.021
0.135
-0.042
-0.029
-0.054
0.036
0.104
0.061
0.068
0.033
-0.044
-0.027
0.025
-0.012
0.050
0.038
-0.068
0.060
0.002
-0.005
0.075
0.102
-0.010
-0.026
-0.090
0.055
0.094
0.041
0.019
-0.029
0.015
0.042
-0.022
0.030
-0.065
-0.074
-0.080
0.028
0.018
0.029
0.085
0.054
-0.006
0.077
0.032
-0.033
-0.084
0.042
0.020
0.049
-0.055
0.066
-0.013
-0.001
0.043
-0.007
0.018
0.023
0.083
-0.003
-0.066
0.068
0.084
0.116
0.021
-0.046
0.095
0.220
-0.060
-0.312
-0.313
-0.044
0.143
0.252
0.069
-0.005
-0.024
-0.074
-0.118
-0.013
-0.119
-0.007
0.174
0.164
0.172
-0.089
-0.057
0.059
-0.032
0.077
-0.022
0.067
0.020
-0.019
-0.067
0.060
-0.041
0.091
-0.071
-0.029
0.066
0.047
-0.002
0.003
-0.077
0.058
0.058
0.026
0.079
-0.089
-0.009
0.091
-0.022
-0.019
0.075
-0.005
0.039
0.000
0.133
0.062
0.008
-0.087
0.052
-0.044
0.041
-0.079
0.029
0.011
-0.030
0.028
0.163
0.028
-0.041
-0.078
0.059
0.106
0.043
0.045
0.017
-0.055
0.043
0.091
-0.112
0.032
0.007
-0.006
-0.005
-0.055
0.009
0.087
0.023
-0.058
0.069
0.159
0.080
0.033
-0.022
-0.020
-0.091
0.027
0.111
0.064
0.040
0.018
0.020
0.135
-0.016
-0.001
0.009
-0.032
-0.047
0.029
0.047
0.119
0.029
-0.139
0.006
-0.019
0.093
0.064
0.001
-0.082
-0.008
-0.005
0.052
0.060
0.019
0.048
0.034
-0.057
0.049
0.111
0.010
-0.052
-0.028
0.036
-0.042
0.127
0.106
0.014
0.042
-0.022
-0.063
-0.008
0.127
0.024
0.027
-0.008
0.025
0.067
-0.013
-0.016
-0.016
0.020
0.077
0.065
0.056
-0.008
-0.135
0.011
0.103
0.110
-0.008
0.000
-0.133
-0.040
-0.076
0.069
-0.067
0.161
0.054
-0.025
-0.002
0.039
0.063
-0.010
-0.014
0.017
0.045
-0.046
0.069
0.024
-0.023
0.026
0.116
0.107
-0.004
0.018
0.009
0.031
0.029
-0.004
-0.099
0.005
0.082
0.138
-0.007
0.103
0.342
0.094
-0.397
-0.381
-0.145
0.141
0.216
0.246
0.123
-0.073
-0.044
-0.102
-0.092
0.001
0.094
0.043
0.017
0.067
0.002
-0.017
0.054
0.048
0.032
0.077
-0.080
-0.012
-0.029
-0.005
0.082
0.037
-0.049
0.069
0.002
0.019
0.044
0.049
-0.061
0.027
0.100
0.019
-0.124
-0.028
0.193
0.161
-0.047
-0.125
-0.023
0.044
-0.035
0.079
-0.011
0.099
0.127
0.014
-0.067
-0.015
0.114
-0.006
0.016
0.005
0.025
0.038
-0.110
0.106
0.074
0.092
-0.024
0.024
0.018
-0.046
-0.095
0.057
-0.033
0.087
0.064
0.119
-0.016
-0.036
-0.000
-0.062
0.079
-0.013
0.016
0.085
0.000
-0.056
-0.066
-0.046
0.063
0.140
0.119
0.051
-0.058
-0.085
-0.015
0.076
0.079
0.055
0.045
-0.004
0.004
0.117
-0.028
-0.016
0.037
0.069
-0.011
0.081
0.013
0.053
-0.001
-0.070
0.012
-0.002
0.072
0.034
-0.052
0.062
0.044
-0.014
0.058
0.039
0.023
0.072
0.015
0.007
0.064
-0.012
-0.059
0.042
0.055
-0.094
0.020
0.006
0.104
0.051
-0.061
-0.015
-0.088
0.032
0.022
0.055
-0.006
0.005
0.081
0.123
-0.010
0.021
0.079
-0.067
0.009
0.009
-0.077
0.084
0.146
0.090
-0.042
-0.061
-0.102
0.048
0.076
0.023
0.045
-0.038
0.053
0.087
0.109
0.264
0.080
-0.336
-0.307
-0.222
-0.052
0.330
0.286
0.195
0.067
-0.121
-0.204
-0.045
-0.013
0.119
0.008
0.066
0.077
0.030
0.082
0.021
-0.047
-0.019
-0.033
-0.046
0.008
0.102
0.044
-0.068
-0.064
0.080
-0.058
0.061
0.087
-0.072
0.141
0.126
0.063
-0.019
-0.122
-0.068
-0.088
0.087
0.096
-0.007
0.030
0.028
-0.031
0.019
0.040
0.005
0.067
-0.013
-0.049
0.002
0.126
0.032
0.061
0.038
-0.060
0.008
-0.008
0.023
0.056
-0.041
0.094
0.038
-0.031
-0.063
0.084
-0.053
-0.030
0.019
-0.002
0.033
0.045
0.032
0.031
0.031
0.091
0.002
-0.052
-0.035
-0.070
0.073
0.081
-0.034
0.064
0.034
-0.019
0.080
-0.026
0.028
0.039
-0.053
-0.056
0.038
0.028
0.097
0.020
-0.085
0.054
0.109
0.019
0.026
0.047
0.042
0.106
0.017
-0.003
0.044
-0.014
-0.063
0.098
-0.016
-0.060
-0.015
0.047
0.095
-0.028
0.185
-0.013
-0.043
-0.017
0.081
-0.019
0.054
0.008
0.022
0.083
-0.002
-0.037
-0.012
-0.016
0.083
0.022
-0.010
-0.082
0.190
0.109
0.055
-0.066
-0.080
0.059
0.034
0.071
0.037
0.056
-0.057
0.031
0.029
0.032
-0.023
-0.012
0.034
0.145
0.049
0.007
0.065
0.046
0.077
-0.083
-0.021
-0.025
-0.004
0.084
0.086
0.117
0.042
-0.048
-0.096
0.039
-0.039
-0.025
0.131
0.126
0.050
0.096
0.047
-0.052
-0.051
0.044
0.014
0.159
0.190
-0.159
-0.311
-0.311
-0.057
0.244
0.315
0.150
-0.074
-0.105
-0.023
-0.009
-0.053
0.051
0.070
0.045
0.050
0.059
0.119
-0.011
-0.002
-0.010
0.160
-0.079
-0.121
-0.118
0.052
0.126
0.089
-0.028
-0.014
0.081
0.028
-0.032
0.027
0.026
-0.108
-0.010
0.114
0.016
-0.038
0.119
-0.014
-0.031
0.061
-0.004
-0.015
-0.026
0.059
0.011
-0.002
0.000
0.100
0.044
-0.007
0.077
-0.028
-0.042
-0.039
-0.041
0.098
0.079
0.013
0.004
-0.049
0.009
0.061
-0.046
0.100
-0.025
0.108
-0.065
-0.051
0.000
0.049
-0.070
0.031
0.147
0.021
0.021
0.015
-0.023
-0.082
-0.023
0.017
0.072
0.013
0.033
0.053
0.045
0.064
-0.032
0.063
0.046
-0.052
0.018
-0.050
0.029
0.010
0.081
0.035
0.107
0.042
0.044
0.077
-0.059
-0.035
-0.060
-0.010
0.043
0.059
0.048
0.119
0.079
0.051
-0.080
-0.133
-0.075
0.094
0.034
0.045
0.015
-0.023
-0.019
0.028
-0.042
0.040
0.034
0.049
0.056
0.009
-0.034
-0.018
0.037
0.012
0.032
0.095
-0.007
0.058
-0.007
-0.080
0.069
-0.065
0.069
0.076
-0.048
0.162
0.030
-0.047
-0.022
0.022
0.017
0.000
0.084
0.069
-0.002
0.017
-0.050
-0.054
0.045
0.052
0.021
0.005
-0.041
-0.061
0.001
-0.047
0.100
0.081
0.090
-0.044
-0.079
0.043
-0.011
0.030
0.096
0.022
0.003
-0.020
-0.076
-0.016
0.067
0.017
0.035
0.003
0.066
0.293
0.282
-0.117
-0.367
-0.456
-0.073
0.229
0.290
0.182
-0.000
-0.113
0.021
0.014
-0.050
-0.185
-0.001
0.218
0.045
0.058
-0.027
0.048
0.139
0.076
0.169
0.016
-0.091
-0.145
0.042
-0.006
-0.013
0.038
-0.046
0.031
0.088
0.052
-0.112
-0.056
-0.010
0.073
0.026
0.073
-0.054
0.022
0.066
0.086
0.045
0.007
-0.010
0.013
0.030
-0.050
0.040
0.014
-0.036
0.025
0.113
-0.070
-0.007
0.059
-0.031
-0.009
0.049
0.012
-0.028
0.034
-0.071
0.070
0.060
0.013
-0.007
-0.075
0.061
0.071
0.061
-0.000
-0.044
0.019
-0.001
0.017
0.064
-0.012
0.041
0.026
0.025
-0.041
0.059
-0.024
0.007
-0.033
-0.106
0.042
0.031
-0.059
0.044
-0.016
0.037
0.002
0.036
-0.052
0.002
0.135
0.153
0.008
-0.118
0.023
0.062
0.036
0.019
-0.026
0.072
-0.043
-0.053
0.069
0.047
-0.023
-0.010
0.060
0.048
0.006
-0.020
0.010
-0.104
-0.040
0.059
0.079
-0.056
0.030
0.047
-0.022
-0.011
0.021
0.093
-0.028
0.014
0.012
0.012
0.005
0.235
-0.005
0.053
0.085
-0.130
-0.062
0.038
0.054
0.075
0.046
0.036
0.046
-0.113
0.012
0.020
0.001
0.061
0.102
-0.017
0.019
0.027
-0.016
-0.049
-0.082
0.096
-0.005
0.031
-0.031
0.066
0.042
0.022
-0.042
-0.046
0.025
0.012
0.105
0.107
0.006
-0.062
-0.018
0.042
0.036
0.034
-0.070
0.053
-0.077
0.032
-0.021
0.063
0.078
0.004
-0.008
0.020
0.055
0.012
-0.019
0.012
0.036
-0.029
0.069
0.014
0.078
-0.007
-0.031
0.048
-0.081
-0.043
-0.043
0.083
0.073
-0.028
0.012
0.013
-0.106
0.002
0.018
0.052
0.080
-0.087
0.001
-0.063
0.132
0.005
-0.007
0.021
-0.107
0.058
0.025
-0.022
0.052
0.045
-0.008
0.050
0.011
0.028
-0.057
0.104
0.051
-0.011
0.008
0.038
0.077
0.010
0.049
0.090
-0.007
0.021
-0.059
0.072
0.017
-0.017
0.047
0.033
0.059
0.065
0.003
0.086
-0.051
-0.062
0.041
0.068
0.126
0.001
-0.007
-0.079
0.174
0.299
0.032
-0.390
-0.381
-0.162
0.219
0.253
0.104
0.215
-0.010
-0.042
-0.026
-0.228
-0.103
0.017
0.092
0.169
0.053
0.098
0.075
0.155
-0.068
0.062
-0.041
-0.092
0.116
0.103
-0.036
0.020
0.090
-0.018
-0.053
0.066
0.010
0.044
-0.012
0.031
-0.006
-0.031
0.015
-0.031
0.023
0.023
0.028
0.033
-0.106
0.022
0.055
-0.053
0.009
0.048
0.078
0.030
-0.012
0.027
0.129
-0.048
-0.050
0.027
-0.012
-0.002
0.065
-0.013
0.021
0.042
-0.035
-0.067
0.105
-0.031
-0.067
0.040
0.040
-0.057
-0.077
0.089
0.087
0.020
-0.069
0.011
-0.005
0.010
0.086
0.007
0.051
-0.040
-0.019
-0.010
-0.071
0.077
0.075
-0.033
0.096
0.021
0.001
0.015
0.049
0.025
-0.027
-0.072
0.020
0.018
0.042
0.048
0.047
0.038
0.026
0.005
0.085
-0.016
0.048
0.025
-0.001
0.039
0.011
-0.022
-0.034
0.002
0.203
0.003
0.021
0.032
-0.022
-0.049
-0.035
0.099
0.019
0.001
0.109
0.056
-0.021
0.038
0.049
0.037
-0.020
-0.066
0.035
-0.014
0.058
-0.136
0.007
0.220
0.015
-0.025
-0.069
-0.113
0.052
-0.032
0.089
0.065
0.059
0.112
-0.076
0.080
0.022
-0.055
-0.017
0.018
0.028
0.069
0.007
-0.055
-0.077
0.006
0.056
0.160
0.096
0.057
0.037
-0.051
-0.031
0.012
0.007
-0.040
0.072
0.040
0.046
0.009
0.102
0.003
-0.054
-0.095
-0.044
0.036
0.131
0.012
0.019
-0.031
0.018
-0.011
-0.031
0.039
-0.014
0.047
0.027
0.076
-0.003
0.065
-0.116
0.016
0.064
-0.030
0.037
0.001
-0.036
0.027
0.114
0.016
0.000
0.019
0.003
0.076
0.034
-0.015
0.016
-0.066
0.071
0.020
0.032
-0.049
0.040
0.111
0.003
0.017
0.054
0.108
0.052
0.010
0.058
-0.046
0.018
-0.024
0.029
0.065
0.091
-0.014
-0.071
-0.009
0.026
-0.049
0.008
0.126
0.123
0.051
-0.063
-0.009
0.026
0.008
-0.079
-0.060
0.052
0.051
0.203
0.038
0.078
0.010
-0.026
0.009
0.023
-0.038
0.034
-0.039
-0.061
0.089
0.073
0.037
0.028
-0.033
-0.018
-0.053
-0.044
0.062
0.037
0.074
-0.079
0.018
0.035
0.020
0.024
-0.021
-0.031
0.076
0.076
0.006
0.108
0.049
0.014
0.062
-0.069
-0.138
-0.040
0.017
0.112
0.066
0.032
-0.026
-0.031
0.014
-0.014
-0.020
-0.098
-0.114
0.115
0.064
0.007
0.027
0.148
-0.072
-0.037
-0.005
0.009
-0.009
0.041
0.031
0.099
0.046
-0.059
-0.018
-0.033
0.026
0.018
0.074
-0.039
-0.110
0.126
-0.073
-0.005
0.003
0.079
0.014
0.065
-0.093
-0.009
-0.024
0.067
0.040
-0.010
0.037
0.120
0.042
0.035
-0.024
-0.007
-0.044
-0.053
0.079
0.126
0.015
-0.025
-0.002
0.062
-0.099
-0.011
0.012
0.092
0.113
0.002
0.018
-0.016
-0.024
0.059
0.115
0.008
-0.009
-0.138
0.026
0.036
-0.063
0.058
0.094
-0.022
0.002
-0.066
0.092
0.059
0.023
-0.008
0.030
0.049
-0.007
0.079
-0.049
-0.025
0.015
0.012
0.106
0.003
0.050
0.002
0.112
-0.051
-0.035
-0.028
0.022
0.007
0.076
0.145
0.070
-0.124
0.076
0.052
0.118
0.070
-0.011
-0.138
-0.060
0.034
-0.032
0.042
0.037
0.052
0.044
-0.035
-0.039
0.062
-0.099
-0.009
0.097
-0.040
0.053
-0.041
0.096
0.060
0.098
-0.036
-0.029
-0.054
0.021
0.006
0.077
0.030
0.025
-0.022
0.064
-0.039
0.053
0.148
-0.006
-0.131
-0.006
0.055
0.060
-0.009
0.045
0.060
-0.031
0.049
0.073
-0.002
-0.057
-0.072
-0.030
0.149
-0.073
0.047
0.084
-0.173
0.049
0.009
0.110
0.007
0.017
-0.008
0.025
0.091
-0.024
-0.020
0.042
0.077
-0.009
-0.033
0.069
0.052
-0.073
0.031
0.052
0.056
0.054
-0.012
-0.017
0.046
0.017
0.044
0.064
-0.003
-0.032
-0.037
0.001
0.085
-0.035
-0.018
0.022
0.004
0.067
0.085
0.011
-0.066
0.082
0.044
-0.027
0.090
-0.000
0.014
0.021
0.088
0.073
-0.096
0.001
0.078
0.032
0.002
-0.008
-0.094
0.024
0.056
0.062
0.070
0.035
-0.041
-0.059
0.021
-0.052
0.031
0.149
0.119
0.079
0.122
-0.193
-0.173
0.110
0.069
0.040
0.007
0.061
0.056
0.022
-0.061
0.037
-0.123
0.041
0.065
0.062
-0.024
0.068
0.005
0.068
0.294
0.250
-0.161
-0.374
-0.395
-0.050
0.220
0.385
0.161
0.004
-0.025
-0.078
-0.072
-0.040
-0.085
0.065
0.086
0.101
0.056
0.053
-0.003
0.106
-0.044
-0.037
0.145
0.003
0.002
0.034
-0.042
-0.149
0.036
0.036
-0.005
0.115
0.021
0.006
0.017
0.034
-0.034
0.014
0.032
0.042
0.018
-0.080
0.038
0.094
-0.032
0.075
-0.031
0.035
-0.067
0.047
0.028
0.017
-0.009
0.055
0.038
0.005
0.153
0.022
-0.022
-0.001
-0.124
0.089
0.212
0.062
-0.063
0.058
-0.023
0.075
0.020
-0.013
0.087
0.016
-0.039
0.017
-0.019
0.051
0.010
0.005
-0.024
0.084
0.044
-0.069
0.008
0.037
0.036
0.000
0.006
0.008
-0.069
0.026
0.061
0.116
0.087
0.082
-0.119
-0.040
-0.033
0.020
0.043
0.060
0.075
0.056
0.007
0.102
-0.043
-0.047
-0.028
-0.018
0.135
0.019
-0.059
-0.044
0.078
0.077
0.023
0.014
-0.120
-0.020
0.138
0.032
0.040
0.032
0.044
0.122
-0.034
0.004
-0.071
0.061
0.068
0.051
0.031
-0.003
0.024
0.071
-0.026
-0.145
-0.072
-0.005
0.026
0.089
0.069
0.011
-0.035
0.031
-0.043
0.049
-0.044
0.031
0.074
0.075
0.087
0.047
-0.010
-0.025
0.088
0.045
0.061
-0.013
0.044
0.021
0.062
-0.049
0.031
0.115
0.054
0.016
-0.074
0.010
0.188
0.286
0.065
-0.344
-0.412
-0.123
0.133
0.383
0.172
0.049
-0.026
-0.007
0.031
-0.013
-0.055
-0.068
0.059
0.070
0.130
-0.014
0.035
0.150
0.057
0.025
0.161
-0.047
-0.022
-0.057
0.060
0.016
0.011
0.042
0.063
0.037
0.046
-0.066
-0.091
-0.055
0.092
0.000
-0.014
0.129
0.073
0.044
-0.035
-0.166
0.008
-0.029
0.147
0.114
0.039
0.086
0.090
-0.006
-0.045
0.047
-0.098
-0.003
-0.049
0.015
-0.004
-0.029
0.203
0.031
0.024
0.006
-0.029
0.027
-0.012
-0.075
0.086
0.113
0.035
0.003
-0.029
-0.007
-0.041
-0.040
-0.075
0.114
0.056
-0.041
0.060
0.016
-0.018
-0.010
0.001
0.033
0.023
-0.092
0.040
0.081
-0.072
-0.033
0.028
-0.010
0.015
0.072
0.079
0.037
0.033
-0.081
0.059
0.012
-0.065
0.076
0.098
0.038
-0.053
-0.007
0.080
0.060
0.023
0.003
0.092
0.025
-0.044
-0.026
-0.010
0.037
-0.087
0.061
0.127
-0.035
-0.009
-0.012
0.126
-0.057
-0.016
0.041
0.019
0.041
0.026
-0.061
-0.008
0.027
-0.045
0.158
0.053
0.050
0.009
0.014
-0.033
0.026
0.118
0.023
0.040
-0.042
-0.136
-0.026
0.071
-0.037
0.136
0.002
0.057
0.087
0.097
0.033
-0.096
-0.080
0.072
-0.048
0.040
0.105
0.063
-0.071
-0.082
0.035
0.049
0.049
-0.091
-0.024
0.037
0.013
0.043
0.137
0.276
0.024
-0.288
-0.429
-0.115
0.223
0.328
0.240
0.033
-0.083
-0.031
-0.080
-0.006
-0.053
-0.043
-0.010
0.041
0.085
0.187
0.064
0.017
-0.007
0.039
-0.117
0.034
0.053
-0.015
0.041
-0.038
-0.040
-0.031
0.066
-0.022
-0.026
0.033
0.058
-0.037
-0.001
0.018
0.003
0.039
0.048
0.035
0.053
-0.046
0.070
0.041
0.053
0.055
-0.051
-0.088
0.002
0.042
0.113
0.120
-0.080
-0.000
-0.117
-0.053
-0.019
0.057
0.000
0.094
-0.014
0.055
0.046
-0.015
0.009
0.031
-0.098
0.070
-0.008
-0.051
0.089
0.036
-0.005
-0.071
-0.011
0.086
0.066
0.070
-0.057
0.034
-0.011
0.074
-0.055
0.082
0.036
0.050
0.043
-0.051
-0.005
0.106
0.018
-0.003
0.040
0.050
-0.007
0.094
-0.100
-0.083
0.074
0.042
0.022
0.067
0.069
0.055
0.045
-0.080
-0.014
0.004
-0.062
-0.022
0.059
0.031
0.129
-0.005
0.028
0.074
-0.045
0.034
-0.026
0.051
0.112
0.065
0.057
-0.110
0.036
0.088
0.114
0.071
-0.079
-0.013
-0.029
0.094
-0.011
0.104
-0.009
0.066
0.039
0.104
-0.055
-0.081
0.053
0.156
-0.030
0.018
0.067
-0.060
0.038
0.074
0.093
0.048
0.006
-0.086
0.009
0.090
0.045
-0.002
0.112
-0.004
-0.029
-0.012
0.053
0.005
0.049
-0.010
0.001
-0.004
0.010
0.062
0.014
-0.073
-0.015
0.002
0.086
-0.025
0.004
0.016
0.126
-0.003
-0.005
0.024
-0.021
-0.001
0.019
0.130
-0.029
0.069
0.044
-0.004
-0.048
0.029
0.144
0.055
0.176
0.249
-0.160
-0.437
-0.301
-0.148
0.248
0.390
0.168
-0.002
-0.071
-0.145
-0.092
-0.010
-0.115
0.092
0.116
0.007
-0.012
-0.086
0.217
0.146
0.151
-0.008
-0.026
-0.046
0.020
-0.071
-0.001
-0.038
-0.056
-0.000
0.057
0.133
0.116
0.020
-0.021
-0.034
0.031
0.003
-0.053
0.040
0.044
0.030
0.087
0.109
0.054
0.079
-0.098
0.015
0.018
0.072
0.050
0.043
-0.026
0.025
0.052
0.045
0.033
-0.034
0.059
0.017
-0.035
0.073
-0.031
-0.025
-0.016
0.045
-0.008
0.060
0.076
0.047
-0.027
-0.058
-0.007
-0.023
0.057
0.038
-0.025
0.004
0.025
0.106
0.076
0.001
-0.028
0.056
-0.068
0.108
0.025
0.062
0.043
0.041
-0.022
0.040
0.001
0.066
-0.029
-0.009
-0.030
-0.052
0.037
0.092
0.053
0.054
-0.032
0.002
0.023
0.027
0.046
-0.060
0.038
0.013
0.045
0.086
-0.092
0.037
0.069
0.015
-0.019
0.063
-0.045
-0.042
-0.036
-0.018
0.067
-0.007
-0.018
0.073
0.102
0.111
0.014
0.031
-0.005
-0.078
-0.000
-0.022
-0.055
0.008
0.158
0.040
0.036
-0.034
-0.014
-0.026
-0.085
-0.054
0.003
0.032
0.091
0.062
0.030
-0.046
0.020
0.095
0.032
0.049
0.059
0.033
-0.047
0.007
0.016
0.008
0.073
-0.016
0.104
-0.024
-0.092
0.022
0.134
0.055
0.004
-0.024
0.063
-0.040
0.028
-0.063
0.063
0.030
-0.052
0.019
0.028
-0.023
0.044
-0.011
-0.032
0.026
0.013
0.078
0.010
-0.073
0.033
-0.007
0.025
0.049
0.067
-0.030
0.017
0.036
-0.001
0.332
0.228
-0.197
-0.420
-0.236
0.032
0.228
0.227
0.118
0.077
0.011
-0.059
-0.072
-0.006
0.035
0.082
0.039
-0.035
0.040
-0.037
0.044
0.024
-0.014
0.036
0.023
0.064
0.078
0.033
0.082
-0.060
0.007
0.026
-0.018
0.038
0.087
0.019
0.027
0.034
-0.049
-0.003
-0.007
-0.059
0.030
0.117
-0.002
-0.028
0.009
0.151
0.092
0.115
-0.013
-0.154
-0.095
0.050
0.054
0.048
0.091
-0.021
0.040
0.045
0.007
0.031
0.027
-0.042
-0.077
-0.002
0.106
0.090
-0.120
0.034
0.017
-0.012
0.096
-0.040
-0.031
0.015
0.088
0.035
-0.037
0.040
-0.063
0.022
0.006
0.025
-0.026
0.037
0.034
0.015
0.070
-0.026
-0.021
0.022
0.081
-0.003
0.001
0.063
-0.014
0.062
-0.002
-0.048
0.097
0.052
-0.105
0.056
-0.028
0.015
-0.043
0.022
-0.073
-0.003
0.050
0.095
0.038
-0.081
0.033
-0.035
-0.038
0.052
0.130
-0.001
0.125
0.001
-0.005
0.013
-0.017
-0.067
-0.023
0.081
0.061
0.028
-0.016
0.046
0.005
0.054
0.010
0.028
0.035
0.086
0.024
-0.077
0.097
0.041
0.027
-0.041
0.014
0.016
-0.057
0.046
0.049
0.071
-0.044
-0.089
-0.029
0.025
0.192
0.085
0.000
0.102
0.046
-0.000
-0.035
-0.005
0.033
-0.070
0.057
0.104
-0.033
-0.033
0.053
0.072
0.051
-0.055
-0.026
0.110
-0.002
0.023
-0.016
0.062
0.046
-0.027
-0.023
-0.008
-0.033
0.098
0.144
0.247
0.122
-0.354
-0.383
-0.138
0.051
0.181
0.266
0.012
-0.027
-0.073
-0.127
-0.056
0.026
0.018
0.082
0.042
0.156
0.118
0.043
-0.018
0.063
0.003
0.059
0.037
0.013
0.098
-0.006
-0.072
-0.107
0.078
0.035
0.012
0.011
-0.038
-0.106
-0.019
-0.079
0.074
0.128
0.086
-0.072
0.030
-0.004
0.029
-0.000
-0.069
0.028
0.076
0.011
-0.010
0.100
-0.003
0.035
0.007
0.009
-0.030
0.090
0.099
-0.018
-0.040
0.023
-0.027
0.029
0.116
0.027
-0.059
0.071
0.046
0.049
0.013
-0.001
0.049
0.096
0.019
-0.000
-0.007
-0.048
0.075
0.059
-0.090
-0.033
0.079
-0.043
-0.014
-0.007
0.051
0.103
0.047
0.104
-0.145
-0.076
-0.058
0.132
0.110
0.059
0.049
0.021
0.132
0.003
-0.034
0.027
-0.039
-0.008
0.008
0.049
0.091
0.049
-0.051
-0.042
-0.008
0.035
-0.006
0.017
-0.002
0.026
0.003
0.053
-0.005
0.002
-0.063
-0.021
0.130
0.077
-0.006
-0.058
0.006
0.043
-0.059
0.128
0.061
0.032
0.042
0.009
0.055
-0.051
0.052
0.021
0.008
0.073
-0.009
0.093
-0.076
-0.072
0.125
-0.006
0.008
0.068
0.031
0.001
-0.038
0.012
0.036
0.048
-0.069
0.014
0.061
0.034
0.061
-0.026
0.009
-0.064
0.054
0.031
0.036
0.031
0.031
0.038
-0.022
-0.030
0.005
0.027
0.062
0.066
0.061
0.010
0.021
-0.109
0.064
-0.013
-0.010
0.076
0.044
0.021
0.064
0.263
0.227
-0.071
-0.360
-0.348
-0.032
0.167
0.323
0.281
0.028
-0.190
0.016
-0.021
-0.150
0.037
0.048
-0.023
0.071
0.123
0.147
-0.023
-0.021
-0.014
0.027
0.070
-0.009
0.048
-0.005
0.022
0.033
-0.034
0.086
0.002
0.109
0.059
-0.058
-0.069
-0.057
0.007
0.064
0.056
0.079
0.007
0.048
-0.043
-0.001
0.043
0.043
-0.002
0.031
0.053
-0.021
0.000
0.057
0.053
0.066
0.055
-0.079
0.122
-0.029
0.044
0.006
0.018
0.009
0.022
-0.018
-0.023
0.127
0.023
-0.044
0.040
0.053
-0.008
0.038
0.133
-0.060
0.015
0.075
-0.057
-0.106
0.069
0.076
0.050
-0.048
0.032
0.004
0.001
-0.008
0.020
0.071
0.055
0.037
0.044
0.091
-0.042
0.059
-0.027
0.004
0.085
0.075
0.075
-0.001
-0.058
-0.051
0.063
0.137
0.094
-0.068
-0.051
0.023
0.037
-0.034
-0.018
-0.020
0.087
0.112
-0.067
-0.041
0.095
0.010
-0.009
0.032
-0.017
0.016
0.089
0.045
0.002
-0.020
0.010
0.109
0.046
-0.089
0.010
0.061
0.086
-0.058
0.077
0.076
-0.019
0.089
-0.089
-0.145
0.049
0.154
0.074
0.015
-0.092
0.085
0.121
-0.050
0.111
-0.006
-0.100
0.067
-0.060
0.029
-0.006
0.000
-0.027
0.073
0.131
0.027
0.027
-0.034
0.197
0.375
-0.106
-0.327
-0.352
-0.118
0.145
0.297
0.176
0.031
-0.077
-0.114
-0.135
-0.129
0.013
0.056
0.112
0.179
-0.086
-0.004
0.053
0.017
0.055
0.093
0.083
-0.020
-0.065
0.016
-0.128
-0.101
0.042
0.104
0.076
-0.011
0.021
-0.021
-0.015
0.009
0.151
0.031
0.016
0.034
-0.045
0.062
-0.030
-0.053
-0.015
-0.056
0.161
-0.062
-0.083
0.063
0.031
0.096
-0.018
0.044
0.009
0.028
0.023
-0.142
0.102
0.058
0.068
0.011
-0.068
-0.033
-0.057
0.012
0.078
0.074
-0.013
0.009
0.051
-0.019
0.045
-0.031
-0.009
0.053
-0.040
0.046
0.051
0.053
0.076
-0.026
0.038
-0.057
0.034
0.113
0.071
-0.033
-0.089
0.044
0.047
-0.107
-0.055
0.043
0.177
0.070
0.055
-0.008
-0.013
0.031
0.023
0.055
-0.012
-0.012
0.077
-0.021
0.136
-0.107
-0.010
0.025
-0.052
-0.072
-0.059
0.143
0.103
-0.002
-0.044
0.004
0.137
0.017
-0.009
0.061
0.095
0.056
-0.019
0.022
-0.011
0.029
0.044
-0.043
0.064
-0.008
-0.045
0.102
-0.035
0.028
-0.006
0.040
-0.022
0.014
-0.005
0.078
0.073
-0.021
0.032
0.044
0.017
-0.102
0.069
0.060
-0.001
0.022
0.088
0.012
-0.004
-0.027
0.075
0.162
-0.012
-0.025
-0.042
0.056
0.046
0.079
-0.003
0.119
0.039
-0.017
-0.085
-0.018
0.081
-0.018
0.055
-0.129
-0.052
0.068
0.203
0.032
-0.007
-0.040
0.242
0.324
-0.013
-0.309
-0.380
-0.056
0.242
0.305
0.183
0.069
-0.145
-0.028
-0.151
0.012
0.003
0.073
0.085
0.042
-0.015
0.084
0.002
0.039
-0.003
0.086
0.103
0.050
-0.144
0.128
0.095
-0.004
0.055
-0.022
-0.014
-0.011
-0.045
0.050
0.018
0.101
-0.041
0.017
0.008
0.063
0.055
0.029
-0.048
0.000
0.037
0.006
0.081
0.034
0.108
0.010
-0.068
-0.011
-0.001
0.015
-0.023
0.078
-0.015
0.053
-0.055
-0.048
-0.062
-0.018
0.083
0.075
0.020
0.080
0.027
0.104
0.023
-0.034
-0.006
0.055
0.050
-0.045
0.081
0.004
-0.038
0.013
-0.018
-0.012
-0.051
0.078
0.124
0.129
0.201
-0.097
-0.171
-0.104
0.048
0.002
0.088
0.122
0.069
-0.029
-0.052
0.039
-0.062
-0.045
0.098
0.018
-0.019
0.018
0.053
0.000
-0.037
0.073
0.027
0.147
0.011
0.005
0.012
-0.074
-0.046
0.011
0.025
-0.020
-0.021
0.136
0.001
-0.045
0.024
-0.035
-0.053
0.037
0.088
0.136
0.018
-0.047
0.036
0.053
-0.049
0.022
0.009
0.131
0.068
0.040
-0.060
-0.065
0.051
0.102
0.044
0.024
-0.049
-0.017
0.135
0.086
0.046
-0.062
-0.060
0.142
0.253
-0.003
-0.190
-0.269
-0.182
0.071
0.253
0.097
0.004
0.030
-0.008
-0.094
0.008
0.062
-0.030
0.023
0.078
0.016
0.110
-0.050
0.104
0.083
0.065
-0.005
-0.045
-0.018
0.002
0.124
0.058
-0.062
0.138
0.086
-0.040
0.016
0.012
-0.112
0.014
0.072
0.062
-0.003
-0.031
0.014
0.016
0.020
-0.017
0.003
0.010
0.044
-0.070
0.119
-0.009
0.015
0.097
0.068
0.071
0.060
0.073
-0.062
0.007
-0.084
0.115
0.043
0.084
0.005
-0.079
-0.020
0.009
0.104
0.081
0.061
0.014
-0.111
0.014
-0.029
-0.001
0.037
0.001
0.051
0.017
-0.057
0.094
0.048
-0.053
0.053
0.133
0.085
-0.006
0.020
-0.047
-0.060
0.100
0.061
0.042
0.083
-0.013
-0.050
0.051
-0.008
-0.002
0.041
-0.058
-0.038
0.039
0.085
-0.003
-0.013
0.077
0.040
-0.097
-0.059
-0.013
-0.038
0.114
0.057
0.001
0.020
0.041
-0.003
-0.005
-0.025
0.006
0.137
-0.101
0.047
-0.016
-0.001
0.088
0.019
0.110
-0.020
-0.009
0.067
-0.042
-0.041
0.077
0.088
-0.005
0.028
0.071
-0.023
0.013
0.019
0.027
-0.032
-0.053
0.072
0.000
-0.028
-0.013
0.066
0.047
0.010
-0.019
-0.064
0.005
-0.007
0.103
0.008
0.043
-0.065
0.208
0.220
-0.189
-0.282
-0.354
0.066
0.296
0.199
0.109
0.080
-0.100
-0.119
-0.086
-0.042
0.141
0.134
-0.023
-0.054
0.048
-0.034
0.092
0.130
0.050
-0.029
-0.013
-0.036
0.028
0.023
0.005
0.030
-0.036
-0.013
-0.040
0.011
-0.046
0.081
0.059
0.089
-0.016
0.001
0.086
-0.008
-0.061
-0.009
0.066
0.024
-0.027
-0.087
0.017
-0.011
0.055
0.046
-0.022
0.014
-0.064
0.023
0.020
0.062
0.097
0.058
0.045
0.010
0.037
-0.048
0.003
-0.038
0.038
0.079
0.040
-0.100
-0.046
0.020
0.047
0.035
-0.029
0.030
-0.068
0.101
0.072
-0.041
0.094
0.059
-0.039
0.087
-0.123
-0.022
-0.054
0.036
0.078
0.015
-0.044
-0.042
0.071
0.004
0.017
0.029
0.093
0.042
-0.106
-0.042
-0.008
0.138
0.160
-0.012
-0.020
0.042
0.049
0.052
-0.137
0.002
-0.014
0.007
0.120
-0.036
0.156
-0.017
0.002
0.004
0.010
0.114
-0.022
0.083
-0.075
0.062
0.021
0.055
0.081
-0.044
-0.026
0.027
0.035
-0.031
-0.027
-0.016
0.107
0.016
0.114
-0.002
-0.016
0.000
-0.055
0.051
0.009
0.096
0.034
0.011
-0.048
-0.033
0.025
0.148
-0.014
-0.031
0.073
0.017
0.009
-0.066
0.006
0.090
0.095
0.027
0.131
-0.157
-0.047
0.095
0.095
-0.056
0.047
0.090
0.020
0.076
0.005
0.107
-0.067
0.044
-0.078
-0.001
0.140
-0.013
0.057
-0.086
-0.044
0.116
0.160
0.111
0.040
0.087
0.186
-0.145
-0.337
-0.266
-0.047
0.200
0.245
0.225
-0.034
-0.139
-0.160
0.008
-0.071
-0.060
0.060
0.142
0.013
0.140
0.033
0.037
0.012
0.121
-0.026
-0.030
0.003
-0.058
0.037
0.000
-0.014
0.037
0.023
-0.035
0.047
0.002
0.003
0.081
0.060
0.061
-0.048
-0.021
0.033
-0.014
0.022
-0.052
0.037
-0.028
-0.079
0.050
0.033
0.081
0.005
0.006
-0.096
-0.075
-0.021
0.045
0.028
0.131
0.003
0.124
-0.052
-0.034
-0.039
0.073
-0.054
0.050
0.083
0.075
-0.031
-0.064
-0.032
0.084
-0.063
0.102
-0.005
-0.052
-0.007
-0.063
-0.018
0.192
0.069
0.053
0.026
0.007
0.016
-0.004
-0.066
-0.065
0.117
0.129
0.008
-0.033
0.057
0.112
0.021
0.060
-0.032
-0.029
-0.051
0.042
0.014
-0.039
0.137
0.057
-0.125
0.017
0.046
0.114
0.129
0.001
-0.088
-0.025
-0.037
0.045
0.080
0.113
0.057
-0.041
-0.015
0.053
0.012
0.054
0.068
0.027
-0.031
-0.022
0.054
0.026
-0.018
0.072
-0.044
0.028
0.148
0.072
0.054
0.029
-0.083
-0.138
0.024
0.006
0.120
-0.054
0.009
0.073
0.111
-0.020
-0.007
-0.047
-0.099
0.048
-0.030
0.034
0.029
0.032
0.066
-0.039
0.011
0.023
-0.007
0.028
0.064
-0.039
-0.037
0.021
0.139
0.079
0.014
-0.069
0.020
0.296
-0.041
-0.257
-0.257
-0.105
0.073
0.244
0.221
-0.001
-0.035
-0.146
0.021
-0.076
-0.019
0.034
0.012
0.035
0.146
0.081
-0.053
-0.007
0.022
0.083
-0.019
-0.006
0.023
-0.035
-0.002
-0.064
0.117
0.034
-0.076
-0.093
0.037
0.017
-0.006
-0.000
0.059
0.128
-0.034
-0.053
0.067
0.021
-0.037
0.031
0.031
0.077
-0.003
0.103
0.069
-0.007
-0.035
-0.006
-0.095
0.040
0.062
0.100
0.124
0.136
-0.055
0.011
0.054
-0.016
-0.023
-0.058
-0.092
0.022
0.024
0.043
0.004
-0.032
0.060
0.102
0.053
-0.008
0.007
0.113
-0.048
-0.035
-0.009
0.082
0.074
0.007
-0.065
0.173
0.053
0.031
-0.037
-0.052
-0.016
-0.003
0.101
0.084
0.080
0.026
0.005
-0.074
-0.006
-0.010
-0.037
-0.008
0.094
0.093
0.067
0.009
-0.060
0.007
0.083
0.041
-0.034
0.076
0.020
0.035
0.009
-0.067
0.104
0.049
0.136
0.065
-0.099
-0.012
-0.016
0.067
0.106
0.071
0.016
0.058
-0.061
0.050
0.055
0.025
0.028
-0.002
0.063
0.069
-0.037
-0.012
0.026
-0.004
0.052
-0.031
0.124
-0.012
0.033
-0.005
0.032
0.025
-0.047
0.040
0.023
0.020
-0.019
0.008
-0.015
0.136
0.101
-0.002
0.247
0.283
-0.107
-0.378
-0.394
-0.043
0.181
0.257
0.276
0.057
-0.022
-0.177
-0.064
-0.047
0.011
-0.012
0.111
0.032
0.053
0.067
0.112
0.134
0.028
-0.066
0.020
0.061
-0.019
0.069
0.025
-0.089
0.063
-0.012
-0.055
-0.077
0.053
-0.063
0.021
0.102
0.040
-0.069
0.070
0.023
-0.131
0.053
0.021
0.083
0.068
-0.040
-0.014
0.011
0.045
0.020
0.016
-0.040
0.035
0.102
0.001
-0.062
0.036
0.033
-0.037
0.162
-0.048
-0.069
0.024
0.110
0.009
-0.039
0.023
0.072
0.017
-0.084
-0.014
0.031
0.003
0.113
0.015
-0.019
0.004
0.033
0.116
-0.008
0.003
-0.001
0.044
0.043
0.098
-0.083
0.038
0.061
0.005
0.039
-0.070
0.195
-0.011
-0.026
-0.018
0.015
0.001
0.004
0.020
-0.019
-0.108
0.165
0.164
-0.012
0.007
-0.019
0.045
-0.052
-0.044
0.009
0.097
0.049
0.059
0.078
-0.024
-0.013
0.108
-0.039
0.016
0.016
0.045
0.031
0.025
0.029
0.017
0.054
0.003
-0.039
0.029
0.010
0.008
0.029
0.045
0.037
0.003
0.069
-0.054
0.015
0.089
-0.008
-0.030
-0.070
0.108
0.080
0.104
0.037
-0.026
0.019
0.048
0.012
-0.028
-0.022
-0.015
0.102
0.075
0.330
0.039
-0.230
-0.288
-0.168
0.122
0.295
0.237
0.006
-0.020
-0.117
0.012
-0.007
0.025
-0.041
-0.075
-0.031
0.239
0.149
0.053
0.056
-0.038
-0.003
-0.021
-0.012
0.026
0.133
-0.017
0.031
0.023
0.014
-0.007
-0.088
0.013
-0.014
0.077
0.068
0.063
0.005
0.009
0.057
0.080
-0.044
0.016
-0.085
-0.067
0.068
0.241
0.080
-0.056
0.033
0.042
-0.091
-0.031
-0.021
0.103
-0.047
-0.008
0.007
-0.016
0.084
0.080
0.004
-0.030
0.064
-0.018
-0.041
-0.030
0.060
0.055
0.111
0.034
0.033
0.069
-0.102
-0.145
-0.041
0.085
0.158
0.021
0.089
0.045
-0.008
0.045
-0.064
-0.039
-0.089
-0.138
0.201
0.199
0.016
-0.080
-0.025
0.066
-0.054
0.015
-0.029
0.008
0.060
0.084
-0.038
0.020
-0.003
-0.015
0.005
0.051
0.142
0.033
-0.018
-0.078
0.035
0.028
0.116
0.035
0.013
-0.005
0.039
0.003
0.010
-0.009
0.043
0.007
0.002
-0.003
0.100
0.063
-0.034
-0.018
0.071
0.037
-0.004
0.065
0.009
0.016
-0.020
0.026
0.023
-0.039
0.099
0.068
-0.059
-0.080
0.009
0.069
-0.037
0.023
0.006
0.032
0.127
0.066
0.007
0.068
0.027
0.030
0.068
-0.015
0.339
0.086
-0.235
-0.268
-0.258
0.072
0.212
0.285
0.055
-0.022
-0.084
-0.117
-0.037
-0.088
0.050
0.065
0.037
0.053
0.047
0.185
0.122
0.036
-0.149
-0.051
0.090
-0.015
0.055
0.024
-0.027
-0.050
0.044
0.076
0.003
-0.008
0.011
0.008
-0.033
-0.013
0.054
0.004
0.029
0.032
0.045
0.027
0.015
-0.130
0.048
0.018
0.051
0.062
-0.074
0.094
-0.011
0.062
-0.053
-0.035
0.042
-0.080
0.156
0.055
0.000
-0.035
0.080
0.011
-0.010
-0.056
0.048
0.045
-0.029
-0.042
0.002
0.066
0.136
0.020
-0.017
-0.052
-0.028
0.053
0.002
0.076
0.048
-0.046
0.072
-0.000
0.121
-0.062
0.055
-0.011
-0.027
-0.069
-0.082
-0.002
-0.013
0.133
0.102
0.045
-0.130
-0.030
0.013
-0.055
0.077
0.096
0.094
-0.011
-0.027
-0.051
0.041
-0.037
0.014
0.009
0.060
-0.010
0.046
0.084
0.014
-0.009
-0.018
0.032
0.096
0.052
-0.101
-0.081
0.080
0.047
-0.028
0.135
0.072
-0.034
0.006
-0.124
0.010
0.028
-0.082
-0.048
0.002
0.074
0.121
0.045
-0.018
0.031
-0.050
0.025
-0.009
0.099
0.023
0.072
0.078
0.006
0.100
-0.028
-0.054
0.006
0.039
0.020
0.014
0.049
0.041
0.009
-0.042
-0.007
0.058
0.114
-0.017
-0.052
0.048
0.089
0.031
0.093
0.050
-0.011
0.015
0.007
0.073
-0.056
0.047
0.137
0.227
-0.095
-0.305
-0.324
-0.109
0.185
0.266
0.134
0.059
0.060
-0.019
-0.113
-0.132
-0.052
-0.010
0.163
0.109
0.054
0.026
0.103
0.016
0.034
0.104
-0.020
-0.021
-0.032
-0.005
0.054
0.017
-0.005
-0.020
0.044
0.092
0.114
-0.108
-0.021
0.027
0.039
0.023
0.019
-0.040
0.056
0.023
0.008
0.030
-0.010
0.003
-0.002
-0.028
0.016
0.002
0.037
0.017
0.013
0.040
-0.003
-0.062
0.045
-0.036
0.061
0.043
0.010
0.065
-0.038
-0.028
0.043
0.006
-0.088
0.020
0.110
0.072
0.030
-0.073
0.011
-0.039
-0.065
0.008
0.179
0.151
-0.022
0.037
-0.042
0.057
0.005
0.021
-0.008
-0.063
0.014
0.062
0.082
-0.025
0.049
0.018
-0.056
0.026
-0.030
0.116
0.013
-0.036
0.011
-0.098
-0.020
0.191
0.116
-0.019
-0.043
0.034
-0.002
-0.082
0.075
0.094
-0.121
-0.013
0.124
-0.025
-0.025
0.079
-0.033
-0.031
0.081
0.024
0.071
-0.107
-0.078
0.075
0.052
0.024
0.009
0.063
-0.028
0.001
-0.031
0.010
-0.022
0.033
0.096
0.042
0.009
-0.056
0.065
-0.037
0.012
-0.071
0.061
0.062
0.180
0.020
-0.108
0.075
-0.003
0.066
-0.046
-0.046
0.056
-0.009
0.078
0.111
-0.020
0.028
0.004
-0.021
0.033
0.073
-0.016
0.022
0.036
0.071
-0.004
0.050
0.028
-0.023
0.022
0.010
0.096
-0.005
-0.030
0.020
-0.024
-0.019
0.031
-0.031
0.051
0.056
0.058
0.034
0.096
0.111
-0.116
-0.010
0.010
0.160
0.110
0.078
0.014
0.033
-0.028
-0.058
-0.041
0.069
0.084
0.287
0.076
-0.245
-0.413
-0.136
0.101
0.257
0.294
0.070
-0.084
-0.059
-0.026
-0.079
0.019
0.040
0.036
0.073
0.058
0.013
0.004
0.070
0.132
0.060
-0.043
-0.015
0.045
-0.006
-0.028
-0.002
-0.048
0.047
-0.040
0.008
0.022
0.001
0.031
0.067
-0.010
-0.017
0.059
-0.019
-0.057
-0.053
0.002
0.080
0.021
0.029
-0.067
0.086
-0.027
0.035
0.080
0.032
-0.050
-0.043
-0.022
-0.043
0.070
0.045
-0.029
0.077
0.042
0.017
-0.118
0.064
0.016
-0.083
0.037
0.038
0.099
0.029
0.011
-0.064
0.003
-0.032
-0.014
0.049
-0.023
0.127
0.055
-0.041
-0.023
0.047
0.093
-0.041
0.086
0.049
0.025
-0.102
0.058
0.001
0.033
-0.050
0.106
0.108
0.060
-0.049
-0.091
0.040
0.092
0.069
-0.001
-0.077
0.007
0.010
0.024
-0.029
-0.056
0.059
0.013
0.033
0.044
-0.110
0.058
-0.020
0.089
-0.085
0.008
0.097
0.003
0.040
0.080
0.131
-0.071
-0.067
0.014
0.046
0.061
-0.047
-0.017
0.102
-0.015
-0.041
0.031
0.000
-0.006
0.099
0.039
-0.011
0.042
0.092
-0.048
-0.010
0.049
-0.047
0.159
0.014
-0.002
0.101
0.037
-0.028
-0.058
0.107
-0.038
-0.031
-0.012
0.008
0.032
-0.008
0.084
-0.078
0.004
0.016
0.155
-0.001
0.008
-0.025
-0.004
0.138
0.073
0.030
0.006
-0.068
0.060
0.028
0.042
-0.041
0.076
0.099
0.019
0.027
0.014
-0.013
-0.001
-0.073
-0.019
0.116
0.059
0.135
-0.016
-0.008
0.089
0.040
-0.032
0.001
-0.016
0.110
0.030
0.047
0.025
-0.017
0.007
0.071
0.082
0.074
0.009
0.000
-0.024
0.041
-0.027
0.039
-0.043
0.058
0.155
0.078
0.040
-0.150
0.105
0.030
0.092
-0.040
-0.034
0.039
0.000
0.081
-0.004
-0.009
0.034
-0.019
0.056
0.104
-0.046
0.037
0.029
-0.073
0.058
-0.006
0.056
-0.012
0.043
-0.023
0.045
0.058
0.019
-0.031
-0.014
-0.029
0.093
0.148
-0.055
-0.041
0.049
0.094
-0.047
-0.050
0.093
0.042
0.028
0.005
0.073
0.133
0.187
0.245
-0.135
-0.436
-0.369
0.039
0.234
0.203
0.196
0.028
0.015
-0.058
-0.050
-0.109
0.029
0.026
0.109
0.035
-0.023
0.072
0.162
0.056
0.105
0.040
-0.036
-0.037
-0.026
-0.020
0.059
-0.003
0.073
0.117
-0.114
0.001
0.097
0.013
-0.036
0.048
0.050
0.007
0.104
-0.079
-0.097
0.041
0.018
0.108
-0.039
0.024
0.021
-0.047
0.113
-0.068
0.012
0.013
0.053
0.045
0.175
-0.042
-0.136
0.015
-0.012
0.053
-0.004
0.164
-0.020
0.030
-0.050
-0.028
-0.004
0.005
0.028
-0.060
0.195
0.026
0.075
0.003
-0.105
-0.009
0.069
0.006
0.082
0.019
0.033
0.030
0.062
-0.003
-0.066
-0.102
-0.056
-0.002
0.131
0.094
-0.049
0.060
-0.022
-0.053
-0.033
-0.018
-0.016
0.010
0.100
-0.049
0.040
-0.001
-0.022
0.047
-0.066
0.106
-0.080
0.043
0.002
-0.024
0.035
0.027
0.053
0.043
0.104
0.080
0.073
-0.031
-0.016
0.022
0.022
-0.022
0.037
0.039
0.040
-0.005
-0.038
-0.036
-0.016
-0.032
0.129
0.038
0.046
0.059
-0.059
-0.015
0.056
0.050
0.040
-0.057
-0.010
0.104
0.116
-0.081
0.015
-0.016
0.021
0.022
-0.031
-0.050
0.117
0.082
0.039
-0.017
0.006
0.019
0.015
-0.026
0.017
0.021
-0.034
0.176
0.002
0.013
-0.023
-0.057
0.034
0.049
-0.001
0.055
-0.003
0.008
0.002
-0.026
-0.008
0.062
0.159
-0.057
0.010
0.138
0.001
0.120
-0.069
-0.013
-0.035
0.042
0.055
0.080
0.039
-0.019
-0.071
-0.001
-0.011
-0.027
-0.074
0.038
0.082
0.041
-0.040
0.058
0.085
0.069
-0.142
-0.013
0.037
0.053
-0.001
0.025
0.025
0.011
0.031
-0.003
-0.024
0.075
-0.042
0.004
0.084
0.046
0.030
0.039
0.003
-0.022
-0.006
-0.090
0.134
0.048
-0.009
0.064
0.048
-0.029
0.024
-0.089
-0.067
0.113
-0.073
0.022
-0.049
0.042
0.080
0.035
-0.045
0.046
0.083
0.328
-0.003
-0.385
-0.339
-0.061
0.264
0.238
0.219
-0.011
-0.100
-0.104
-0.031
-0.000
0.054
0.043
0.082
0.045
0.089
0.037
0.043
0.066
-0.051
0.026
0.002
0.031
-0.020
-0.069
0.015
0.031
0.023
-0.016
-0.010
-0.068
0.055
-0.059
0.003
0.037
0.022
0.076
0.020
0.009
0.015
0.023
-0.046
0.047
0.050
0.105
-0.014
-0.050
-0.007
0.121
-0.022
0.144
0.016
-0.058
0.019
-0.028
-0.001
-0.013
0.066
0.212
0.050
-0.079
-0.029
-0.041
-0.033
0.082
0.013
0.062
0.179
0.022
-0.087
0.009
0.037
0.051
-0.007
0.013
0.107
0.005
0.002
-0.133
-0.101
-0.050
-0.020
0.042
0.136
0.061
0.123
-0.046
-0.029
0.095
0.083
-0.011
0.016
-0.008
-0.026
-0.028
0.060
-0.010
0.050
-0.003
-0.033
0.033
0.054
-0.008
0.010
-0.038
-0.014
-0.063
0.077
0.087
0.027
0.067
-0.024
-0.001
0.030
-0.003
-0.016
0.073
0.001
0.002
0.074
0.041
-0.025
0.051
-0.049
0.044
0.079
-0.017
0.038
-0.026
0.031
-0.044
0.018
-0.011
0.045
0.171
-0.006
0.025
-0.018
-0.081
-0.023
0.081
0.069
0.001
0.016
-0.011
0.033
0.058
0.039
0.155
0.010
-0.036
0.001
0.014
-0.012
0.022
0.230
0.103
-0.117
-0.101
-0.031
-0.096
-0.034
0.078
0.138
0.135
0.017
0.044
-0.052
-0.127
0.003
0.154
0.079
0.027
-0.111
-0.043
0.078
0.101
0.085
0.027
0.026
0.100
0.019
-0.029
-0.053
0.046
-0.059
-0.012
0.007
0.013
-0.033
0.135
0.014
0.017
0.025
0.076
-0.010
-0.035
-0.017
0.098
0.012
0.079
-0.013
0.061
0.041
0.102
-0.044
-0.002
-0.100
0.063
-0.013
0.053
-0.054
0.045
0.036
0.008
0.038
0.038
-0.032
-0.021
0.032
-0.002
0.038
0.107
-0.034
0.101
-0.044
-0.005
0.071
-0.076
0.056
0.036
0.052
-0.015
0.066
-0.012
0.038
0.049
0.045
-0.078
-0.064
-0.042
0.047
0.035
0.115
-0.035
0.069
0.004
0.023
0.057
-0.025
-0.032
0.086
0.037
0.032
0.006
0.056
0.003
0.069
0.009
-0.012
0.105
0.106
-0.005
-0.022
0.018
0.024
0.101
0.012
0.076
-0.031
0.038
0.029
0.087
-0.008
-0.069
-0.092
0.085
0.077
0.073
0.082
-0.062
-0.008
-0.080
0.040
0.071
0.048
-0.035
-0.022
0.026
0.048
0.094
0.074
0.027
-0.077
0.018
0.092
-0.003
0.030
-0.005
0.027
-0.006
-0.017
0.135
-0.017
-0.082
-0.046
-0.015
0.078
0.033
0.023
0.022
0.001
-0.020
0.134
-0.007
-0.005
-0.039
0.102
0.050
0.039
0.072
0.031
-0.037
0.016
-0.047
0.074
0.023
-0.036
0.034
0.049
0.001
0.082
-0.016
0.008
0.090
-0.042
0.055
-0.116
0.080
-0.024
-0.014
0.100
0.015
-0.020
-0.062
0.032
0.025
-0.019
0.018
0.126
0.069
0.093
-0.060
0.024
0.070
-0.060
0.055
-0.034
0.082
0.073
0.081
0.085
0.009
-0.069
-0.059
0.026
0.023
0.043
0.303
0.128
-0.293
-0.258
-0.210
0.076
0.342
0.212
0.072
-0.020
-0.080
-0.094
-0.039
-0.096
-0.056
0.048
0.209
0.008
-0.001
0.028
0.199
0.098
0.027
0.014
-0.050
-0.038
0.089
-0.029
-0.018
0.103
0.056
0.037
-0.051
0.042
0.022
-0.062
-0.028
0.030
-0.004
0.177
-0.011
0.016
0.014
0.061
-0.037
-0.001
0.020
0.051
-0.081
0.049
0.019
0.086
-0.121
0.026
0.009
0.049
0.039
-0.050
-0.021
0.088
-0.013
-0.049
0.125
0.065
0.053
0.064
0.021
-0.115
-0.034
0.013
0.109
0.081
0.066
-0.075
0.040
0.108
0.016
-0.041
0.064
0.036
-0.006
0.184
-0.110
-0.056
-0.062
-0.047
0.126
0.064
0.125
-0.028
0.033
-0.038
-0.023
0.042
-0.002
0.144
0.002
-0.015
-0.012
0.115
0.001
0.047
0.016
0.033
-0.046
-0.035
0.108
0.013
0.032
0.064
0.029
-0.035
0.038
0.028
-0.000
0.047
0.034
0.034
0.032
-0.003
0.085
0.022
-0.047
-0.047
0.044
0.063
0.002
-0.061
0.025
0.087
-0.118
0.013
0.005
0.077
0.022
0.048
-0.004
-0.095
-0.013
0.119
0.106
0.053
-0.027
0.168
0.054
0.049
-0.032
-0.037
-0.129
0.151
0.098
-0.040
-0.103
0.028
0.079
0.106
-0.115
-0.016
0.067
0.021
-0.051
0.012
0.079
0.158
-0.014
-0.026
-0.070
0.081
-0.026
0.122
-0.037
0.032
0.062
-0.030
-0.076
0.084
0.024
-0.051
-0.033
0.135
0.076
-0.034
0.006
-0.008
0.055
0.028
0.028
0.058
0.058
-0.078
0.096
0.098
-0.114
0.022
-0.094
-0.014
0.031
-0.002
-0.009
0.064
0.111
0.004
0.051
-0.066
0.057
0.174
0.000
-0.074
0.039
0.066
0.060
-0.015
0.030
-0.036
0.016
0.033
-0.041
0.034
0.036
0.040
0.078
-0.018
0.032
-0.030
-0.010
0.003
0.088
0.062
-0.031
-0.021
0.074
-0.027
-0.002
0.007
-0.025
-0.021
0.026
0.080
0.024
0.024
0.015
-0.035
0.047
-0.018
0.019
0.013
0.012
-0.006
-0.035
-0.040
0.248
0.084
-0.138
-0.059
-0.041
0.061
0.073
0.058
-0.040
0.032
-0.008
0.058
0.055
-0.002
-0.122
-0.174
-0.005
0.102
0.055
-0.011
0.053
0.017
0.065
-0.018
0.041
0.029
0.013
0.036
0.041
0.058
0.067
0.034
0.044
0.060
0.344
0.066
-0.340
-0.294
-0.170
0.039
0.253
0.161
0.108
0.065
-0.039
-0.088
-0.039
-0.102
-0.066
0.080
0.146
0.016
0.017
-0.027
-0.017
0.078
0.113
0.114
-0.029
0.014
-0.075
0.030
0.029
0.053
0.034
0.036
-0.017
0.172
0.116
-0.109
-0.096
0.076
0.087
-0.093
-0.026
0.074
0.027
0.010
-0.039
0.035
-0.034
-0.012
0.032
0.086
-0.031
-0.031
-0.069
0.059
0.173
0.202
-0.029
-0.101
-0.053
0.078
0.093
0.055
0.020
-0.039
0.074
-0.001
0.041
-0.031
-0.009
0.071
-0.027
0.050
-0.020
-0.034
0.028
-0.028
0.091
0.075
-0.028
0.020
0.050
-0.097
0.032
-0.022
0.047
0.031
0.112
0.080
-0.107
-0.037
0.023
-0.069
-0.045
0.033
0.138
0.099
0.006
-0.036
-0.083
-0.071
-0.006
-0.047
0.081
-0.001
0.073
0.011
0.120
0.096
-0.036
0.026
-0.083
-0.066
0.046
-0.011
0.028
0.047
0.006
-0.008
-0.048
0.035
0.040
-0.077
0.052
0.064
-0.038
-0.064
0.087
0.065
-0.033
-0.005
0.058
0.068
0.052
-0.030
0.014
0.028
0.003
0.011
0.103
0.016
-0.036
-0.062
0.105
0.096
0.091
-0.035
0.023
-0.049
0.010
0.019
-0.032
-0.036
0.052
0.083
0.025
-0.048
0.019
0.011
0.055
0.003
-0.017
0.032
0.059
0.037
-0.013
0.063
0.003
0.011
-0.098
0.116
0.052
0.047
-0.043
-0.003
0.061
0.144
-0.005
-0.032
-0.036
0.049
-0.003
-0.048
0.042
-0.016
0.045
-0.019
0.020
0.210
0.042
0.016
0.002
0.014
-0.016
0.036
-0.002
0.019
-0.017
0.129
0.132
-0.028
-0.027
-0.076
-0.006
0.043
0.023
0.028
-0.015
-0.015
-0.027
0.039
-0.020
-0.000
-0.009
0.140
0.082
0.097
0.105
0.015
-0.157
-0.063
0.008
0.040
0.040
-0.042
0.150
-0.059
0.019
0.046
-0.085
-0.053
0.076
-0.027
0.042
0.060
-0.029
-0.000
0.082
0.071
0.086
-0.082
-0.028
-0.045
-0.055
0.039
0.096
0.021
0.032
-0.069
0.139
0.031
0.033
-0.109
0.051
0.065
-0.008
0.078
0.122
-0.009
-0.011
-0.013
-0.055
-0.002
0.124
-0.109
-0.003
-0.042
0.000
0.057
0.068
0.014
0.037
0.012
0.054
0.000
0.081
-0.011
-0.049
-0.078
-0.024
-0.009
0.052
0.097
0.020
-0.075
0.016
-0.086
0.065
0.028
0.029
0.034
0.099
0.005
0.033
0.079
-0.004
-0.004
-0.036
-0.020
0.018
0.035
-0.006
0.081
0.019
0.070
-0.002
0.007
-0.012
-0.001
-0.074
0.017
0.022
0.083
0.051
-0.014
0.007
0.024
0.068
0.047
0.047
-0.064
0.047
0.086
0.026
0.019
-0.125
-0.006
-0.034
0.068
0.043
-0.083
0.085
0.074
-0.039
0.020
0.017
-0.018
-0.056
0.023
0.035
0.066
-0.022
0.059
0.072
0.081
0.125
-0.016
-0.056
0.005
-0.171
0.087
0.172
0.009
0.092
-0.022
-0.102
-0.065
0.123
0.065
0.031
-0.006
0.032
0.078
0.084
-0.018
-0.006
0.057
0.092
0.029
0.053
-0.045
0.017
-0.029
0.032
-0.061
0.113
0.038
0.055
0.072
-0.002
-0.106
-0.108
0.087
0.084
0.042
0.096
-0.004
0.012
0.035
-0.049
-0.052
0.086
0.003
0.065
-0.033
0.058
-0.058
-0.056
0.051
0.043
0.054
0.038
0.020
-0.032
0.033
-0.071
0.107
0.162
0.006
-0.075
0.002
-0.027
0.059
0.074
0.077
0.032
-0.015
-0.034
0.126
0.127
0.026
-0.071
-0.037
0.008
-0.032
-0.007
0.058
0.033
0.024
0.108
-0.036
0.037
-0.127
0.104
0.091
-0.108
-0.079
-0.037
0.048
0.128
0.087
-0.010
0.025
-0.042
0.083
-0.013
0.027
-0.061
0.012
0.040
0.087
-0.076
0.093
0.070
-0.023
0.021
-0.020
0.053
0.039
-0.022
0.019
0.167
0.011
-0.023
-0.108
0.006
0.052
0.039
0.062
0.026
-0.051
0.004
-0.070
0.021
0.087
0.033
-0.002
-0.096
-0.039
0.010
0.108
0.052
-0.083
0.059
0.146
0.044
0.035
-0.083
-0.024
0.031
-0.042
-0.016
0.077
-0.013
0.063
0.057
-0.030
-0.006
-0.015
0.044
0.065
-0.017
-0.038
-0.061
0.030
0.010
0.041
0.038
0.084
-0.075
0.003
0.055
-0.014
-0.115
-0.101
0.052
0.169
-0.003
0.033
-0.023
0.091
0.011
-0.039
-0.070
0.002
0.014
0.043
0.054
0.041
0.003
0.072
0.072
-0.089
-0.064
-0.038
0.095
0.025
-0.047
-0.003
-0.006
0.035
0.174
0.055
0.043
0.014
-0.079
-0.033
0.047
-0.026
0.053
0.036
-0.005
-0.039
0.021
-0.008
0.071
-0.062
0.000
-0.013
0.024
0.125
0.063
0.029
-0.043
-0.079
-0.019
-0.055
0.097
0.084
-0.007
0.123
0.061
0.027
-0.023
-0.034
-0.006
0.060
0.100
0.032
0.048
-0.070
0.103
0.037
0.074
-0.105
-0.050
-0.015
0.079
0.116
0.090
-0.056
-0.025
0.047
0.030
-0.014
-0.054
0.042
0.025
0.041
-0.015
-0.048
0.045
-0.031
0.052
0.085
-0.061
0.028
0.087
0.049
-0.003
-0.064
-0.039
-0.019
0.167
0.080
-0.009
0.087
-0.008
0.036
-0.067
-0.021
-0.012
0.054
-0.044
0.080
0.006
-0.051
0.111
0.041
-0.039
0.012
0.046
-0.025
-0.022
0.040
0.001
0.077
0.015
0.063
-0.019
0.096
0.004
0.025
0.055
-0.090
-0.067
0.006
0.043
0.023
-0.008
0.085
-0.047
0.013
-0.002
-0.026
-0.078
0.091
0.108
0.047
-0.066
-0.079
0.070
-0.033
0.010
0.003
0.087
0.003
0.025
0.028
-0.043
0.007
0.017
0.036
0.028
-0.037
0.048
0.000
0.009
-0.055
0.105
0.011
-0.035
-0.038
0.110
0.085
-0.107
0.015
0.000
-0.000
0.028
0.125
0.110
-0.095
-0.065
0.005
-0.012
0.001
0.062
-0.028
0.080
0.046
0.075
0.006
0.064
-0.146
-0.084
0.008
0.025
0.028
0.004
0.123
0.006
0.048
-0.008
-0.023
-0.000
-0.023
-0.062
-0.035
0.043
0.078
0.126
0.170
0.046
-0.035
0.015
-0.102
-0.115
-0.020
0.067
0.098
-0.009
0.100
0.028
-0.012
-0.135
-0.065
0.069
0.017
0.016
0.031
-0.019
0.034
0.031
0.014
0.058
0.007
0.031
0.073
0.022
0.074
0.017
0.012
-0.034
-0.010
0.024
0.027
-0.028
0.072
0.104
-0.031
0.003
-0.079
-0.019
-0.026
-0.030
0.007
0.006
0.055
0.067
-0.028
0.022
-0.032
-0.024
0.091
0.015
-0.028
-0.116
0.077
0.041
0.082
-0.038
-0.024
-0.034
0.062
0.102
0.123
-0.007
-0.000
-0.013
-0.016
0.011
0.024
-0.017
0.038
-0.018
0.012
0.080
0.086
0.032
0.083
-0.103
-0.097
-0.020
0.018
0.022
0.092
0.053
0.006
-0.066
-0.003
-0.027
0.035
-0.049
0.120
0.023
0.093
-0.057
-0.043
-0.007
-0.057
0.042
0.133
-0.042
0.037
-0.030
-0.050
0.011
0.082
-0.035
-0.041
-0.040
0.105
0.046
0.041
0.031
0.017
0.000
0.030
-0.087
0.052
0.033
0.014
0.055
-0.088
0.085
0.156
-0.017
-0.015
0.176
0.023
0.066
0.017
-0.028
-0.028
-0.021
-0.035
0.139
0.090
0.033
0.000
0.034
-0.077
-0.049
-0.062
0.086
0.111
0.021
-0.001
-0.034
-0.100
-0.034
-0.006
-0.014
0.005
0.058
0.096
-0.059
0.080
0.028
-0.018
-0.045
0.034
-0.002
0.062
0.099
-0.004
0.032
-0.073
0.079
0.078
0.108
-0.019
-0.073
-0.002
0.019
0.092
0.158
0.092
-0.001
-0.090
-0.021
0.013
0.060
0.052
0.080
0.043
0.026
0.023
0.049
0.050
-0.122
-0.068
-0.007
0.035
0.030
0.094
-0.001
0.061
0.067
-0.035
0.050
-0.048
-0.027
0.138
0.012
-0.006
0.038
-0.003
0.067
0.021
-0.018
-0.107
0.045
0.130
-0.087
-0.038
0.032
0.047
0.013
-0.032
0.020
-0.018
0.092
0.090
-0.050
-0.020
0.074
0.075
-0.004
0.040
0.063
-0.060
-0.009
0.056
0.094
-0.038
-0.005
-0.007
-0.029
-0.015
0.011
0.018
0.060
0.098
0.186
0.033
-0.116
-0.092
-0.073
0.037
-0.006
0.051
-0.042
0.031
0.063
0.038
-0.059
-0.023
-0.051
0.015
0.049
0.070
-0.032
-0.082
0.105
0.118
-0.109
-0.067
-0.058
-0.021
0.043
-0.017
0.122
0.010
-0.020
0.007
-0.032
-0.118
0.143
0.064
-0.008
0.087
0.050
-0.031
-0.021
-0.047
-0.011
0.070
0.070
-0.089
-0.000
-0.000
-0.003
0.064
0.033
0.000
0.002
0.013
0.036
-0.013
-0.044
-0.052
-0.011
-0.050
0.060
0.017
0.034
0.083
-0.007
0.000
0.061
-0.064
-0.021
0.071
-0.058
0.049
0.079
0.093
0.021
-0.012
-0.036
-0.002
0.014
-0.082
-0.009
0.154
0.137
-0.023
-0.086
-0.074
-0.060
0.037
0.092
0.092
-0.016
0.024
0.014
0.022
0.014
0.024
0.108
-0.018
-0.030
-0.038
0.047
0.025
-0.042
-0.057
0.061
0.097
-0.045
0.111
0.024
-0.018
-0.032
0.007
0.086
0.093
0.005
0.016
-0.068
0.029
0.011
-0.035
0.013
0.007
-0.015
0.007
0.003
-0.035
0.047
0.055
0.006
0.071
-0.021
0.050
-0.025
-0.058
0.079
0.119
0.120
0.042
-0.025
0.000
-0.040
0.036
-0.059
0.102
0.042
-0.009
0.029
-0.024
-0.013
-0.044
0.064
-0.039
0.011
-0.001
0.114
-0.017
0.047
-0.007
-0.003
-0.001
0.066
-0.007
0.014
-0.052
0.076
0.184
0.047
0.011
-0.034
0.049
0.075
-0.024
0.005
0.045
0.085
0.005
-0.006
-0.005
-0.006
0.012
0.033
0.049
0.054
-0.020
0.016
0.047
-0.018
-0.000
0.000
0.100
0.043
0.038
-0.042
0.025
0.040
0.040
-0.017
0.003
0.037
-0.027
0.034
-0.104
0.045
-0.033
0.126
0.051
0.012
-0.011
0.015
0.033
-0.021
0.084
-0.009
0.056
-0.009
0.056
0.011
0.044
-0.005
0.037
-0.018
-0.024
0.145
0.006
-0.033
0.080
-0.033
-0.019
-0.032
0.128
-0.043
0.073
0.016
0.017
0.091
-0.033
0.002
-0.011
0.034
0.031
-0.031
-0.091
0.053
0.076
0.023
0.049
0.020
0.003
-0.086
-0.119
0.030
-0.059
0.026
0.073
0.067
0.028
-0.063
-0.128
-0.038
0.037
0.104
0.039
0.047
0.001
-0.040
-0.085
0.158
0.076
-0.020
-0.035
0.026
-0.039
0.066
0.033
0.080
-0.103
0.077
-0.044
-0.004
0.116
0.043
-0.046
-0.033
-0.023
0.020
-0.008
0.072
0.068
-0.050
0.039
-0.059
-0.033
0.101
-0.025
-0.075
0.002
0.019
0.011
0.073
0.059
0.106
-0.028
-0.110
-0.070
0.184
0.048
-0.018
-0.076
-0.014
0.050
0.125
0.031
0.033
0.069
0.020
-0.112
-0.045
0.007
-0.023
0.030
0.003
0.139
-0.091
0.068
-0.024
-0.142
0.104
0.028
0.028
0.021
-0.018
-0.069
0.038
0.159
0.050
0.008
-0.040
0.000
0.140
0.043
-0.056
0.024
0.135
0.085
-0.011
-0.017
0.075
-0.004
0.024
0.008
-0.071
0.039
0.012
0.025
0.036
0.022
0.045
-0.004
-0.014
0.008
0.017
-0.031
0.013
0.051
0.020
0.038
-0.061
0.019
0.041
0.086
-0.020
-0.005
0.110
0.023
0.076
0.074
0.031
0.051
-0.169
-0.159
0.097
0.152
0.049
-0.080
-0.050
0.016
-0.034
0.027
0.084
0.007
-0.037
0.090
-0.053
0.030
0.030
-0.010
0.066
-0.029
0.091
0.045
-0.083
0.002
0.088
0.042
0.049
-0.019
-0.020
0.056
0.077
0.021
0.043
-0.021
-0.007
0.053
0.020
-0.057
0.008
-0.002
-0.043
0.034
-0.092
0.107
0.076
0.003
-0.007
0.003
-0.034
-0.000
0.030
0.078
0.103
0.064
-0.025
0.023
-0.025
0.000
-0.006
0.032
0.072
0.048
-0.000
-0.057
0.012
-0.062
0.019
0.017
0.009
0.086
0.138
0.047
-0.041
0.052
-0.009
-0.074
-0.004
0.105
-0.029
0.065
0.073
0.026
0.138
-0.032
0.014
-0.080
-0.069
0.117
-0.026
-0.066
0.056
0.022
0.012
0.049
0.022
-0.023
0.081
-0.022
0.010
-0.058
0.014
0.085
0.073
-0.004
0.013
0.034
0.080
-0.027
-0.011
0.078
0.061
-0.023
0.022
0.061
0.013
-0.066
-0.014
0.092
0.138
0.023
-0.071
0.021
0.027
-0.046
-0.057
0.069
0.102
-0.021
-0.003
-0.023
0.037
0.087
0.023
-0.085
-0.008
0.066
-0.003
0.094
0.016
-0.141
0.014
0.051
-0.014
0.103
-0.011
-0.019
0.108
0.003
-0.005
-0.077
-0.032
0.001
0.048
0.101
0.095
0.017
-0.009
-0.058
-0.046
0.071
0.049
0.037
0.055
-0.032
-0.083
0.085
-0.050
0.025
0.032
0.136
0.007
-0.036
-0.054
0.000
0.074
0.052
0.013
-0.012
0.008
0.075
-0.085
0.064
0.084
0.050
0.061
0.004
0.039
0.028
0.074
0.020
-0.069
-0.021
-0.025
0.030
0.029
0.024
0.096
0.032
-0.038
0.013
-0.009
0.046
-0.066
0.000
0.070
0.060
-0.096
0.000
0.015
0.099
0.102
0.043
0.017
-0.088
-0.079
-0.042
0.068
0.115
-0.049
0.019
0.076
0.073
-0.052
0.079
0.007
0.061
-0.001
-0.012
0.004
0.030
0.079
0.043
0.051
0.059
-0.117
0.075
0.001
0.063
0.033
-0.073
-0.090
0.003
0.090
-0.031
-0.014
0.069
0.078
0.017
-0.025
0.025
0.029
-0.070
0.048
0.070
-0.040
0.001
-0.000
0.055
-0.031
-0.010
0.030
0.051
0.053
-0.007
0.047
-0.070
0.115
0.105
0.067
-0.040
-0.105
-0.022
-0.046
0.106
0.158
0.010
-0.039
0.010
-0.073
0.060
-0.033
-0.045
0.064
0.066
0.038
-0.101
-0.002
0.058
0.023
0.108
0.044
0.051
-0.021
-0.094
-0.008
0.016
-0.019
0.029
0.040
0.186
0.049
0.019
0.107
0.016
-0.060
-0.087
0.039
0.034
0.081
0.042
0.002
0.046
-0.012
0.037
-0.036
-0.025
0.075
-0.027
-0.031
0.122
-0.002
-0.051
0.004
0.038
0.183
0.062
-0.090
0.016
0.021
0.045
0.038
0.030
-0.006
0.130
0.067
-0.000
-0.058
-0.045
0.091
0.134
0.081
0.035
-0.008
0.005
-0.062
0.018
0.062
0.016
-0.027
0.068
0.033
0.035
-0.060
0.045
0.086
0.022
0.078
0.002
0.059
0.028
0.056
0.063
-0.029
0.021
0.013
0.063
-0.007
-0.048
-0.084
0.082
0.000
0.070
0.097
0.065
0.114
-0.006
-0.155
-0.047
-0.007
0.102
0.106
0.022
0.075
-0.028
-0.070
0.015
0.069
-0.025
0.020
0.100
0.015
0.039
0.008
0.032
-0.032
-0.052
0.114
0.160
0.001
0.038
-0.024
0.008
0.038
0.066
-0.029
0.065
0.102
0.103
0.004
-0.030
-0.003
-0.044
-0.048
0.059
0.035
0.086
-0.061
0.039
-0.018
0.005
-0.002
0.077
-0.004
0.019
-0.093
0.070
0.028
0.015
-0.001
0.001
0.176
0.039
-0.039
-0.088
-0.007
-0.045
0.086
0.116
-0.039
0.043
-0.033
0.018
-0.017
-0.042
0.092
0.056
0.126
-0.122
-0.049
0.079
0.036
0.072
0.057
0.063
-0.079
0.026
0.091
0.081
0.010
-0.066
0.055
0.100
0.008
-0.050
-0.019
0.074
0.072
-0.060
-0.026
-0.028
0.071
0.068
0.089
0.038
0.024
-0.040
-0.010
0.085
0.015
-0.055
0.037
-0.021
0.025
0.043
-0.033
0.028
0.017
0.024
-0.057
-0.065
0.219
0.057
0.013
-0.030
-0.095
-0.067
0.003
0.040
0.152
0.076
-0.036
-0.005
-0.050
0.172
0.002
0.002
-0.020
0.038
0.057
0.041
-0.026
-0.005
0.027
0.052
0.088
0.045
-0.010
-0.097
0.011
0.014
0.038
0.046
0.054
0.144
0.074
-0.156
0.068
0.010
0.027
0.089
0.149
0.004
-0.044
0.074
0.011
-0.051
0.010
0.088
0.087
-0.062
0.035
0.006
0.030
-0.020
-0.051
0.040
0.017
-0.010
-0.027
0.041
0.085
0.044
-0.103
-0.005
0.043
0.086
0.093
-0.015
-0.034
0.038
0.064
0.030
-0.003
0.119
-0.035
-0.026
0.010
0.062
0.055
-0.093
-0.041
0.120
0.029
0.016
-0.089
-0.003
0.045
0.053
-0.072
-0.034
0.096
0.085
-0.004
0.130
0.001
0.068
0.006
-0.060
-0.007
0.102
0.037
-0.034
0.011
-0.008
0.102
-0.008
0.005
-0.102
0.039
0.111
-0.026
0.029
-0.032
-0.035
-0.033
-0.046
0.025
0.058
0.078
-0.045
0.016
-0.046
-0.050
0.012
0.035
0.005
0.073
0.051
0.129
-0.033
-0.001
-0.100
-0.010
-0.007
0.099
0.013
0.032
0.143
0.059
0.097
0.016
0.088
-0.043
-0.132
-0.056
-0.011
0.036
0.043
0.094
0.069
0.042
0.028
-0.060
-0.065
0.043
-0.000
-0.040
0.091
0.113
0.037
-0.050
0.029
0.035
0.025
0.022
-0.007
0.020
-0.007
0.099
0.122
0.041
0.057
0.028
-0.051
0.024
-0.025
0.097
0.121
0.010
0.019
0.022
0.041
-0.028
0.021
0.001
0.029
0.069
0.174
-0.072
-0.130
0.099
0.047
0.074
-0.016
0.022
0.037
0.095
-0.072
-0.046
0.113
0.021
-0.044
0.045
0.039
0.002
-0.021
0.117
-0.015
0.089
-0.051
0.006
-0.015
-0.016
0.005
0.022
0.093
0.124
0.067
-0.039
-0.059
-0.102
0.048
0.101
0.023
0.041
-0.074
-0.033
0.026
0.127
0.033
0.021
-0.069
0.019
-0.019
0.141
0.019
-0.031
-0.028
0.023
0.053
0.012
0.085
0.070
-0.093
-0.005
-0.015
0.068
0.021
0.012
0.097
-0.058
0.061
0.009
0.002
0.026
0.018
0.060
-0.047
-0.015
0.005
-0.005
0.044
-0.016
0.045
0.079
0.122
0.140
-0.114
-0.121
-0.017
-0.050
0.051
-0.044
0.143
0.047
0.065
-0.006
-0.064
-0.089
0.109
-0.067
0.016
0.039
0.036
-0.022
0.057
-0.059
0.017
0.078
-0.008
0.071
0.077
-0.002
0.081
0.035
-0.095
-0.031
0.060
0.121
0.121
-0.073
0.050
0.099
0.042
-0.083
-0.033
0.006
0.059
0.007
0.038
-0.125
-0.024
0.030
0.067
-0.021
-0.022
-0.010
0.053
0.087
-0.074
0.050
0.008
0.057
0.001
0.104
-0.029
-0.034
-0.061
0.066
0.027
0.080
-0.028
0.073
-0.086
-0.050
0.064
0.025
0.066
0.036
-0.077
-0.064
0.068
0.020
0.058
0.040
0.050
0.016
-0.040
-0.073
0.071
0.057
-0.060
0.012
-0.046
0.095
0.080
-0.061
0.041
0.011
0.080
0.092
-0.090
-0.093
0.010
0.076
0.125
0.054
0.013
0.025
0.013
-0.021
-0.042
0.020
0.084
-0.003
0.016
-0.008
0.001
0.036
-0.060
0.000
-0.044
-0.069
0.090
0.034
0.008
0.121
0.048
-0.076
-0.093
-0.003
0.047
0.144
0.115
-0.014
-0.039
-0.026
0.097
-0.121
0.072
0.053
0.016
0.111
-0.007
0.033
-0.167
0.009
-0.026
0.061
0.033
0.094
-0.023
-0.040
0.080
0.084
0.021
-0.047
-0.002
0.032
0.030
0.041
-0.070
-0.036
0.081
-0.008
0.113
-0.032
-0.065
-0.060
0.128
0.008
-0.012
0.019
-0.018
0.010
-0.057
0.091
0.067
0.000
0.048
0.010
-0.077
-0.039
0.011
0.022
-0.032
0.028
0.100
-0.023
0.053
0.053
-0.052
0.004
0.046
-0.069
0.006
0.015
0.063
0.000
0.018
0.030
0.046
-0.043
0.069
0.059
-0.037
0.112
0.010
0.100
-0.019
-0.041
0.035
0.002
-0.038
0.032
0.038
-0.050
0.102
-0.008
0.050
0.062
-0.010
0.046
-0.094
-0.022
-0.017
-0.007
-0.023
0.064
0.114
-0.003
-0.040
-0.011
0.159
-0.031
0.124
0.056
-0.081
-0.028
-0.021
0.014
0.001
0.128
0.064
-0.017
0.032
-0.003
-0.059
0.053
-0.023
0.007
0.070
0.006
0.028
0.040
0.053
0.044
-0.023
0.142
0.136
-0.059
-0.085
0.022
0.099
0.033
0.093
-0.048
0.064
-0.014
-0.020
0.025
0.010
0.035
-0.013
0.021
0.006
-0.043
0.051
0.096
0.038
0.034
0.020
0.041
-0.018
-0.068
0.082
0.038
0.031
0.101
0.011
0.017
0.015
0.032
0.070
0.035
-0.000
0.017
0.037
0.027
0.034
-0.010
0.070
0.035
-0.100
-0.031
0.032
0.024
0.094
0.068
-0.070
0.037
0.016
0.018
-0.036
0.005
-0.020
-0.012
-0.181
0.002
0.005
0.203
0.133
-0.021
-0.030
-0.080
-0.062
-0.070
0.058
0.028
0.256
0.017
0.030
-0.004
-0.016
-0.059
0.051
-0.005
0.101
-0.002
-0.001
0.010
0.017
0.047
-0.063
0.028
-0.037
0.085
-0.005
-0.056
0.012
0.008
0.015
0.073
0.032
-0.005
-0.005
-0.016
-0.096
-0.032
-0.060
0.095
0.042
-0.037
0.052
-0.007
-0.035
-0.041
-0.013
-0.010
0.198
-0.068
0.028
0.021
0.019
0.081
-0.019
-0.029
0.084
0.040
-0.098
0.021
0.107
0.048
-0.034
0.057
0.007
0.023
0.057
-0.025
0.108
-0.039
-0.003
0.005
0.122
-0.030
0.011
0.002
0.033
0.085
0.021
-0.046
0.006
-0.053
-0.047
0.016
0.076
0.109
0.066
0.130
-0.056
0.022
0.023
-0.023
0.023
-0.058
-0.131
0.096
0.129
0.027
-0.011
-0.018
0.020
0.041
0.030
-0.020
0.010
0.075
0.009
0.056
-0.036
0.069
0.022
-0.027
0.007
0.009
-0.003
0.053
-0.028
0.054
0.006
0.045
-0.012
-0.047
0.072
0.057
0.004
-0.043
-0.029
-0.011
0.046
0.091
-0.016
-0.031
0.010
-0.082
-0.020
0.088
0.084
-0.063
0.017
0.070
-0.084
-0.008
-0.006
0.126
-0.002
0.012
0.042
0.033
-0.039
-0.021
-0.006
-0.017
-0.012
0.058
0.063
0.051
0.064
0.010
-0.090
-0.014
-0.033
0.019
0.001
0.058
0.077
0.034
-0.039
0.044
0.039
0.019
0.044
-0.055
0.013
0.095
0.054
0.065
0.062
0.020
-0.026
-0.031
0.027
0.148
0.027
-0.017
-0.093
0.032
-0.026
0.172
-0.023
0.124
-0.007
-0.048
0.031
0.055
0.015
-0.038
-0.076
0.109
0.020
0.089
-0.001
-0.063
0.011
0.013
0.149
-0.039
0.079
-0.076
0.091
-0.005
0.053
-0.035
0.065
0.069
-0.003
0.059
-0.035
0.043
-0.023
0.002
0.010
0.051
0.002
0.039
-0.014
0.070
-0.030
0.061
0.014
0.071
-0.019
-0.058
-0.015
0.051
0.030
0.005
0.067
-0.067
-0.012
0.066
-0.065
-0.042
-0.070
0.068
0.109
0.222
-0.053
-0.091
-0.109
-0.035
0.061
0.078
-0.032
0.015
0.092
-0.040
0.104
0.046
0.006
-0.107
0.006
-0.008
-0.032
0.130
0.030
0.177
-0.011
0.075
-0.055
-0.021
-0.034
0.002
-0.030
-0.018
0.015
0.039
0.023
0.038
0.009
-0.029
-0.090
0.186
0.022
0.035
0.099
0.024
-0.073
0.107
0.050
0.094
-0.002
-0.075
0.074
-0.037
0.061
-0.008
0.013
0.026
0.010
0.058
0.106
0.085
-0.004
-0.024
0.033
0.041
0.041
0.069
-0.061
0.025
0.094
0.006
-0.010
0.010
-0.002
0.007
0.053
-0.089
0.044
-0.047
0.018
0.080
0.111
0.006
-0.051
-0.064
0.032
0.169
-0.010
0.105
0.069
-0.015
-0.017
-0.058
0.090
0.048
0.056
0.048
0.088
-0.011
0.056
0.006
0.059
-0.053
-0.033
0.087
-0.031
0.005
0.051
-0.004
-0.019
0.083
0.085
0.019
-0.024
-0.139
-0.060
0.000
-0.033
0.094
0.085
0.033
-0.088
0.017
0.018
0.029
0.064
-0.062
-0.023
0.086
0.016
0.061
0.173
-0.011
-0.007
0.105
-0.037
-0.039
-0.030
0.036
0.227
0.118
-0.035
-0.089
-0.074
-0.042
0.028
0.019
0.035
-0.021
0.098
0.069
-0.043
0.012
0.006
0.081
-0.021
0.045
0.009
0.064
-0.033
0.014
0.143
-0.012
-0.020
0.109
0.009
0.079
-0.067
-0.061
0.040
0.076
-0.040
-0.094
0.034
0.056
-0.001
0.090
0.013
0.096
0.006
-0.001
-0.029
0.132
-0.004
0.022
-0.039
0.079
0.043
-0.065
0.007
0.011
-0.030
0.075
0.039
-0.003
-0.002
-0.030
0.077
0.089
0.056
-0.023
0.029
0.058
0.022
-0.026
0.045
-0.020
-0.021
0.002
-0.026
0.099
0.020
-0.005
-0.047
-0.008
-0.017
0.052
0.057
0.111
-0.076
-0.071
0.099
0.085
-0.020
-0.129
0.133
-0.011
0.083
0.157
0.079
-0.075
-0.072
0.026
0.033
0.103
0.023
0.051
0.088
0.101
0.001
-0.066
0.057
-0.055
0.023
-0.073
0.066
0.017
-0.041
0.036
-0.023
0.040
0.063
0.008
-0.018
-0.002
0.034
0.079
0.022
0.040
0.050
0.020
-0.032
0.106
-0.068
0.059
-0.052
0.015
0.123
-0.049
-0.042
0.031
0.038
0.052
0.038
-0.046
0.032
0.050
-0.034
0.014
0.052
-0.059
-0.040
0.096
0.002
0.020
0.014
0.020
-0.030
-0.045
0.102
0.144
-0.098
0.011
0.033
0.031
0.047
0.042
0.019
0.017
-0.059
0.043
0.107
0.071
-0.029
0.081
0.038
-0.059
0.056
-0.004
-0.026
-0.048
-0.090
0.098
-0.003
0.070
0.030
0.061
0.027
-0.040
-0.000
-0.048
-0.073
0.042
0.184
0.086
0.004
-0.054
-0.005
0.055
-0.044
-0.016
0.042
-0.050
0.051
0.046
-0.052
0.073
0.069
-0.041
0.063
0.035
-0.109
0.075
0.054
0.041
-0.005
0.010
-0.021
0.058
0.097
-0.034
-0.047
0.065
-0.007
0.062
0.049
0.029
0.025
0.017
-0.005
0.068
0.078
-0.080
-0.064
0.042
0.062
-0.005
0.119
0.006
0.058
0.050
-0.138
0.057
0.059
0.012
0.064
-0.028
0.084
0.020
-0.015
-0.124
0.122
-0.003
0.013
0.013
0.021
-0.036
-0.047
0.066
0.021
0.000
-0.056
0.082
0.022
0.021
-0.043
-0.013
-0.017
0.154
0.007
-0.018
0.114
0.009
-0.014
-0.035
0.026
0.005
-0.021
0.096
-0.001
-0.112
0.008
-0.027
0.054
-0.010
0.042
-0.044
0.132
-0.003
0.029
0.165
0.060
0.014
-0.035
-0.004
0.005
0.081
0.062
-0.034
0.034
0.004
0.069
0.062
0.074
0.026
-0.043
0.049
-0.088
0.048
0.041
-0.025
0.033
0.026
0.032
-0.013
0.027
0.041
0.017
0.103
0.031
0.005
0.008
-0.002
-0.027
0.063
0.080
-0.066
0.038
0.063
0.013
0.020
0.028
0.038
-0.062
0.004
0.089
-0.039
0.063
0.063
-0.034
-0.056
0.120
0.055
0.069
0.042
0.022
-0.029
0.036
0.044
-0.021
0.017
0.000
-0.068
0.058
0.085
0.008
0.074
0.043
0.024
0.008
-0.036
0.064
-0.082
0.017
0.113
0.041
0.048
0.043
-0.028
0.033
-0.054
-0.024
-0.037
0.055
-0.063
0.066
-0.006
-0.045
0.083
0.025
-0.084
0.122
0.092
0.035
0.070
0.012
0.008
-0.047
-0.003
0.065
0.029
0.049
-0.023
0.034
0.077
-0.017
0.033
-0.090
0.009
0.035
0.023
0.015
0.012
-0.006
0.081
-0.017
-0.004
0.002
0.160
-0.027
-0.084
0.013
-0.013
0.061
-0.002
0.071
0.008
-0.071
0.122
0.045
0.082
-0.024
-0.141
-0.009
0.052
0.041
0.052
0.087
0.075
-0.063
-0.006
-0.008
-0.028
0.024
0.030
0.046
-0.016
0.014
-0.038
-0.006
0.085
0.073
-0.004
0.035
-0.005
-0.006
0.076
0.079
-0.003
-0.040
-0.023
0.032
-0.034
-0.019
-0.013
0.003
0.088
0.028
0.099
-0.070
-0.205
0.020
-0.073
0.026
0.224
0.016
0.103
0.015
-0.049
-0.032
0.007
0.089
-0.007
-0.054
0.009
0.055
-0.164
-0.015
0.151
0.146
-0.072
-0.034
-0.027
-0.103
0.023
-0.037
0.069
0.033
0.044
0.005
-0.009
-0.012
-0.002
-0.009
0.015
-0.064
0.061
0.025
0.124
0.020
0.030
-0.021
0.057
0.044
0.033
0.008
0.010
0.003
0.008
-0.035
0.020
0.131
-0.023
0.043
0.085
0.018
-0.027
0.062
0.113
-0.001
0.096
-0.080
-0.010
0.054
0.018
0.042
0.010
-0.008
0.109
0.011
-0.078
0.046
0.086
0.005
-0.043
0.046
0.000
0.008
0.046
0.007
-0.013
0.006
-0.001
0.023
0.015
-0.002
0.039
0.070
0.062
-0.031
0.025
0.072
0.093
0.000
-0.001
-0.081
0.008
0.053
0.078
0.040
0.069
0.000
0.072
0.030
-0.106
0.003
0.058
0.001
0.019
-0.059
0.003
-0.024
0.125
0.080
-0.104
0.075
0.030
0.154
-0.022
-0.110
-0.150
0.072
0.045
-0.026
0.120
0.027
0.024
0.018
0.058
-0.094
-0.047
0.012
0.070
-0.007
-0.000
0.013
0.068
0.041
0.004
-0.003
-0.058
-0.034
0.031
0.029
-0.017
0.018
0.080
0.007
0.082
-0.009
-0.066
0.004
0.024
0.033
0.042
0.012
-0.015
-0.029
-0.025
0.093
0.001
-0.040
0.069
0.068
0.027
0.020
0.022
-0.044
0.051
0.092
0.004
-0.003
0.063
0.030
0.041
0.006
0.030
0.042
0.064
0.006
0.046
0.104
-0.026
0.057
0.030
-0.014
0.000
0.019
0.079
0.029
0.063
0.010
0.099
0.072
0.087
-0.051
-0.133
-0.014
0.124
0.069
0.000
-0.002
-0.026
0.091
-0.038
-0.056
0.165
0.057
-0.004
-0.017
0.039
0.050
0.112
0.034
0.021
0.041
0.005
-0.040
0.020
0.042
0.092
0.029
-0.099
-0.023
-0.014
0.059
-0.007
-0.001
0.059
0.057
-0.031
0.041
0.109
-0.036
0.063
-0.101
-0.017
0.002
0.110
0.098
0.043
0.023
-0.008
0.018
0.101
0.040
-0.038
-0.107
-0.097
0.077
0.120
0.008
-0.059
0.008
0.017
-0.043
0.029
-0.010
0.044
-0.040
0.023
0.094
0.064
-0.059
0.091
0.017
-0.061
0.002
0.002
-0.034
0.081
0.091
0.041
0.068
0.035
-0.054
-0.116
0.051
-0.083
0.078
0.034
0.115
-0.017
-0.051
-0.086
-0.022
-0.020
0.013
0.148
-0.081
0.079
0.023
-0.037
-0.046
0.070
0.034
0.008
0.068
-0.063
0.063
0.071
0.059
0.003
-0.041
0.044
0.021
0.020
0.038
0.060
-0.021
0.025
-0.004
0.050
0.001
0.022
0.027
0.084
0.011
0.068
-0.009
0.006
-0.076
-0.008
0.047
-0.011
0.021
0.002
0.120
0.011
0.001
0.035
-0.059
0.013
0.050
0.076
0.040
0.021
-0.036
-0.065
0.013
0.082
-0.023
0.140
0.168
-0.035
-0.120
-0.002
-0.020
0.100
0.010
0.077
0.123
-0.056
-0.012
0.007
0.036
0.028
-0.065
-0.028
0.061
-0.012
0.021
0.011
-0.014
0.025
0.002
0.051
0.029
0.017
-0.053
-0.039
0.049
0.003
0.070
-0.017
0.010
0.052
0.030
-0.063
-0.042
0.020
0.128
0.012
-0.080
0.078
0.046
0.067
0.153
-0.017
-0.037
0.027
-0.002
-0.024
0.100
0.024
-0.039
0.006
-0.080
0.179
0.017
-0.019
0.026
-0.120
0.078
0.013
-0.008
0.068
0.056
0.142
-0.001
-0.089
-0.023
0.023
0.078
0.018
-0.012
-0.011
0.062
0.023
-0.067
0.101
-0.030
0.107
-0.033
-0.065
0.104
-0.016
0.006
-0.066
0.024
0.022
0.105
-0.054
0.024
-0.012
-0.059
0.065
0.000
0.018
0.013
0.071
0.038
0.097
-0.010
0.070
0.094
0.004
0.043
-0.023
0.077
0.030
0.133
0.034
0.072
-0.042
0.035
0.074
0.097
0.011
0.017
0.007
0.029
-0.051
-0.019
-0.053
0.153
-0.012
0.011
0.134
0.075
0.012
-0.052
-0.055
0.007
-0.055
0.045
0.071
0.021
-0.018
0.067
0.029
0.018
-0.043
-0.020
-0.003
-0.080
-0.072
0.067
0.126
0.003
-0.023
0.022
0.111
0.121
0.085
-0.093
0.051
0.077
-0.019
0.025
0.030
0.156
0.054
-0.024
0.106
-0.069
-0.055
-0.021
0.000
0.051
0.048
0.094
-0.109
-0.026
-0.007
-0.020
0.014
0.119
0.033
0.018
0.052
0.015
0.028
-0.020
-0.048
0.053
-0.068
0.078
-0.011
0.005
-0.029
0.027
0.029
0.020
-0.034
0.046
0.059
0.090
0.055
0.001
-0.030
-0.049
-0.055
0.072
0.033
-0.082
0.030
0.057
0.052
0.063
0.026
-0.089
0.027
0.129
0.022
-0.001
-0.048
0.021
0.021
-0.019
0.047
-0.107
0.034
-0.048
0.101
-0.013
0.067
-0.079
0.139
0.045
0.140
-0.059
-0.070
-0.098
-0.048
0.072
0.086
0.124
-0.011
-0.029
-0.063
0.050
0.036
0.084
0.016
-0.000
0.031
-0.070
0.077
0.061
0.160
-0.065
-0.004
-0.027
0.031
-0.055
0.059
0.029
-0.024
0.021
0.042
-0.094
-0.011
-0.025
0.118
0.165
0.030
-0.010
0.030
0.020
0.037
0.028
0.065
0.011
0.057
0.043
-0.096
-0.087
0.009
-0.023
-0.053
0.008
0.097
-0.026
0.058
-0.007
-0.019
0.019
0.068
-0.025
-0.011
0.003
0.009
0.019
0.037
0.048
0.067
0.070
0.015
0.070
0.091
0.055
-0.051
0.041
0.023
0.138
-0.076
0.042
0.034
-0.051
0.033
0.035
-0.068
-0.038
0.117
0.004
-0.004
-0.069
-0.002
0.050
0.178
0.048
-0.023
-0.067
-0.018
-0.035
0.067
0.125
0.062
0.124
0.016
-0.114
-0.035
-0.014
0.016
0.033
0.068
0.074
0.034
-0.026
-0.041
0.025
0.050
0.016
0.017
0.046
-0.011
-0.061
-0.026
0.154
-0.001
0.160
-0.057
-0.075
-0.015
0.091
0.029
0.077
0.061
0.159
-0.034
0.037
0.021
0.030
-0.065
0.014
-0.063
0.070
0.042
0.069
0.006
0.007
0.069
-0.059
-0.059
-0.003
0.013
0.003
0.034
-0.042
-0.039
0.061
0.070
0.021
0.112
0.034
0.002
0.026
0.000
0.080
-0.027
0.077
0.094
0.018
-0.017
-0.036
0.013
0.046
-0.090
0.082
0.047
0.062
-0.009
-0.032
0.093
0.020
-0.024
0.047
0.044
0.018
-0.056
-0.028
-0.052
0.055
0.009
0.042
0.071
0.113
0.054
-0.046
0.055
-0.065
-0.017
0.045
0.083
0.064
0.024
-0.046
-0.007
0.068
0.028
0.046
0.039
-0.033
-0.075
-0.018
0.022
0.010
0.155
-0.110
-0.001
0.056
0.073
-0.002
0.002
0.092
0.124
0.066
-0.059
0.017
0.151
0.006
0.082
-0.097
0.092
-0.024
-0.007
0.025
-0.018
0.035
0.006
0.038
