0.031
-0.009
0.018
0.072
-0.056
0.024
-0.050
-0.033
0.026
0.031
-0.017
0.062
0.015
0.074
0.033
0.031
-0.096
0.047
0.057
0.214
0.031
0.024
0.044
0.183
0.031
-0.522
-0.143
0.214
0.363
0.135
0.064
0.425
1.121
-1.084
-1.665
0.529
0.990
0.057
-0.391
0.120
0.118
-0.016
-0.078
-0.100
-0.066
-0.022
0.056
0.037
0.160
0.063
0.130
0.108
0.038
0.030
0.204
0.087
0.044
0.106
-0.012
-0.009
0.038
-0.056
-0.029
0.001
0.065
0.026
0.061
0.105
0.018
0.036
0.055
0.020
0.056
0.050
0.013
0.074
0.032
0.110
0.112
0.051
-0.036
0.055
0.029
0.081
0.015
0.074
-0.009
0.100
-0.005
-0.087
-0.061
-0.025
0.056
0.067
0.097
0.080
0.030
0.023
-0.034
0.079
0.084
-0.005
-0.020
0.045
0.044
0.087
0.025
-0.035
-0.014
0.014
-0.041
0.080
0.072
0.661
1.022
-1.407
-1.567
0.153
0.782
0.783
0.280
-0.054
-0.141
-0.179
-0.123
0.008
-0.100
-0.377
0.135
0.462
0.432
0.102
-0.132
-0.028
-0.014
0.005
0.001
-0.084
0.004
0.095
0.215
-0.025
-0.114
0.001
0.144
0.033
0.001
0.074
0.027
-0.046
0.114
0.083
0.049
-0.026
0.002
0.021
0.050
0.038
0.070
-0.016
-0.043
0.076
-0.032
0.012
0.038
0.100
0.055
0.058
0.046
0.087
0.082
0.037
0.064
-0.037
0.036
-0.096
-0.244
-0.044
0.656
0.650
-0.571
-0.840
-0.109
0.737
1.123
-0.948
-1.371
0.164
0.585
0.557
0.141
-0.127
-0.126
-0.160
-0.070
-0.001
0.001
0.191
0.175
0.102
0.079
-0.392
-0.058
0.389
0.378
0.092
-0.055
-0.112
-0.211
0.036
0.020
0.026
0.088
0.126
0.073
0.042
0.075
-0.023
-0.068
-0.057
0.031
-0.015
0.023
0.091
0.046
0.058
-0.100
-0.009
0.108
-0.006
-0.032
0.044
-0.040
-0.071
0.051
0.083
-0.029
-0.132
0.033
0.139
0.118
-0.008
-0.022
-0.015
-0.040
-0.045
0.083
0.037
0.145
0.090
0.005
0.155
-0.024
-0.000
-0.039
-0.099
-0.010
0.048
0.123
0.004
-0.011
0.092
0.118
0.042
0.044
0.035
-0.051
0.055
0.063
0.063
0.044
0.181
1.239
-0.368
-1.759
-0.500
0.545
0.834
0.476
0.085
-0.082
-0.026
-0.205
-0.585
-0.134
0.355
0.537
0.177
0.017
-0.039
0.024
-0.000
0.032
-0.014
0.097
0.160
0.060
0.033
-0.014
0.041
-0.221
-0.126
-0.029
-0.028
0.017
0.514
0.751
-0.410
-0.953
-0.297
0.205
0.280
0.309
0.160
0.016
-0.044
0.001
-0.127
0.015
0.222
0.171
0.009
-0.065
0.059
0.038
0.106
-0.024
0.091
0.197
0.078
0.029
-0.168
-0.089
-0.013
0.019
0.126
1.162
0.118
-1.806
-0.780
0.493
0.867
0.496
-0.071
0.011
-0.112
-0.042
-0.076
-0.087
0.095
0.081
0.085
0.107
0.104
0.115
0.077
0.068
-0.077
0.038
0.038
0.011
0.014
-0.013
0.012
0.042
-0.031
0.049
-0.093
0.007
0.120
0.047
-0.053
0.024
0.075
0.088
0.128
0.034
-0.042
0.021
0.031
0.169
-0.033
-0.392
-0.015
0.335
0.370
0.085
-0.063
-0.087
-0.088
-0.052
0.012
0.054
0.080
0.185
0.110
0.064
0.020
-0.069
0.073
0.052
-0.075
-0.016
0.087
0.068
0.095
0.071
0.457
1.188
-1.046
-1.815
-0.091
0.682
0.847
0.368
0.028
-0.077
-0.279
-0.132
-0.113
-0.008
0.025
0.060
0.088
0.108
0.143
0.180
0.212
0.050
-0.006
-0.007
-0.029
0.089
0.635
0.120
-0.810
-0.584
0.070
0.271
0.297
0.194
0.063
-0.115
-0.043
-0.045
-0.097
0.072
0.107
0.017
0.107
0.055
0.093
0.036
0.119
-0.037
-0.127
-0.094
0.133
0.198
0.154
-0.142
-0.149
0.110
0.183
0.047
0.012
-0.030
-0.029
0.002
-0.002
0.043
0.068
0.124
0.020
0.009
-0.042
-0.028
-0.049
0.119
0.054
0.083
-0.330
-0.330
1.343
0.708
-1.425
-0.907
0.197
0.694
0.562
0.180
0.054
-0.145
-0.115
-0.106
-0.100
0.028
0.214
0.217
0.065
-0.004
0.019
-0.048
0.085
0.048
0.045
-0.001
-0.044
0.072
0.086
0.078
0.027
-0.045
0.031
0.053
0.079
-0.045
-0.067
0.008
0.061
0.110
0.144
0.166
-0.067
-0.067
-0.093
0.009
0.012
0.065
0.088
0.037
0.017
0.020
0.049
-0.046
0.078
0.030
0.125
0.077
-0.016
0.011
0.005
-0.022
0.060
0.044
0.022
0.038
0.132
0.141
1.223
0.067
-1.172
-0.944
-0.376
0.448
0.847
0.349
0.067
-0.127
-0.131
-0.081
-0.058
-0.440
-0.084
0.501
0.379
0.243
0.007
0.009
-0.076
0.102
0.048
0.082
0.058
-0.002
-0.013
-0.127
-0.093
-0.037
-0.043
-0.156
-0.006
0.040
0.055
-0.020
0.083
0.018
-0.023
0.032
0.125
0.068
0.001
0.064
0.025
0.014
-0.008
0.063
0.042
-0.008
-0.032
0.029
0.078
0.031
0.143
0.023
0.008
0.029
0.001
-0.009
0.100
0.053
0.054
0.150
-0.000
-0.062
0.021
0.057
0.024
-0.172
-0.064
0.065
0.191
0.104
0.056
0.034
-0.043
-0.067
0.010
-0.001
-0.013
0.940
0.942
-1.476
-1.474
0.276
0.749
0.672
0.320
-0.208
-0.207
-0.203
-0.234
-0.116
0.062
0.198
-0.274
-0.129
0.474
0.466
0.227
-0.063
-0.168
-0.084
0.009
-0.020
0.122
0.119
0.125
-0.015
0.034
0.005
-0.024
0.158
0.048
0.052
-0.002
-0.057
-0.106
-0.075
-0.013
0.225
0.244
0.089
0.077
-0.048
-0.087
0.045
-0.010
0.003
0.114
-0.007
0.022
0.022
-0.021
0.005
-0.041
0.005
-0.056
0.044
0.089
0.044
0.046
0.006
-0.098
-0.008
-0.042
0.071
0.050
0.045
0.028
0.026
0.141
-0.060
0.041
0.032
-0.058
0.071
0.045
0.009
0.630
1.062
-1.355
-1.508
0.130
0.704
0.843
0.337
-0.057
-0.105
-0.218
-0.165
-0.091
0.037
0.063
0.097
0.142
0.776
0.206
-1.006
-0.448
0.495
0.549
0.158
-0.094
0.034
-0.095
-0.127
-0.025
0.052
-0.003
0.106
0.088
-0.026
0.025
0.107
0.015
0.061
0.077
0.030
0.048
0.062
-0.055
-0.042
0.073
0.019
0.046
0.027
0.025
0.007
0.033
-0.028
-0.044
0.062
0.295
0.137
-0.028
-0.075
-0.049
0.007
-0.008
0.054
0.093
-0.042
0.074
0.112
0.050
0.013
0.008
0.011
-0.048
0.191
0.099
0.658
1.155
-1.190
-1.606
0.026
0.732
0.688
0.305
-0.049
-0.032
-0.160
-0.113
-0.089
-0.110
0.045
0.129
0.184
0.092
0.068
0.073
0.014
0.007
0.051
0.082
0.082
0.031
0.037
-0.149
0.016
0.074
-0.034
-0.056
0.064
0.161
0.010
-0.413
0.030
0.262
0.343
0.068
-0.141
-0.113
-0.099
0.015
0.073
0.134
0.113
-0.034
0.085
0.034
-0.022
-0.055
0.003
0.021
-0.069
0.006
0.093
-0.019
0.065
-0.018
0.029
0.097
0.143
0.020
-0.136
0.362
0.510
-0.514
-0.683
0.166
0.328
0.161
0.158
0.976
0.675
-1.693
-1.305
0.173
0.797
0.706
0.291
-0.035
-0.157
-0.012
0.064
-0.064
0.015
0.013
0.107
0.065
0.087
0.075
0.051
0.069
0.016
-0.030
-0.006
0.020
-0.042
-0.016
0.058
0.048
0.002
0.034
-0.023
-0.080
-0.001
-0.048
0.096
0.018
0.004
0.037
0.032
0.021
-0.010
-0.040
0.047
-0.115
-0.085
0.169
0.190
0.226
0.001
0.027
0.020
-0.077
0.056
0.112
0.122
-0.028
-0.010
0.085
0.288
-0.216
-0.249
0.090
0.302
0.238
0.007
-0.090
-0.175
-0.056
0.050
0.026
-0.080
0.051
0.174
0.218
0.111
-0.062
0.038
-0.074
-0.068
-0.035
0.046
0.039
0.647
1.043
-1.374
-1.512
0.024
0.744
0.754
0.273
-0.082
-0.218
-0.144
-0.151
-0.116
-0.012
0.141
0.085
0.088
0.095
0.115
0.144
0.056
0.083
-0.030
-0.074
0.055
0.062
-0.012
0.121
0.056
0.026
0.006
-0.064
0.017
-0.024
0.029
0.006
0.053
-0.006
0.125
0.119
0.070
-0.015
0.014
0.098
0.088
-0.045
0.031
0.010
-0.004
0.046
0.095
0.054
0.150
-0.030
-0.011
0.058
0.011
0.056
-0.011
0.001
0.039
0.048
-0.011
0.019
-0.000
0.064
0.049
-0.012
-0.005
0.082
-0.010
-0.555
-0.145
0.482
0.550
0.347
-0.077
-0.212
-0.144
-0.019
0.020
0.474
1.963
-0.261
-2.623
-0.918
0.667
1.002
0.673
0.232
-0.087
-0.266
-0.388
-0.209
-0.096
0.073
0.100
0.205
0.157
0.192
0.180
0.132
0.106
0.136
-0.031
-0.044
0.003
-0.067
-0.015
0.028
-0.038
0.004
0.000
0.079
0.054
0.046
0.002
0.028
0.063
-0.030
0.027
-0.023
-0.004
0.075
0.026
0.051
0.009
0.108
-0.045
-0.113
-0.032
0.048
0.040
0.085
0.171
0.062
0.047
0.023
0.013
-0.268
-0.012
0.190
0.270
0.151
0.001
-0.093
-0.112
-0.008
0.049
0.052
0.016
0.016
0.077
-0.033
0.063
0.190
-0.307
-0.302
0.204
0.581
1.401
-0.673
-2.000
-0.465
0.474
0.810
0.553
0.070
-0.110
-0.201
-0.144
-0.113
-0.146
-0.045
0.128
0.135
0.118
0.057
0.016
0.063
0.077
0.073
0.088
-0.080
-0.110
-0.141
0.035
0.179
0.025
-0.016
0.025
0.110
0.257
0.050
-0.003
0.037
-0.047
-0.003
-0.009
0.090
0.061
0.056
0.056
0.133
-0.042
-0.026
-0.039
0.034
-0.037
-0.009
-0.008
0.080
0.013
0.086
0.011
0.049
0.016
0.064
0.042
0.075
-0.080
-0.092
0.054
0.080
0.288
0.559
-0.466
-0.834
-0.053
0.329
0.229
0.332
0.257
0.042
-0.126
-0.076
-0.050
0.054
0.019
0.011
0.081
0.156
0.092
0.046
0.071
-0.027
0.051
0.078
0.132
0.361
0.759
-1.041
-1.543
0.187
0.739
0.741
0.269
-0.030
-0.186
-0.163
-0.237
-0.099
-0.009
0.047
0.131
0.129
0.093
0.005
0.091
0.021
-0.022
-0.001
-0.002
0.008
0.048
-0.084
-0.003
0.002
-0.044
0.086
0.082
0.028
-0.012
0.062
0.098
0.075
0.043
0.030
-0.019
0.020
0.018
0.018
-0.081
-0.033
0.058
0.084
0.181
0.005
-0.054
0.022
-0.020
0.010
-0.076
0.153
0.163
0.144
0.064
0.012
-0.072
-0.040
-0.053
-0.003
-0.104
-0.039
0.164
0.222
0.116
0.010
0.050
-0.121
-0.044
0.066
0.043
0.086
0.089
0.018
-0.086
-0.027
-0.032
0.129
0.806
0.940
-1.389
-1.515
0.218
0.795
0.719
0.253
-0.037
-0.143
-0.125
-0.147
-0.216
0.080
0.103
0.187
0.121
0.156
0.117
0.265
-0.152
-0.362
0.167
0.330
0.289
0.020
-0.214
-0.160
0.017
0.076
0.058
-0.033
-0.021
0.039
-0.002
0.068
0.107
-0.043
-0.025
-0.016
-0.115
0.017
0.008
-0.014
0.109
0.161
0.051
-0.119
-0.014
0.141
0.116
-0.020
0.051
0.017
-0.068
0.028
0.037
-0.064
0.007
0.030
0.069
-0.035
0.039
0.010
0.038
0.077
-0.046
-0.043
0.130
0.188
0.100
0.089
0.030
-0.061
0.026
0.032
0.020
0.207
0.023
0.061
0.011
-0.048
-0.012
0.079
-0.049
-0.020
-0.010
0.037
0.048
0.127
0.060
0.054
0.026
-0.001
0.021
-0.031
0.076
0.006
0.050
0.067
0.044
0.439
1.161
-0.977
-1.543
-0.302
0.396
0.885
0.686
0.188
-0.171
-0.338
-0.267
-0.105
0.522
0.148
-0.641
-0.239
0.287
0.253
0.300
0.250
0.130
-0.027
-0.080
-0.154
-0.041
0.091
0.008
0.002
0.135
0.140
0.001
0.089
0.107
0.083
0.008
0.110
0.069
-0.106
-0.064
-0.052
0.075
0.076
0.095
0.051
-0.004
0.065
0.018
0.098
0.083
-0.091
-0.085
0.024
0.091
0.063
0.181
0.035
-0.106
-0.073
-0.024
-0.001
0.070
0.001
-0.153
0.033
0.200
0.096
0.079
-0.008
-0.025
0.076
-0.025
0.033
0.065
0.014
0.055
0.051
0.075
0.069
0.958
0.601
-1.659
-1.334
0.222
0.828
0.614
0.076
-0.024
0.039
0.055
0.002
-0.529
-0.198
0.339
0.412
0.265
0.048
0.035
0.104
-0.006
0.120
0.137
0.041
-0.052
-0.064
-0.173
-0.034
0.072
0.143
0.064
-0.042
-0.039
-0.073
0.029
-0.042
-0.002
0.105
0.134
0.087
0.100
0.018
-0.042
-0.019
0.007
-0.041
0.020
-0.029
0.051
-0.021
-0.056
-0.020
0.085
-0.026
-0.059
0.002
0.131
0.189
0.108
0.012
-0.038
0.038
0.052
0.052
0.136
-0.000
0.146
0.037
-0.026
-0.064
0.015
0.008
0.050
0.025
-0.016
0.018
0.095
0.064
0.093
0.163
0.016
-0.114
-0.114
0.033
0.069
0.081
0.135
0.012
0.001
-0.015
0.206
1.243
-0.710
-1.812
-0.389
0.703
0.880
0.468
-0.061
-0.172
-0.061
-0.176
-0.112
0.123
0.090
-0.348
-0.042
0.376
0.345
0.201
-0.013
-0.082
-0.126
-0.089
-0.030
0.108
0.000
0.079
0.012
-0.044
-0.036
0.108
0.125
0.117
0.022
-0.006
-0.082
0.004
0.045
0.079
0.122
0.198
0.379
0.221
-0.655
-0.366
0.274
0.127
0.020
0.079
0.044
0.003
-0.023
0.004
0.035
0.105
-0.041
-0.070
0.048
0.036
0.077
0.077
0.000
0.069
-0.002
0.044
-0.003
-0.001
0.014
-0.075
-0.071
0.025
0.083
0.045
0.033
-0.000
-0.003
0.116
0.014
0.018
0.026
0.079
0.024
-0.017
0.006
0.057
0.066
-0.025
0.052
0.056
0.032
0.099
0.381
1.223
-0.763
-1.698
-0.584
0.628
1.224
0.709
0.034
-0.379
-0.340
-0.325
-0.070
0.085
0.214
0.232
0.173
0.062
0.036
0.002
0.034
0.062
0.028
-0.015
0.030
0.027
0.019
0.001
-0.044
-0.035
0.008
0.034
-0.029
0.070
0.016
0.080
0.073
0.067
-0.031
0.054
0.137
0.004
0.014
0.021
0.007
0.004
0.044
0.088
0.149
0.054
-0.028
-0.019
0.011
-0.022
0.016
-0.157
0.071
0.239
0.351
0.143
-0.015
-0.041
-0.105
-0.012
0.007
0.073
0.003
0.155
0.017
0.018
0.073
0.008
-0.036
0.078
-0.063
-0.054
0.013
0.037
0.153
0.042
0.290
1.398
-0.556
-1.979
-0.316
0.695
0.833
0.468
-0.082
-0.159
-0.208
-0.114
0.154
-0.262
-0.369
0.538
0.939
-0.263
-0.688
-0.067
0.186
0.208
0.212
0.205
-0.016
-0.073
-0.091
-0.053
-0.096
-0.039
0.054
0.106
0.062
0.082
-0.044
0.002
-0.026
0.071
0.091
0.106
0.052
0.024
0.095
0.010
0.019
0.064
-0.003
0.107
0.016
0.026
0.173
-0.063
-0.082
-0.054
0.131
0.090
-0.046
0.096
0.244
0.096
0.063
-0.164
-0.097
0.045
0.045
0.071
0.070
0.000
0.068
-0.085
-0.067
0.077
0.139
0.081
-0.040
-0.086
0.004
0.039
0.037
0.027
0.005
-0.044
0.028
0.047
0.215
0.219
0.002
0.008
0.191
1.160
-0.542
-1.824
-0.420
0.609
0.886
0.548
0.127
-0.192
-0.296
-0.139
-0.065
-0.044
0.059
0.182
0.184
-0.331
-0.150
0.451
0.393
0.221
-0.069
-0.171
-0.051
0.007
0.041
0.052
0.088
0.139
0.094
-0.016
-0.042
0.026
-0.037
0.038
0.102
0.054
0.024
0.059
-0.013
-0.048
0.112
-0.005
-0.025
0.057
0.108
0.097
0.078
-0.008
-0.075
0.055
-0.063
0.021
0.034
0.059
0.071
0.003
0.026
0.003
-0.054
0.033
0.101
0.039
0.045
0.033
0.007
0.093
-0.086
0.070
0.093
0.137
0.022
-0.050
-0.067
-0.009
0.070
0.101
0.119
-0.012
-0.066
0.045
0.079
-0.025
0.030
0.029
0.477
1.323
-0.891
-1.847
-0.099
0.855
0.821
0.331
-0.124
-0.137
0.458
-0.266
-0.796
-0.281
0.312
0.422
-0.068
-0.123
0.335
0.304
0.290
-0.062
-0.234
-0.141
-0.057
-0.009
0.094
0.058
0.056
0.091
0.054
0.006
0.016
-0.035
-0.018
-0.058
-0.065
0.098
-0.010
0.019
0.058
0.052
0.008
0.026
-0.004
0.027
-0.048
-0.014
-0.092
0.046
0.190
0.235
-0.003
-0.088
-0.071
-0.074
0.078
0.073
0.109
0.088
-0.025
0.039
-0.004
0.014
0.025
0.071
0.019
-0.004
0.067
0.014
-0.007
-0.069
-0.017
0.124
0.164
0.112
0.072
-0.001
0.057
-0.058
-0.046
0.054
0.129
0.029
0.083
0.031
0.027
0.042
-0.124
-0.037
0.064
0.917
0.574
-1.669
-1.240
0.344
0.927
0.351
-0.153
0.131
0.133
0.002
-0.145
-0.221
-0.054
-0.013
0.139
0.150
0.113
0.119
0.121
-0.059
-0.111
-0.004
0.191
0.192
0.032
-0.166
-0.092
0.004
0.074
0.037
-0.116
0.019
0.073
0.222
0.228
0.032
0.005
0.050
0.027
-0.089
0.014
0.090
-0.006
0.047
0.084
-0.010
0.103
0.015
-0.046
-0.006
0.075
0.008
-0.008
0.089
0.055
0.030
0.066
-0.031
0.052
0.078
-0.004
0.056
0.055
0.041
0.024
-0.022
0.048
-0.005
0.033
0.075
0.014
0.052
0.036
0.085
0.993
0.316
-1.869
-0.963
0.404
0.838
0.703
0.130
-0.221
-0.244
-0.127
-0.069
-0.007
-0.010
0.112
0.162
0.142
0.175
0.120
0.061
0.174
0.064
0.002
0.093
-0.015
-0.118
-0.047
0.109
0.125
0.207
-0.206
-0.409
0.128
0.323
0.252
-0.012
-0.059
-0.108
-0.109
0.017
0.081
0.164
0.132
0.103
-0.032
0.130
-0.134
-0.321
0.025
0.331
0.441
0.238
-0.208
-0.206
-0.153
-0.144
-0.049
0.120
0.228
0.170
0.104
0.026
-0.111
-0.056
-0.013
0.040
0.046
-0.007
-0.076
0.015
0.217
0.141
0.112
0.027
0.275
0.526
-0.509
-0.758
-0.083
0.232
0.199
0.288
0.227
0.086
-0.045
-0.082
-0.109
0.034
0.967
0.580
-1.611
-1.031
0.380
0.874
0.747
0.195
-0.114
-0.201
-0.170
-0.170
-0.151
0.002
0.093
0.147
0.138
0.109
0.127
0.049
-0.046
0.002
0.132
0.216
0.152
-0.401
-0.196
0.242
0.341
0.209
-0.106
-0.211
-0.058
0.047
0.043
0.070
0.158
0.062
-0.008
-0.032
-0.011
0.017
-0.020
-0.018
-0.036
0.039
-0.013
0.082
0.045
0.065
0.088
0.006
0.045
0.069
0.028
0.157
0.022
0.049
-0.056
-0.061
0.094
0.169
0.146
0.033
-0.016
-0.095
-0.008
0.029
0.111
0.078
0.053
-0.074
-0.126
0.150
0.198
0.161
0.117
-0.075
-0.111
-0.122
-0.051
0.002
0.168
1.283
0.171
-1.723
-0.865
0.325
0.835
0.526
0.130
-0.116
-0.179
-0.369
-0.167
0.017
0.076
0.130
0.153
0.121
0.153
0.172
0.154
-0.424
-0.115
0.326
0.352
0.149
-0.121
-0.122
-0.074
-0.017
-0.022
0.113
0.109
0.031
0.025
0.068
0.041
0.008
0.017
0.038
0.021
0.026
0.143
0.584
0.098
-0.883
-0.540
0.243
0.341
0.286
0.173
0.104
-0.136
-0.083
-0.081
-0.075
0.052
0.071
0.124
-0.067
-0.118
0.093
0.216
0.167
0.039
-0.092
-0.092
-0.056
-0.120
0.104
0.101
0.079
0.058
-0.029
-0.031
-0.006
0.062
0.088
0.004
0.024
-0.027
0.031
0.076
0.114
1.255
0.151
-1.777
-0.921
0.284
0.698
0.825
0.303
0.069
-0.211
-0.302
-0.185
-0.197
-0.006
0.203
0.128
0.254
0.111
0.100
0.063
-0.072
-0.046
0.006
0.053
0.010
0.029
-0.085
-0.039
0.035
0.081
0.173
-0.319
-0.360
0.323
0.405
0.205
-0.043
-0.167
-0.196
0.024
0.212
0.206
-0.101
-0.130
0.069
0.014
0.207
0.120
-0.008
-0.023
-0.006
-0.060
0.012
0.041
0.046
0.057
0.029
0.070
0.086
0.111
0.054
0.029
-0.016
-0.005
0.076
0.009
0.019
0.103
0.046
0.074
0.048
0.039
0.102
0.002
0.010
0.031
0.042
0.076
0.028
0.697
0.976
-1.318
-1.570
0.218
0.742
0.697
0.237
-0.018
-0.184
-0.244
-0.094
-0.106
-0.077
0.005
0.093
0.145
0.211
0.814
0.096
-0.838
-0.405
0.262
0.238
0.208
0.155
0.126
-0.041
-0.059
-0.023
-0.063
0.055
0.010
-0.004
0.025
0.118
0.134
0.039
0.048
0.136
0.069
-0.569
-0.362
0.474
0.583
0.336
-0.138
-0.340
-0.208
-0.077
0.050
0.057
0.058
0.117
0.158
0.016
-0.005
-0.072
-0.064
0.011
0.098
-0.015
-0.082
-0.057
0.003
0.145
-0.076
0.012
0.163
0.138
0.061
-0.092
-0.042
-0.047
-0.014
0.072
0.110
0.209
0.055
-0.091
-0.177
0.020
0.077
0.065
0.116
0.122
0.933
0.646
-1.714
-1.303
0.425
0.908
0.643
0.214
-0.169
-0.252
-0.194
-0.114
-0.074
-0.045
0.088
0.192
0.148
0.050
0.096
0.045
0.076
-0.003
-0.001
-0.086
-0.058
0.101
0.052
0.053
-0.047
0.168
0.018
-0.006
-0.028
-0.142
0.059
0.052
0.078
0.006
-0.062
0.058
0.000
0.124
0.087
0.188
-0.102
-0.378
0.107
0.332
0.296
0.096
-0.114
-0.071
-0.069
-0.081
0.080
0.093
0.103
0.117
-0.034
-0.079
0.004
-0.005
0.174
-0.080
0.037
0.603
-0.029
-0.836
-0.309
0.307
0.151
0.215
0.098
0.155
-0.007
-0.021
-0.077
-0.079
-0.016
0.045
0.005
-0.018
-0.064
0.020
0.336
1.458
-0.280
-1.950
-0.618
0.459
0.831
0.466
0.013
-0.023
-0.141
-0.162
-0.269
-0.206
0.061
0.215
0.199
0.137
0.114
0.004
0.052
0.041
0.062
0.006
0.016
0.011
-0.019
-0.022
0.037
0.120
0.009
0.024
0.006
0.053
0.032
-0.018
-0.018
0.014
0.002
0.016
0.085
0.002
0.047
0.211
0.111
-0.389
-0.151
0.288
0.292
0.208
-0.056
-0.158
-0.113
-0.047
0.108
0.096
0.027
-0.099
-0.071
0.225
0.332
0.048
-0.150
-0.185
-0.177
-0.014
0.093
0.001
0.094
0.148
0.062
0.125
0.061
0.003
0.055
1.079
-0.094
-1.820
-0.679
0.540
0.890
0.622
0.139
-0.133
-0.219
-0.171
-0.107
-0.013
-0.002
0.091
0.193
0.134
0.058
0.167
-0.027
0.064
0.054
-0.037
0.131
0.034
-0.054
-0.082
-0.081
-0.008
0.076
0.029
-0.021
0.052
0.006
0.002
-0.036
-0.013
0.103
0.089
-0.021
-0.145
-0.032
0.090
0.128
0.100
0.064
0.018
-0.054
0.009
-0.113
-0.028
0.183
0.244
0.160
0.164
-0.048
-0.019
-0.076
0.224
0.406
-0.016
-0.587
-0.367
0.359
0.341
0.136
0.165
-0.011
-0.025
-0.206
-0.060
-0.014
-0.016
0.052
0.024
0.047
0.134
0.103
0.103
-0.041
-0.028
0.062
0.010
0.021
0.103
-0.080
0.133
1.315
-0.181
-1.888
-0.604
0.516
0.841
0.580
0.091
-0.120
-0.196
-0.241
-0.099
-0.034
0.142
0.183
0.090
0.124
0.169
0.088
0.057
-0.016
0.007
-0.062
0.033
0.146
0.089
-0.112
-0.062
0.017
-0.075
0.035
-0.015
0.099
0.015
0.001
0.069
-0.023
0.039
-0.001
0.020
0.009
0.020
-0.045
0.002
0.043
0.132
-0.067
0.066
0.086
-0.031
0.132
-0.079
-0.006
0.001
0.069
0.024
0.182
0.139
-0.485
-0.020
0.298
0.319
0.098
-0.137
-0.053
-0.064
-0.005
0.056
0.169
0.039
-0.038
0.002
0.102
0.128
0.057
0.038
-0.071
-0.079
0.095
1.281
-0.241
-1.941
-0.722
0.638
0.942
0.715
0.169
-0.433
-0.353
-0.183
0.084
0.100
0.093
0.043
-0.009
0.078
0.169
0.079
0.133
0.034
0.013
-0.017
0.024
0.016
0.040
-0.027
0.235
0.681
-0.399
-0.804
-0.240
0.360
0.254
0.296
0.190
-0.043
-0.166
-0.078
0.092
0.092
0.001
-0.040
-0.006
0.031
0.064
0.210
0.130
0.131
-0.030
-0.059
-0.096
-0.001
0.012
-0.002
0.080
-0.025
-0.009
-0.025
-0.016
0.076
0.121
0.030
-0.046
-0.031
0.051
0.030
0.080
0.038
0.034
-0.001
0.039
0.017
0.230
-0.192
-0.350
0.167
0.382
0.304
0.030
-0.083
-0.065
0.053
0.111
-0.001
0.122
0.051
0.060
0.101
0.006
-0.033
0.684
0.962
-1.370
-1.513
0.067
0.826
0.730
0.180
-0.202
-0.243
-0.167
0.008
-0.090
-0.035
0.086
0.040
0.041
0.074
0.190
0.032
0.003
0.031
0.090
0.003
0.007
0.019
-0.026
0.016
-0.016
0.029
0.072
0.063
0.124
0.054
0.087
0.003
0.011
-0.034
0.054
0.166
-0.151
-0.188
0.057
0.230
0.253
0.061
-0.073
-0.135
-0.149
-0.055
0.042
0.124
0.135
0.113
0.154
-0.001
-0.013
-0.056
-0.030
-0.005
-0.039
-0.010
-0.013
0.018
0.012
0.062
0.014
0.027
0.008
0.032
0.086
0.019
-0.027
0.076
-0.034
0.013
-0.024
0.152
0.081
0.131
0.027
-0.495
-0.130
0.316
0.385
0.188
-0.083
-0.075
-0.033
0.040
0.066
0.084
0.037
0.127
0.142
1.147
0.425
-1.778
-1.297
0.280
0.916
0.775
0.251
-0.185
-0.319
-0.145
-0.121
-0.148
0.068
0.144
0.181
0.522
0.594
-0.527
-0.638
-0.002
0.219
0.314
0.263
0.060
-0.026
-0.071
-0.118
-0.106
-0.000
-0.015
0.053
0.114
-0.030
0.081
0.098
0.076
0.059
-0.030
-0.061
0.075
0.105
-0.021
0.064
0.025
-0.029
0.107
0.036
0.000
0.059
0.074
0.008
0.004
0.047
0.064
0.123
0.112
0.075
-0.005
0.004
-0.073
0.034
-0.018
0.045
-0.003
-0.020
-0.008
-0.023
-0.046
0.021
0.057
0.007
0.087
0.067
1.164
0.246
-1.886
-0.967
0.277
0.874
0.662
0.231
0.038
-0.114
-0.670
-0.145
0.147
0.148
0.217
0.200
0.208
0.125
-0.091
-0.025
0.032
0.041
0.096
0.186
0.065
-0.089
0.071
-0.037
-0.069
-0.006
0.007
-0.078
-0.044
0.043
0.031
0.038
0.098
0.046
0.005
0.086
0.010
0.065
-0.006
-0.001
-0.008
0.100
0.077
0.063
0.106
0.029
-0.037
0.007
-0.024
0.027
0.056
0.048
-0.012
-0.021
-0.022
0.116
0.058
-0.087
0.052
0.028
0.059
0.070
0.026
0.034
0.101
0.006
0.039
0.055
0.014
-0.117
-0.083
0.052
0.058
0.137
0.188
0.102
-0.034
-0.049
-0.035
0.058
0.071
0.184
0.705
-0.186
-0.932
-0.104
0.311
-0.193
0.084
0.482
0.468
0.160
-0.215
-0.259
-0.257
0.043
1.227
-0.452
-1.691
-0.277
0.613
0.910
0.522
0.101
-0.190
-0.287
-0.288
-0.208
-0.104
0.007
0.069
0.147
0.152
0.246
0.153
0.094
-0.113
-0.037
0.067
0.151
0.035
-0.036
-0.043
0.013
0.047
0.060
0.037
-0.015
0.060
0.073
0.001
-0.011
0.044
0.005
0.055
0.030
-0.001
-0.003
-0.042
-0.079
0.140
0.204
0.158
-0.024
-0.109
-0.044
0.047
0.107
0.133
0.038
0.012
-0.017
0.029
0.060
0.009
0.040
0.054
-0.050
0.075
0.052
-0.027
0.002
-0.010
0.059
0.039
-0.012
0.027
-0.008
-0.008
0.101
0.240
0.196
-0.397
-0.147
0.364
0.193
0.181
-0.102
-0.079
-0.087
1.195
0.112
-1.685
-0.723
0.404
0.837
0.585
0.105
-0.160
-0.231
-0.246
-0.100
-0.015
0.069
0.100
0.178
0.158
0.164
0.061
0.074
0.058
0.089
0.074
0.040
-0.073
0.032
0.006
-0.011
0.053
0.028
0.032
0.020
0.097
0.021
-0.035
0.053
0.013
0.038
0.068
0.003
-0.051
-0.009
0.017
-0.019
-0.007
0.034
-0.012
-0.032
0.085
0.033
0.108
0.096
0.016
-0.047
0.056
0.038
0.078
-0.034
0.046
0.062
-0.022
0.089
0.031
0.103
0.031
0.050
0.052
0.112
0.019
-0.056
-0.143
0.007
0.127
0.043
0.092
0.050
0.034
0.072
0.120
0.024
-0.015
-0.047
0.012
0.052
0.097
0.084
0.087
0.017
-0.030
0.161
-0.065
-0.448
0.061
0.404
0.391
0.150
-0.150
-0.218
-0.092
1.092
0.422
-1.663
-1.018
0.399
0.759
0.645
0.215
0.473
-0.313
-1.172
-0.485
0.195
0.384
0.256
0.254
0.113
-0.006
0.027
-0.012
0.074
0.092
0.082
0.068
0.049
0.010
0.137
0.066
0.011
-0.085
-0.022
0.087
0.149
-0.070
-0.002
0.028
0.064
0.014
0.027
-0.005
0.085
0.006
0.026
-0.009
-0.179
-0.093
0.225
0.139
0.103
-0.041
-0.064
-0.008
-0.022
0.040
0.052
0.132
0.054
0.058
-0.015
-0.078
0.006
-0.019
0.014
-0.024
0.079
0.085
0.073
0.018
-0.036
-0.046
-0.002
0.030
0.095
0.047
0.031
0.059
0.045
-0.032
0.004
0.390
1.232
-0.881
-1.785
0.043
0.467
0.492
0.497
0.279
0.030
-0.092
-0.158
-0.200
-0.207
-0.121
0.197
0.341
0.231
0.126
0.058
-0.010
-0.112
-0.080
0.056
0.007
-0.003
-0.056
0.032
-0.036
0.024
0.075
0.142
0.022
-0.052
0.022
0.026
-0.001
0.006
0.049
-0.012
0.014
0.066
0.015
0.067
-0.030
0.049
0.006
0.057
0.133
0.086
-0.008
0.008
-0.052
0.044
0.067
-0.084
-0.002
0.130
0.120
0.056
0.038
-0.028
0.000
0.108
0.084
-0.010
-0.198
-0.034
0.261
0.243
0.109
-0.045
-0.035
-0.118
-0.012
0.040
0.082
0.023
0.054
0.071
0.004
0.025
-0.018
-0.076
-0.014
-0.024
0.017
0.052
0.254
0.533
0.128
0.454
-0.847
-1.691
-0.112
0.957
0.741
0.232
0.010
0.215
0.024
-0.241
-0.325
-0.305
0.025
0.184
0.242
0.251
0.169
0.139
0.168
-0.093
-0.235
-0.168
0.196
0.270
0.133
-0.085
-0.117
-0.049
-0.066
0.036
-0.033
-0.028
0.047
0.052
0.004
0.069
0.011
0.002
0.062
-0.080
-0.039
0.021
-0.005
0.013
0.063
0.010
0.065
0.011
0.049
0.016
-0.003
0.104
0.083
-0.043
0.015
0.113
0.036
0.038
0.027
-0.062
0.054
0.143
0.083
0.100
0.039
0.008
0.006
-0.025
0.033
0.065
0.005
0.062
0.080
1.262
-0.048
-1.803
-0.681
0.460
0.746
0.539
0.178
-0.168
-0.236
-0.235
-0.104
-0.018
-0.003
0.065
0.069
0.192
0.081
0.059
0.038
0.032
0.269
-0.223
-0.250
0.249
0.289
0.197
-0.019
-0.127
-0.026
-0.006
0.035
-0.067
-0.037
0.230
0.146
0.202
0.066
-0.068
-0.079
-0.011
0.054
0.080
0.116
0.102
0.072
0.020
-0.025
-0.043
-0.038
0.069
0.010
-0.029
0.039
-0.042
0.073
0.055
0.117
-0.073
-0.150
-0.081
0.027
0.227
0.106
0.164
-0.002
-0.021
0.006
-0.036
0.046
-0.058
0.046
0.062
0.130
0.064
-0.008
-0.031
-0.002
0.070
0.068
0.027
0.044
0.034
0.014
0.034
0.145
0.654
-0.085
-0.826
-0.233
0.283
1.044
0.842
-1.579
-1.192
0.219
0.737
0.575
0.194
-0.149
-0.148
-0.217
-0.049
-0.078
0.052
0.143
0.143
0.129
0.142
0.128
0.067
0.045
0.143
0.097
-0.304
-0.410
0.105
0.406
0.317
-0.020
-0.100
-0.304
-0.041
0.234
0.249
0.137
0.038
-0.165
-0.054
-0.043
0.015
0.052
0.078
0.044
0.041
-0.037
-0.003
0.023
-0.003
0.045
0.064
0.009
0.102
0.037
-0.075
0.021
0.053
0.045
-0.090
-0.047
0.024
0.072
0.023
-0.086
-0.089
0.106
0.269
0.200
0.090
0.066
1.219
-0.306
-1.832
-0.528
0.595
0.933
0.497
0.100
-0.088
-0.134
-0.219
-0.146
-0.118
-0.072
0.140
0.175
0.091
0.111
0.011
0.093
-0.012
0.141
-0.009
0.041
-0.049
0.021
-0.034
0.001
0.053
-0.048
-0.009
0.031
0.010
0.010
0.043
0.068
0.064
0.024
0.022
0.086
0.119
-0.035
0.025
0.162
0.241
-0.386
-0.176
0.236
0.393
0.242
-0.065
-0.104
-0.061
-0.043
0.057
0.027
0.071
0.243
0.690
-0.118
-0.922
-0.354
0.178
0.208
0.115
0.154
0.113
0.062
0.023
-0.134
0.014
0.052
-0.001
0.083
0.145
0.139
0.131
0.116
0.030
0.058
0.294
1.261
-0.660
-1.798
-0.361
0.512
0.785
0.495
0.094
-0.159
-0.160
-0.149
-0.121
-0.060
0.101
-0.133
-0.085
0.251
0.339
0.125
0.035
-0.001
-0.021
0.006
-0.058
-0.042
0.064
0.022
-0.058
0.092
0.137
0.035
-0.039
-0.011
-0.026
0.106
-0.028
-0.065
-0.014
0.086
0.252
-0.031
-0.019
-0.009
-0.186
-0.161
0.094
0.244
0.220
0.094
-0.122
-0.009
0.009
-0.021
0.029
0.030
-0.005
-0.081
0.073
0.048
0.007
0.096
0.040
-0.372
-0.077
0.368
0.292
0.097
-0.051
-0.114
-0.045
-0.041
0.044
0.150
0.145
0.004
-0.038
0.047
0.049
0.066
0.851
0.644
-1.733
-1.272
0.315
0.764
0.628
0.189
-0.025
-0.227
-0.162
-0.167
-0.152
0.067
0.187
0.228
0.161
0.056
0.083
0.028
0.023
-0.015
0.003
0.138
0.000
0.068
0.017
-0.039
-0.096
0.033
0.118
0.125
0.113
-0.041
-0.061
-0.004
-0.064
0.137
0.225
-0.037
0.013
0.625
-0.230
-0.932
-0.161
0.384
0.243
0.137
0.120
0.003
-0.004
-0.100
-0.081
-0.062
0.101
0.059
0.083
0.160
0.108
0.122
0.072
0.053
-0.084
0.136
-0.047
0.034
-0.011
-0.036
-0.001
0.098
-0.002
0.036
0.027
0.062
-0.019
0.015
-0.061
-0.005
-0.054
0.037
-0.090
-0.072
0.863
1.025
-1.331
-1.446
0.022
0.685
0.790
0.531
-0.419
-0.442
0.086
0.296
0.130
-0.083
-0.084
-0.074
0.060
0.083
0.204
0.125
0.081
0.085
0.061
0.046
-0.053
-0.033
0.018
-0.078
0.017
-0.107
-0.101
-0.166
0.055
0.280
0.215
0.035
-0.113
0.053
-0.024
0.003
0.022
0.062
0.156
0.139
0.061
0.044
-0.019
0.008
0.043
-0.053
-0.020
-0.017
-0.009
0.029
0.028
0.073
0.032
-0.049
-0.020
0.077
0.108
0.119
0.180
-0.021
-0.161
-0.036
0.033
0.021
-0.003
0.056
-0.013
0.911
0.631
-1.648
-1.261
0.277
0.982
0.716
0.237
0.517
-0.205
-0.990
-0.514
0.116
0.246
0.247
0.266
0.230
0.107
-0.061
-0.049
0.033
-0.037
-0.039
0.031
0.081
0.055
0.213
0.046
-0.530
-0.017
0.421
0.274
0.118
-0.102
-0.239
-0.086
-0.067
-0.095
0.099
0.230
0.152
0.108
0.030
0.006
0.046
-0.073
-0.037
0.004
0.043
0.061
0.029
0.054
-0.010
0.047
-0.032
0.033
0.001
0.030
0.074
0.001
0.081
0.090
-0.049
-0.000
0.070
0.045
0.058
0.028
0.065
0.104
-0.019
0.081
0.060
-0.005
0.056
-0.051
0.045
0.056
0.106
0.165
0.051
0.010
0.462
1.143
-1.041
-1.729
-0.093
0.652
0.782
0.340
0.066
-0.067
-0.266
-0.343
-0.144
0.144
0.264
-0.022
-0.194
0.150
0.215
0.216
0.159
0.124
-0.063
-0.071
-0.021
-0.045
-0.007
0.040
0.001
0.024
-0.009
0.051
0.062
-0.053
0.041
0.105
0.150
-0.154
-0.435
0.105
0.474
0.240
-0.029
-0.196
-0.047
0.004
0.032
0.049
0.040
0.053
0.099
0.015
-0.022
0.007
-0.007
-0.057
0.015
-0.024
-0.019
0.051
0.004
0.029
0.064
0.098
0.085
0.049
0.023
-0.001
0.027
0.021
0.022
-0.007
0.077
0.129
-0.015
-0.010
-0.024
-0.038
0.075
0.037
0.076
0.117
0.038
0.031
1.038
0.166
-1.878
-0.867
0.375
0.772
0.720
0.131
-0.086
-0.167
-0.219
0.120
0.520
-0.342
-0.768
-0.030
0.406
0.290
0.272
0.222
0.148
0.047
0.017
-0.187
-0.020
-0.015
0.067
0.063
0.049
0.097
0.029
-0.001
0.034
0.098
0.048
0.081
0.083
-0.031
-0.144
-0.192
-0.055
0.124
0.134
0.199
-0.096
-0.445
0.042
0.439
0.332
-0.001
-0.159
-0.008
0.127
0.020
0.002
0.013
0.044
0.056
0.125
0.086
0.000
-0.150
-0.075
0.114
0.200
0.081
-0.054
-0.045
0.019
-0.000
0.034
0.010
0.028
0.103
-0.023
0.022
0.881
0.546
-1.686
-1.222
0.361
0.870
0.621
0.118
-0.188
-0.101
-0.201
-0.112
-0.014
0.174
0.114
0.187
0.154
-0.002
0.027
0.112
0.268
0.171
0.021
-0.105
-0.133
-0.120
0.011
0.084
0.016
-0.007
-0.018
-0.040
0.020
0.045
-0.059
0.027
-0.066
-0.044
-0.003
0.139
0.075
0.027
0.044
-0.013
0.131
0.105
-0.001
0.061
0.038
0.070
0.093
0.022
-0.181
-0.066
0.011
0.072
0.119
0.135
0.056
0.009
-0.037
0.081
0.003
-0.420
-0.102
0.385
0.321
0.154
0.003
-0.122
-0.082
0.004
0.028
0.087
0.137
-0.067
-0.069
-0.015
0.145
0.115
0.068
0.746
0.796
-1.557
-1.468
0.149
0.789
0.703
0.247
-0.044
-0.168
-0.160
-0.155
-0.038
-0.091
0.036
0.134
0.208
0.107
0.089
0.130
0.683
0.021
-0.907
-0.314
0.222
0.171
0.209
0.148
0.092
-0.038
-0.094
-0.107
-0.072
-0.032
-0.033
0.119
0.109
0.072
0.033
0.070
0.125
0.101
0.021
-0.007
-0.054
0.007
-0.052
0.031
0.084
0.091
-0.021
-0.016
0.013
0.006
-0.020
0.008
0.114
0.033
-0.128
-0.107
0.235
0.225
0.163
-0.035
-0.056
0.025
-0.020
-0.020
0.027
0.083
0.075
0.131
0.008
-0.000
-0.034
-0.032
0.011
-0.045
-0.010
0.057
-0.010
0.059
0.046
0.261
-0.301
-0.189
0.224
0.392
0.347
-0.014
-0.135
-0.160
-0.071
0.706
1.053
-1.331
-1.407
0.216
0.802
0.773
0.243
-0.073
-0.174
-0.277
-0.268
-0.115
-0.008
0.104
0.150
0.123
0.234
0.082
-0.026
-0.001
0.032
0.053
0.136
-0.036
0.045
0.012
-0.019
0.049
-0.029
0.064
0.144
0.071
-0.113
-0.239
0.099
0.052
0.095
0.212
-0.010
-0.165
-0.038
0.143
0.173
0.101
-0.043
-0.031
0.015
-0.014
0.096
-0.018
0.014
0.042
-0.042
0.053
0.148
0.116
0.030
-0.032
0.016
0.016
0.038
-0.000
0.035
-0.009
0.056
-0.002
0.007
0.019
0.017
0.067
-0.008
0.057
-0.007
0.044
-0.020
0.026
0.142
0.019
-0.005
0.081
1.164
0.128
-1.854
-0.813
0.426
0.897
0.614
0.179
-0.487
-0.311
0.097
0.199
0.099
-0.127
-0.068
0.026
0.009
0.108
0.211
0.142
0.133
0.052
-0.010
-0.045
0.045
-0.040
0.003
-0.189
-0.127
0.068
0.770
0.201
-0.826
-0.436
0.132
0.229
0.261
0.161
0.063
-0.022
0.020
-0.040
-0.019
-0.022
0.034
0.112
0.103
0.074
-0.003
0.009
0.069
0.120
0.045
-0.043
-0.023
0.035
-0.030
-0.025
0.080
0.057
0.038
0.065
-0.011
0.021
0.111
0.076
-0.073
-0.073
-0.061
0.057
0.160
0.090
0.110
-0.024
-0.034
0.073
-0.036
-0.017
-0.007
0.025
0.064
0.181
0.025
0.051
0.013
0.116
0.061
-0.016
-0.012
0.082
1.244
-0.118
-1.914
-0.617
0.557
0.978
0.523
0.028
-0.221
-0.187
-0.187
0.033
-0.029
-0.434
-0.048
0.473
0.396
0.072
0.029
0.149
0.036
-0.056
-0.008
-0.009
0.094
0.025
0.067
0.046
0.011
-0.015
0.039
0.014
0.041
-0.056
-0.023
0.051
0.052
0.030
0.064
0.008
0.001
0.004
0.077
0.076
0.112
0.062
-0.045
-0.083
-0.012
0.046
0.060
-0.021
0.033
0.106
0.062
-0.039
-0.074
-0.145
0.036
0.189
0.205
0.135
-0.010
0.087
-0.044
-0.075
0.007
-0.012
0.121
0.141
0.043
0.028
-0.028
0.042
0.123
-0.062
0.044
-0.058
-0.043
0.139
1.237
0.075
-1.889
-0.947
0.437
0.902
0.685
0.103
-0.074
-0.178
-0.227
-0.190
-0.071
0.007
0.150
0.128
0.250
0.698
0.126
-0.839
-0.453
0.282
0.323
0.210
0.208
0.122
-0.092
-0.168
-0.167
-0.033
-0.007
0.075
-0.009
0.123
0.047
0.001
0.265
-0.005
-0.439
-0.031
0.367
0.318
0.033
-0.266
-0.186
0.026
-0.031
0.077
0.153
0.108
0.102
0.053
0.062
-0.008
-0.065
-0.029
-0.039
0.040
-0.015
-0.018
0.020
0.094
0.075
0.086
0.060
0.009
-0.016
0.026
0.071
-0.043
0.045
-0.006
0.003
0.109
0.066
0.087
0.005
-0.015
-0.023
0.009
0.142
0.046
0.027
-0.014
-0.012
0.040
1.107
0.112
-1.690
-0.808
0.534
0.818
0.571
0.113
-0.130
-0.219
-0.175
-0.149
-0.024
0.085
-0.011
0.055
0.172
0.350
0.182
0.052
0.014
-0.038
0.049
-0.035
0.001
0.082
0.054
0.065
-0.062
-0.002
0.034
0.040
-0.011
-0.092
-0.081
-0.025
0.089
0.134
0.013
-0.086
0.152
-0.298
-0.054
0.340
0.346
0.192
-0.040
-0.146
-0.040
0.049
0.075
0.035
0.077
0.106
0.097
0.034
-0.055
-0.050
-0.020
0.002
-0.042
-0.007
0.095
-0.009
0.003
0.101
0.048
0.051
0.019
0.208
0.595
-0.264
-0.772
-0.159
0.295
0.252
0.163
0.098
0.083
-0.115
0.073
1.266
-0.242
-1.863
-0.607
0.445
0.853
0.605
0.130
-0.036
-0.223
-0.102
-0.135
-0.082
0.029
0.014
0.139
0.116
0.083
0.057
0.034
0.022
0.045
0.133
0.109
0.007
-0.007
-0.107
0.114
0.074
0.012
0.089
-0.010
-0.016
0.049
0.043
0.036
-0.045
0.003
0.080
0.010
-0.024
0.066
0.052
0.084
0.120
-0.377
-0.074
0.382
0.317
0.057
-0.083
-0.117
-0.055
0.024
0.043
0.114
0.098
0.046
-0.016
0.049
0.078
-0.016
0.063
0.062
-0.057
-0.021
-0.056
-0.025
0.177
0.133
-0.022
-0.074
0.072
-0.007
0.097
0.150
0.122
0.042
0.003
-0.055
-0.017
-0.030
-0.024
-0.034
-0.079
0.152
0.154
0.215
0.094
-0.086
-0.030
-0.043
-0.011
0.434
1.261
-0.853
-1.723
-0.071
0.650
0.824
0.388
-0.016
-0.227
-0.285
-0.201
-0.104
-0.036
0.099
0.088
0.137
0.102
0.006
0.131
-0.018
0.020
0.105
0.235
0.086
-0.079
-0.105
-0.131
0.014
0.105
0.163
0.130
0.081
0.006
-0.042
-0.036
-0.005
0.102
0.030
-0.016
-0.057
0.041
-0.027
-0.037
0.105
0.035
0.009
-0.039
0.192
0.153
-0.426
-0.064
0.322
0.269
0.199
-0.032
-0.052
-0.021
-0.083
0.068
-0.005
-0.000
0.070
0.118
0.061
0.119
0.001
0.013
0.032
-0.084
-0.073
0.053
0.030
0.073
0.050
0.032
0.076
0.055
0.016
-0.044
0.085
0.037
0.548
1.127
-1.033
-1.719
0.014
0.691
0.889
0.328
-0.013
-0.189
-0.127
-0.107
-0.121
0.127
0.537
-0.301
-0.715
-0.070
0.584
0.434
0.196
0.077
0.008
-0.144
-0.085
-0.091
-0.068
0.063
0.015
0.116
0.178
0.069
-0.006
0.095
-0.031
-0.134
0.041
0.121
0.114
0.063
0.008
-0.004
-0.102
-0.009
0.082
-0.020
0.041
0.065
0.073
0.070
0.046
-0.031
0.071
0.077
0.145
-0.101
-0.413
0.045
0.491
0.330
0.000
-0.048
-0.082
-0.015
-0.052
0.018
0.089
0.143
-0.004
0.029
-0.099
0.052
0.079
0.072
-0.057
-0.027
0.032
0.026
-0.022
0.050
0.064
0.062
0.083
0.125
-0.013
-0.014
-0.025
0.142
0.019
0.054
0.081
0.015
-0.000
-0.001
0.041
0.028
1.048
0.569
-1.658
-1.102
0.313
0.785
0.649
0.208
-0.102
-0.169
-0.143
-0.146
-0.002
-0.026
0.080
0.198
0.114
0.111
0.118
0.077
0.075
0.058
0.016
0.017
-0.007
-0.004
0.071
-0.051
0.005
0.105
0.084
0.046
-0.139
-0.138
0.059
0.022
0.080
0.090
-0.009
-0.028
0.009
0.055
-0.028
0.081
0.150
-0.315
-0.019
0.257
0.341
0.130
-0.099
-0.125
-0.108
0.091
0.100
0.087
0.084
0.095
0.007
0.028
-0.138
-0.085
0.084
0.186
0.081
0.061
-0.040
-0.079
-0.071
-0.020
-0.055
-0.011
0.155
0.239
0.146
-0.046
-0.057
-0.039
-0.028
0.011
-0.041
0.425
0.644
0.672
-0.941
-1.859
-0.212
0.703
1.003
0.594
0.109
-0.301
-0.286
-0.161
-0.237
-0.045
-0.045
0.102
0.235
0.287
0.089
0.091
0.049
-0.014
-0.020
-0.015
0.095
0.016
0.117
-0.032
-0.068
-0.014
0.126
0.056
0.052
-0.016
-0.007
0.038
0.035
-0.044
0.035
-0.015
0.040
0.087
0.005
0.081
0.001
0.075
-0.029
-0.026
0.069
0.059
0.022
-0.005
0.067
0.030
0.089
0.187
-0.451
-0.155
0.270
0.252
0.209
-0.074
-0.037
-0.011
-0.028
-0.006
0.091
0.052
0.117
0.060
-0.103
-0.015
0.055
0.048
0.094
0.055
-0.004
0.013
0.395
1.095
-1.008
-1.750
-0.046
0.753
0.826
0.427
-0.028
-0.132
-0.148
-0.108
-0.087
-0.051
0.035
0.012
0.164
0.084
0.110
0.073
0.054
0.045
0.005
0.010
0.046
0.008
-0.027
0.022
-0.039
0.007
0.036
0.042
-0.025
0.107
-0.031
0.002
-0.077
-0.058
0.030
-0.036
0.031
0.065
0.064
0.086
-0.028
-0.186
0.015
0.196
0.186
0.089
0.022
-0.028
0.106
0.069
0.056
0.084
0.093
-0.003
0.111
0.045
-0.074
0.055
0.579
0.003
-0.935
-0.453
0.142
0.252
0.256
0.260
0.111
-0.487
-0.099
0.248
0.340
0.110
-0.041
-0.063
-0.051
0.089
0.069
0.054
-0.013
0.009
0.081
0.065
-0.080
0.794
0.869
-1.382
-1.316
-0.005
0.674
0.649
0.259
-0.028
-0.115
-0.210
-0.156
-0.105
0.069
0.092
0.183
0.089
0.085
0.064
0.086
0.032
0.039
0.044
0.037
0.001
0.050
0.075
0.083
0.026
-0.031
0.010
-0.010
-0.013
0.026
0.093
-0.040
0.061
0.010
0.087
0.062
-0.125
-0.142
0.112
0.038
0.118
0.115
-0.022
-0.005
0.003
0.100
0.080
-0.030
-0.090
0.040
0.143
0.087
-0.049
0.012
0.014
0.033
-0.053
-0.028
0.046
0.094
-0.010
-0.032
0.062
0.059
0.039
-0.047
0.077
0.604
1.052
-1.110
-1.585
0.061
0.649
0.709
0.299
-0.021
-0.145
-0.195
-0.092
-0.143
-0.012
0.182
0.019
-0.253
0.099
0.414
0.454
0.135
-0.115
-0.020
-0.090
-0.002
0.080
-0.022
-0.002
0.035
0.113
0.038
-0.123
-0.095
0.066
0.134
0.084
0.132
-0.092
-0.080
-0.017
0.029
0.029
0.034
0.035
0.096
0.069
0.120
0.021
-0.038
-0.066
-0.013
0.022
0.052
0.074
0.093
0.053
0.052
-0.002
-0.011
0.090
-0.012
0.132
0.084
-0.037
0.076
-0.005
0.028
0.038
0.003
-0.030
0.042
0.066
0.109
0.041
0.047
0.087
0.129
0.005
-0.136
-0.022
-0.001
0.048
0.133
0.098
0.064
-0.006
-0.004
0.039
-0.052
0.382
1.172
-0.796
-1.772
-0.170
0.717
0.815
0.354
0.052
-0.172
-0.199
-0.117
0.063
-0.396
-0.188
0.406
0.464
0.340
-0.015
-0.083
-0.030
-0.007
-0.025
0.122
0.106
0.015
-0.023
0.008
-0.022
0.494
0.300
-0.716
-0.517
0.007
0.234
0.248
0.287
0.100
-0.069
-0.079
-0.100
0.035
0.014
-0.063
-0.040
0.067
0.070
0.118
0.066
0.071
0.053
-0.021
0.041
0.075
0.043
0.030
0.024
0.005
0.035
-0.073
-0.021
0.111
0.198
0.104
-0.041
-0.070
0.061
0.005
0.008
0.118
0.028
0.027
0.091
0.023
0.015
-0.025
0.015
0.001
-0.084
-0.065
-0.029
0.167
0.315
0.150
-0.030
-0.092
-0.097
-0.088
0.036
0.157
0.377
1.312
-0.718
-1.797
-0.346
0.482
0.729
0.403
-0.006
-0.130
-0.138
-0.180
-0.138
-0.080
0.166
0.080
-0.316
0.138
0.486
0.416
0.157
-0.118
-0.197
-0.132
-0.021
0.186
0.118
0.074
-0.107
-0.131
0.022
0.050
0.049
0.047
0.004
0.031
0.027
-0.036
0.045
0.078
0.072
0.075
0.050
-0.027
-0.156
-0.121
-0.027
0.166
0.129
0.041
0.040
0.046
0.067
-0.022
-0.045
-0.077
0.013
0.052
0.052
0.063
0.050
0.030
0.010
0.016
0.050
0.051
0.022
0.112
0.105
-0.035
0.045
0.084
-0.054
-0.004
-0.036
-0.012
0.059
0.027
0.091
0.018
-0.041
-0.015
0.063
0.081
0.044
-0.020
0.016
0.072
-0.018
0.065
0.096
0.009
0.024
0.451
1.106
-0.917
-1.606
-0.089
0.618
0.775
0.427
0.046
-0.240
-0.163
-0.109
-0.048
-0.112
-0.435
0.172
0.468
0.365
0.035
-0.100
-0.095
0.013
-0.055
-0.095
0.074
0.210
0.184
0.068
-0.027
-0.073
0.044
-0.063
-0.018
-0.073
0.019
0.076
0.007
-0.025
0.001
-0.001
0.050
0.068
0.046
-0.086
0.054
0.101
0.659
-0.020
-0.885
-0.305
0.263
0.249
0.164
0.141
0.086
-0.042
-0.142
-0.095
-0.073
-0.020
-0.018
0.009
0.122
0.084
0.075
0.038
0.128
0.070
0.064
0.012
-0.017
0.012
0.044
0.069
-0.056
-0.025
0.049
0.020
0.050
0.120
0.046
0.237
1.227
-0.524
-1.789
-0.459
0.624
0.798
0.442
0.014
-0.041
-0.109
-0.219
-0.187
-0.104
0.133
0.121
0.160
0.117
0.031
0.234
0.180
-0.373
-0.174
0.397
0.251
0.052
-0.033
-0.007
0.067
-0.101
-0.079
0.018
0.050
0.071
0.100
0.024
0.050
-0.016
0.078
-0.015
-0.047
-0.064
0.043
0.071
0.052
0.067
0.026
0.034
0.056
0.122
0.093
-0.061
-0.050
0.106
0.059
0.046
0.033
-0.038
-0.075
0.070
-0.022
0.068
0.051
0.019
0.091
0.133
0.066
-0.077
-0.039
0.011
-0.002
0.092
0.061
0.084
0.022
0.021
-0.025
-0.072
0.082
0.136
0.210
0.082
-0.020
-0.177
-0.059
-0.029
0.110
0.182
0.540
1.053
-1.128
-1.685
0.059
0.741
0.700
0.344
-0.004
-0.147
-0.272
-0.175
-0.119
0.157
-0.132
-0.190
0.321
0.401
0.295
0.082
-0.103
0.068
-0.018
0.013
0.032
-0.000
0.054
0.082
-0.010
0.025
0.043
-0.017
-0.051
-0.064
0.078
0.048
0.016
0.057
0.043
-0.045
0.003
0.059
0.013
0.017
0.035
-0.034
0.121
0.126
0.151
0.067
-0.104
0.005
-0.004
0.032
0.073
0.038
0.014
0.017
0.060
0.019
0.016
-0.019
0.045
0.082
0.041
0.061
0.304
0.498
-0.491
-0.864
-0.101
0.347
0.226
0.183
0.242
-0.026
-0.095
-0.064
-0.050
0.798
0.770
-1.510
-1.278
0.210
0.835
0.816
0.291
-0.022
-0.159
-0.242
-0.256
-0.164
0.073
0.111
0.202
0.056
0.051
0.111
0.010
0.094
0.049
0.051
0.035
0.031
0.023
-0.015
0.046
-0.442
-0.095
0.348
0.413
0.009
-0.239
-0.012
-0.024
-0.033
0.041
0.108
-0.012
-0.099
0.007
0.181
0.202
0.101
-0.034
-0.022
-0.101
0.008
0.010
0.056
0.032
0.047
0.099
0.059
-0.002
0.030
-0.056
0.042
0.093
-0.053
-0.004
0.028
0.048
0.029
0.062
0.036
-0.061
-0.004
0.115
0.218
0.174
-0.083
-0.079
-0.113
0.031
0.171
0.061
0.084
-0.087
0.022
-0.075
0.019
0.011
0.073
0.440
1.220
-0.850
-1.670
-0.122
0.561
0.744
0.408
0.035
-0.147
-0.158
-0.122
-0.115
-0.030
0.009
0.070
0.082
0.143
0.070
0.072
0.083
0.054
0.070
0.101
-0.027
-0.070
-0.085
0.084
-0.010
0.078
0.083
0.044
-0.007
0.088
-0.027
-0.347
-0.001
0.319
0.352
0.151
-0.181
-0.198
-0.113
0.096
0.075
0.068
0.074
0.046
0.068
0.059
0.008
0.004
0.049
0.002
-0.012
0.028
0.065
0.089
-0.047
-0.001
-0.011
0.004
0.110
0.131
-0.051
-0.014
0.115
0.044
0.043
-0.066
0.025
-0.031
0.030
0.064
0.065
0.049
0.053
0.088
0.090
0.568
0.873
-1.355
-1.452
0.183
0.864
0.839
0.302
-0.120
-0.229
-0.128
0.479
-0.279
-0.840
-0.165
0.357
0.364
0.243
0.253
0.160
-0.006
-0.117
-0.115
-0.016
-0.108
-0.011
0.077
0.185
0.192
0.073
-0.026
0.030
0.031
0.034
-0.051
-0.006
-0.038
0.080
0.125
0.219
-0.291
-0.256
0.154
0.329
0.291
-0.027
-0.096
-0.091
0.007
0.006
0.063
0.043
0.045
0.080
0.107
0.081
-0.064
-0.120
0.030
-0.054
-0.003
0.018
-0.020
0.076
0.070
0.060
0.073
0.048
0.049
0.038
-0.121
-0.014
0.008
0.195
0.243
0.230
-0.003
-0.078
-0.064
0.722
0.599
-1.538
-1.212
0.341
0.819
0.725
0.227
-0.135
-0.199
-0.226
-0.159
-0.142
-0.023
0.064
0.116
0.112
0.062
0.139
0.036
0.105
0.004
-0.019
0.056
-0.020
-0.024
0.004
-0.003
0.019
0.094
0.110
0.045
-0.001
-0.040
0.089
0.033
0.077
0.031
0.093
-0.014
0.019
0.066
0.078
-0.093
-0.083
0.059
0.140
0.132
0.076
-0.089
-0.126
0.125
-0.274
-0.110
0.236
0.308
0.232
0.076
-0.065
-0.077
-0.142
-0.023
0.108
0.096
0.090
0.071
0.077
-0.076
-0.051
0.004
-0.011
0.011
-0.052
-0.056
-0.008
0.089
0.112
0.076
0.102
0.068
0.025
0.048
1.115
0.271
-1.701
-0.851
0.447
0.764
0.694
0.058
-0.173
-0.193
-0.160
-0.079
-0.026
0.155
0.066
-0.034
0.015
0.054
0.109
0.185
0.220
0.120
-0.015
0.011
0.056
-0.027
0.026
-0.065
-0.012
0.039
0.006
-0.109
-0.074
0.069
0.130
0.707
-0.045
-0.829
-0.352
0.262
0.161
0.177
0.191
0.123
-0.020
-0.056
-0.078
0.024
-0.011
0.003
0.088
0.101
0.067
0.092
0.116
0.082
-0.031
-0.093
0.140
0.080
-0.457
-0.060
0.441
0.317
0.135
-0.178
-0.204
-0.117
0.023
0.158
0.167
0.083
0.018
-0.081
-0.194
-0.009
0.180
0.230
0.185
0.078
1.009
-0.162
-1.771
-0.679
0.605
0.888
0.511
0.028
-0.109
-0.209
-0.234
-0.154
-0.064
0.043
0.053
0.232
0.177
0.122
0.017
0.009
-0.009
0.024
0.083
0.104
0.021
-0.023
0.069
0.006
0.123
0.034
-0.043
0.038
-0.030
-0.076
-0.014
0.073
0.188
0.054
0.003
-0.067
0.005
-0.038
0.038
-0.021
-0.014
0.158
0.082
0.055
0.103
0.050
-0.075
-0.106
-0.105
0.059
0.069
0.081
0.128
0.011
-0.011
-0.040
0.023
0.036
0.058
0.080
0.062
0.004
0.008
0.111
0.275
-0.143
-0.296
0.128
0.426
0.349
-0.074
-0.313
-0.086
-0.059
0.032
0.132
0.030
0.066
0.038
0.009
-0.013
0.040
-0.002
0.646
0.935
-1.292
-1.451
0.061
0.702
0.777
0.247
-0.010
0.356
0.109
-0.861
-0.710
-0.005
0.324
0.332
0.370
0.224
-0.008
-0.082
-0.100
-0.119
0.017
0.044
0.099
0.193
0.085
0.059
0.065
-0.015
0.008
-0.155
0.059
0.193
0.243
0.109
-0.073
-0.112
0.003
-0.019
0.003
-0.044
0.051
0.112
0.124
0.014
-0.090
-0.012
0.050
0.095
0.033
0.001
-0.082
0.026
-0.008
-0.037
0.050
0.108
0.160
0.107
0.038
-0.065
-0.039
-0.071
0.034
0.021
0.021
0.050
0.058
0.045
0.231
-0.190
-0.311
0.927
0.985
-1.311
-1.227
0.056
0.671
0.607
0.217
0.018
-0.102
-0.158
-0.089
-0.155
-0.032
0.065
0.023
0.171
0.090
0.057
0.016
0.042
0.000
0.059
0.097
0.039
0.079
-0.078
-0.005
-0.070
0.059
0.084
0.177
-0.053
-0.005
0.007
-0.002
0.068
-0.007
-0.027
0.055
-0.019
0.062
0.008
-0.032
0.011
-0.026
-0.025
0.016
0.013
0.070
0.108
-0.021
-0.196
0.028
0.224
0.255
0.018
-0.105
-0.029
0.002
-0.012
0.094
-0.033
0.075
0.112
0.111
0.061
0.058
-0.081
-0.198
-0.004
0.167
0.226
0.090
0.011
-0.034
-0.060
0.062
0.003
0.037
0.015
0.043
0.025
0.122
0.169
-0.417
-0.099
0.367
0.738
1.343
-1.256
-1.772
-0.004
0.679
1.239
0.556
-0.698
-0.681
-0.062
0.080
0.136
0.153
0.045
0.050
0.014
0.076
-0.126
-0.087
-0.024
0.126
0.084
0.169
0.115
0.122
0.078
0.060
-0.010
-0.028
0.006
0.061
0.012
0.031
0.053
-0.021
0.058
-0.012
0.021
0.009
0.054
-0.002
0.029
0.019
-0.046
-0.003
0.035
-0.082
0.100
0.061
0.111
0.142
0.019
0.042
0.014
0.048
0.044
-0.011
0.021
0.079
0.050
0.013
-0.003
0.070
-0.003
0.139
-0.110
0.530
0.189
-1.315
-0.382
0.436
0.619
0.479
0.043
-0.093
-0.181
-0.170
-0.057
0.052
0.098
0.124
0.120
0.071
0.141
0.054
0.053
0.054
0.108
-0.007
0.018
-0.033
-0.034
0.073
0.032
-0.001
-0.016
0.045
0.089
-0.007
0.044
0.070
0.045
-0.025
-0.020
0.032
0.148
0.161
0.071
0.002
0.016
0.021
-0.053
0.054
-0.067
0.040
0.232
0.037
0.007
-0.034
0.026
0.163
-0.001
0.011
-0.019
-0.031
0.105
0.157
0.135
0.114
-0.056
-0.096
-0.024
-0.069
0.046
0.069
0.105
0.103
-0.048
-0.138
-0.031
0.074
0.081
0.094
0.031
0.019
0.087
0.149
-0.280
-0.204
0.299
0.289
0.219
0.024
-0.197
-0.026
-0.054
0.021
0.901
0.810
-1.379
-1.245
0.185
0.729
0.644
0.204
-0.008
-0.228
-0.245
-0.115
-0.292
-0.043
0.226
0.302
0.194
0.092
0.384
0.337
-0.692
-0.622
0.153
0.285
0.141
0.286
0.125
-0.089
-0.094
-0.099
-0.070
-0.141
-0.048
0.045
0.121
0.127
0.198
0.108
0.090
-0.027
-0.086
0.031
0.056
0.105
0.126
0.054
-0.064
0.050
0.039
-0.090
0.005
0.006
0.012
0.064
0.005
0.052
0.060
0.024
0.028
-0.067
-0.005
0.051
-0.008
-0.007
0.039
0.050
0.088
0.086
-0.050
0.002
-0.029
0.059
-0.023
0.029
-0.076
-0.055
0.104
0.246
0.353
0.064
0.704
-0.654
-1.556
0.090
0.606
0.504
0.301
-0.005
-0.154
-0.053
0.021
0.006
-0.056
0.035
-0.037
0.070
-0.002
0.061
0.169
0.062
0.073
-0.020
-0.010
0.055
-0.032
-0.050
-0.068
0.011
-0.040
-0.009
-0.013
-0.041
0.075
0.179
0.158
0.027
-0.052
0.058
0.078
-0.040
0.080
0.100
0.093
0.012
-0.005
-0.019
-0.024
-0.053
0.051
0.087
0.058
0.047
0.017
-0.033
-0.002
0.088
0.020
0.013
-0.036
0.057
0.073
-0.045
0.032
0.019
0.078
0.101
0.048
-0.026
0.035
0.021
-0.004
0.037
0.031
0.048
0.114
0.014
-0.003
0.148
0.021
-0.009
0.054
0.107
0.112
-0.013
0.068
0.033
-0.005
0.018
0.275
1.240
-0.581
-1.942
-0.215
1.236
0.634
-0.450
-0.325
0.078
0.035
0.110
-0.001
0.144
0.034
-0.457
-0.029
0.417
0.392
0.209
-0.044
-0.012
0.022
0.040
-0.012
-0.105
0.052
0.069
-0.079
0.042
-0.016
-0.239
-0.105
0.041
0.115
0.321
0.100
-0.108
-0.115
0.031
0.009
0.103
0.183
0.033
0.122
0.036
0.055
0.026
-0.008
-0.050
0.002
0.028
0.004
-0.100
-0.130
0.078
0.248
0.089
0.024
-0.038
-0.063
-0.015
0.020
0.059
0.085
-0.024
0.107
0.090
-0.050
0.093
0.083
0.025
0.053
-0.031
0.039
-0.009
-0.022
0.039
0.111
0.003
0.038
0.076
0.057
0.011
0.068
-0.020
0.020
0.036
0.058
-0.084
0.010
0.692
0.943
-1.218
-1.502
0.038
0.734
0.777
0.386
-0.083
-0.229
-0.146
-0.425
0.054
0.487
0.352
0.187
-0.194
-0.151
0.092
-0.010
0.167
0.148
0.124
0.065
-0.056
0.016
-0.134
-0.075
-0.054
0.025
-0.009
0.066
0.115
-0.005
-0.032
0.094
0.025
0.065
0.008
-0.087
0.030
0.039
0.117
0.043
0.023
-0.087
0.019
-0.082
0.104
0.119
0.200
0.219
0.009
-0.128
-0.090
-0.074
0.002
0.221
0.119
0.106
0.079
-0.084
-0.034
-0.044
-0.031
-0.035
-0.029
0.025
0.457
0.394
-0.635
-0.598
0.094
0.507
1.481
-0.448
-1.703
-0.301
0.407
0.623
0.381
0.034
-0.012
-0.123
-0.087
-0.124
-0.019
0.081
0.104
0.096
0.148
0.129
-0.022
0.074
0.027
0.031
0.063
-0.012
-0.043
-0.001
0.075
0.045
0.051
0.079
0.239
-0.331
-0.206
0.247
0.238
0.230
-0.099
-0.298
-0.140
0.066
0.128
0.054
0.059
0.011
0.067
0.007
0.012
0.149
0.033
0.034
0.045
0.007
-0.002
0.046
-0.003
0.078
0.012
-0.001
-0.014
-0.018
0.117
0.140
0.024
0.009
0.002
-0.018
-0.027
0.152
0.055
-0.063
0.007
0.041
0.069
0.101
0.104
0.016
-0.033
0.017
0.131
0.092
0.049
-0.005
0.085
1.169
-0.214
-1.843
-0.523
0.534
0.808
0.531
0.064
-0.035
-0.151
-0.437
-0.432
0.023
0.248
0.307
0.138
0.055
0.115
0.265
0.622
0.209
-0.828
-0.584
0.148
0.183
0.232
0.234
0.126
-0.099
-0.100
-0.065
-0.064
-0.105
-0.071
0.008
0.100
0.083
0.175
0.194
-0.401
-0.079
0.254
0.334
0.207
-0.038
-0.152
-0.129
-0.082
0.089
0.237
0.044
0.005
-0.106
-0.062
0.057
0.074
0.000
0.079
0.063
0.087
-0.103
-0.010
-0.008
-0.050
0.047
0.139
0.071
0.058
0.012
0.010
-0.024
-0.034
-0.006
0.079
0.108
-0.008
0.212
1.241
-0.479
-1.750
-0.551
0.485
0.893
0.501
0.129
-0.144
-0.159
-0.106
-0.131
-0.054
0.050
0.087
0.112
0.185
0.206
0.120
0.085
-0.074
0.113
-0.045
-0.038
-0.086
0.004
0.001
0.042
-0.007
0.057
0.139
-0.016
-0.027
0.015
0.030
0.069
0.073
0.029
0.010
-0.012
0.087
0.022
0.078
0.047
-0.101
-0.103
0.039
0.068
0.075
0.078
0.037
0.010
0.139
-0.379
-0.415
0.313
0.430
0.384
0.015
-0.065
-0.084
-0.059
-0.053
0.093
0.055
0.156
0.030
-0.046
0.015
0.039
-0.001
-0.057
-0.005
0.004
-0.018
0.210
1.310
0.724
-1.932
-1.795
0.170
1.048
0.631
0.272
0.128
0.052
-0.048
-0.331
-0.282
-0.129
-0.054
0.190
0.326
0.189
0.209
0.021
0.001
0.129
0.129
-0.025
-0.061
-0.095
0.026
0.037
-0.085
0.098
0.082
0.061
0.015
-0.005
-0.039
-0.007
0.019
0.059
0.107
-0.000
0.053
0.009
0.045
0.047
0.007
0.031
0.036
0.055
0.074
0.030
-0.007
0.013
0.127
0.008
0.094
0.093
-0.031
0.045
0.035
-0.039
0.052
-0.027
0.031
0.064
0.044
-0.031
-0.055
0.012
0.143
0.094
-0.013
-0.096
0.104
0.221
0.767
-0.418
-1.388
-0.163
0.745
0.763
0.316
-0.133
-0.192
-0.145
-0.257
0.008
0.078
0.062
0.104
0.050
0.038
0.050
0.013
0.077
0.053
0.009
-0.001
-0.007
0.050
-0.009
-0.066
0.039
0.152
0.244
-0.078
-0.171
-0.014
0.157
0.263
0.032
0.015
-0.024
0.024
0.330
0.419
-0.501
-0.685
0.048
0.249
0.207
0.219
0.071
-0.090
-0.147
-0.138
-0.045
-0.080
0.009
0.129
0.142
0.067
0.070
0.097
0.123
-0.013
0.034
0.035
0.030
-0.063
0.006
-0.011
0.069
0.053
-0.007
0.015
0.058
-0.003
0.038
0.100
0.074
0.029
0.038
0.068
0.130
0.064
0.060
0.008
-0.073
-0.050
0.146
-0.027
-0.052
0.061
0.375
1.421
-0.844
-2.095
-0.241
0.764
1.011
0.426
-0.073
-0.264
-0.269
-0.183
0.000
0.048
0.137
0.163
0.041
0.063
0.102
0.004
0.039
0.044
-0.030
0.036
0.018
0.053
0.071
-0.014
-0.155
-0.078
-0.030
0.063
0.140
0.096
-0.004
0.061
-0.000
0.028
0.019
-0.015
-0.015
0.004
0.079
0.122
-0.009
0.065
0.138
0.098
0.103
-0.086
-0.013
0.024
0.057
0.046
0.061
0.059
0.036
0.023
-0.060
0.004
0.041
-0.037
0.061
0.116
0.061
-0.040
-0.026
-0.020
-0.015
-0.082
0.073
0.221
0.160
0.102
0.045
0.204
1.462
0.036
-2.391
-1.130
0.670
1.194
0.595
0.215
-0.123
-0.232
-0.258
-0.213
-0.138
-0.026
0.098
0.302
0.169
-0.313
0.172
0.465
0.385
0.125
-0.076
-0.177
-0.129
-0.053
0.040
0.066
-0.036
0.070
0.050
0.091
0.053
-0.010
0.051
0.045
-0.085
-0.102
0.008
0.008
0.022
0.103
-0.015
0.141
0.174
0.138
0.086
-0.015
-0.009
0.009
-0.030
-0.019
0.117
0.071
0.102
0.109
-0.070
-0.060
-0.042
0.004
0.093
0.094
0.018
-0.046
0.079
-0.001
-0.022
-0.010
0.080
0.118
-0.006
0.093
0.118
0.036
0.007
0.108
-0.034
0.040
0.070
0.026
0.079
-0.135
0.001
0.273
0.159
0.114
-0.054
-0.087
-0.113
-0.006
-0.022
0.060
0.497
1.175
-1.057
-1.620
0.011
0.562
0.695
0.361
0.069
-0.208
-0.192
-0.116
-0.044
0.010
0.056
0.133
0.110
0.178
0.074
0.098
-0.033
0.001
0.235
0.140
0.062
0.099
-0.375
-0.462
0.023
0.370
0.442
0.087
-0.048
-0.077
-0.081
0.072
-0.007
0.032
0.006
-0.038
0.123
0.090
-0.001
-0.067
0.027
0.003
-0.028
0.000
-0.027
-0.025
0.011
0.065
0.034
0.018
0.089
0.047
-0.019
-0.019
0.306
0.586
-0.248
-0.669
-0.160
0.267
0.213
0.222
0.155
0.037
-0.095
-0.028
-0.077
-0.014
0.069
0.072
0.010
0.028
0.088
0.021
-0.062
0.054
0.056
0.022
0.068
1.192
-0.046
-1.772
-0.515
0.392
0.711
0.517
0.101
0.059
-0.118
-0.136
-0.053
-0.111
0.020
0.271
0.097
0.105
0.065
0.100
0.044
0.037
-0.030
0.094
0.118
0.028
-0.032
-0.065
-0.041
0.048
-0.001
0.009
0.032
-0.049
0.005
0.078
0.050
0.049
0.060
0.059
0.022
-0.007
0.003
-0.060
0.057
-0.026
0.122
0.011
-0.378
0.106
0.451
0.363
-0.042
-0.148
-0.087
-0.239
-0.044
0.096
0.189
0.187
0.074
-0.015
-0.002
-0.024
0.023
0.031
0.092
0.056
0.049
0.038
-0.024
-0.060
-0.124
0.088
0.190
0.186
0.085
-0.019
-0.124
0.015
0.013
-0.103
0.042
0.075
0.161
0.093
0.010
-0.021
-0.083
-0.049
-0.026
0.018
0.084
0.013
0.024
0.005
0.066
0.233
1.225
-0.617
-1.788
-0.231
0.538
0.870
0.426
-0.051
-0.149
-0.176
0.017
-0.134
-0.017
0.177
0.119
0.120
0.079
0.013
0.108
0.013
0.056
0.056
-0.024
0.024
0.061
-0.064
-0.005
-0.042
-0.166
-0.064
0.225
0.213
0.000
-0.008
-0.070
0.023
0.032
-0.047
0.092
0.115
0.185
0.238
-0.389
-0.243
0.231
0.331
0.163
-0.104
-0.181
-0.073
0.041
0.078
0.187
-0.030
-0.035
0.071
0.011
0.034
-0.004
-0.008
-0.027
-0.013
-0.010
-0.005
0.046
0.046
0.048
-0.005
0.047
0.100
0.101
-0.002
0.056
0.101
0.023
-0.018
0.049
0.018
-0.028
-0.078
0.042
0.004
0.093
0.162
-0.014
-0.023
-0.001
0.010
0.007
-0.017
-0.045
0.040
0.041
0.043
0.051
-0.040
-0.016
0.004
0.083
0.394
1.168
-0.577
-1.263
-0.674
-0.007
0.836
0.571
0.120
-0.020
-0.036
-0.020
-0.115
-0.033
-0.092
0.019
-0.011
0.045
0.243
0.226
0.229
0.075
-0.084
-0.003
0.051
-0.005
-0.106
-0.087
0.030
0.017
-0.033
-0.057
0.010
0.055
0.187
-0.180
-0.386
0.172
0.382
0.181
-0.033
-0.223
-0.022
0.139
0.190
0.094
0.039
-0.046
-0.031
0.028
-0.028
0.148
0.125
0.005
-0.020
-0.026
-0.014
0.008
-0.021
0.022
0.013
-0.029
-0.007
-0.010
0.031
0.095
0.108
0.064
0.069
0.109
-0.009
0.069
0.064
0.023
0.030
-0.040
0.169
0.079
-0.052
-0.056
-0.022
0.338
1.150
-0.651
-1.731
-0.219
0.543
0.750
0.395
-0.003
-0.086
-0.198
-0.091
-0.091
-0.023
0.091
0.194
0.047
0.029
0.166
0.121
0.173
0.096
-0.016
-0.059
-0.044
-0.024
0.055
0.039
0.020
-0.080
-0.017
0.053
0.053
-0.024
0.046
0.038
-0.014
-0.032
0.092
0.057
-0.007
0.068
0.057
0.044
0.048
0.022
-0.045
0.068
0.064
0.103
0.109
0.068
0.025
0.027
0.128
-0.284
-0.310
0.109
0.361
0.006
-0.190
0.067
0.214
0.153
-0.053
-0.152
-0.143
-0.013
0.171
0.111
0.036
0.127
0.110
-0.013
0.115
-0.020
0.000
0.034
0.070
1.196
-0.209
-1.348
-0.826
-0.192
0.863
0.715
0.215
0.018
-0.071
-0.207
-0.266
-0.122
-0.009
0.024
0.118
0.116
0.114
0.104
0.099
0.130
0.060
0.126
0.025
0.036
0.018
-0.113
0.000
-0.054
0.080
0.079
-0.003
0.007
0.079
0.002
-0.018
0.034
0.003
-0.004
0.073
0.057
0.004
-0.020
-0.058
-0.020
0.101
0.012
0.023
0.030
-0.055
0.039
-0.063
-0.010
0.031
0.097
0.145
0.049
0.023
0.074
-0.013
0.015
0.021
-0.047
-0.079
0.081
0.287
0.091
-0.065
-0.002
0.075
-0.065
-0.003
0.050
0.012
-0.036
0.136
-0.033
0.069
0.046
-0.005
-0.033
0.041
0.030
-0.426
0.075
0.301
0.295
0.096
-0.115
-0.030
0.060
0.130
1.241
-0.233
-1.765
-0.462
0.566
0.884
0.446
-0.011
-0.188
-0.245
-0.182
-0.134
-0.199
0.025
0.253
0.294
0.199
0.040
-0.018
0.000
-0.025
0.029
0.069
0.035
-0.117
0.108
0.145
0.237
-0.012
-0.097
-0.136
-0.037
0.047
0.074
0.057
0.138
0.114
-0.033
0.035
0.039
0.012
-0.018
0.063
-0.005
0.032
0.096
-0.055
0.015
-0.016
0.076
0.031
0.036
0.098
-0.013
0.010
0.094
-0.000
-0.018
0.019
0.083
0.023
0.031
0.065
0.025
0.166
0.038
-0.011
0.025
0.014
0.029
0.035
-0.081
-0.165
-0.005
0.141
0.230
0.062
-0.103
0.027
-0.041
0.043
0.063
0.156
-0.277
-0.182
0.179
0.489
0.270
-0.019
-0.180
-0.071
-0.113
0.019
0.006
0.059
0.100
0.253
1.203
-0.301
-1.684
-0.442
0.384
0.723
0.537
0.002
-0.157
-0.208
-0.150
0.020
-0.056
0.095
0.511
0.463
-0.495
-0.592
0.052
0.359
0.250
0.203
0.205
-0.022
-0.099
-0.129
-0.129
-0.064
-0.010
0.043
0.070
0.144
0.163
0.049
0.030
0.013
0.111
-0.018
-0.056
-0.014
0.032
0.027
0.078
0.085
-0.379
-0.103
0.290
0.406
0.104
-0.057
-0.112
-0.166
0.046
0.159
0.248
0.162
0.051
0.010
0.017
-0.065
-0.152
0.027
0.066
0.072
0.051
0.032
-0.011
-0.005
-0.042
-0.034
0.033
0.070
-0.022
0.122
0.062
0.104
0.007
0.028
0.027
0.104
0.018
-0.008
0.150
1.123
-0.046
-1.722
-0.693
0.413
0.843
0.720
0.149
-0.248
-0.240
-0.176
-0.081
-0.100
0.073
0.094
0.077
0.189
0.148
0.183
-0.016
0.004
0.095
-0.043
0.025
0.049
-0.018
-0.013
-0.039
0.016
0.031
0.002
-0.011
0.082
0.038
0.109
0.026
-0.025
0.057
0.064
-0.014
-0.083
0.045
0.107
0.134
0.057
0.021
-0.014
-0.076
-0.043
0.013
0.039
0.072
0.060
0.017
0.050
0.082
-0.352
0.023
0.374
0.311
0.128
-0.204
-0.202
-0.050
0.026
0.164
0.206
0.107
0.021
0.020
-0.074
-0.002
0.119
0.010
0.063
-0.025
-0.073
0.020
0.075
0.007
-0.049
-0.183
0.029
0.220
0.188
0.052
0.033
-0.058
-0.004
0.059
-0.016
0.032
0.043
0.059
0.042
0.083
0.126
0.005
0.000
0.042
-0.043
0.047
-0.005
-0.014
0.099
0.048
0.011
0.002
0.110
0.046
0.086
1.243
-0.047
-1.786
-0.479
0.435
0.670
0.480
0.060
-0.079
-0.120
-0.117
-0.098
-0.059
0.011
-0.002
0.070
0.146
0.156
0.148
0.140
0.003
0.067
0.033
-0.162
-0.043
0.181
0.018
0.061
0.029
0.034
-0.019
0.030
-0.060
-0.022
0.002
0.027
0.071
0.049
-0.088
0.000
0.074
0.093
0.093
-0.000
0.092
0.050
0.295
-0.047
-0.454
0.004
0.338
0.316
0.065
-0.153
-0.066
-0.019
-0.009
0.063
0.091
0.016
-0.024
0.039
0.013
-0.068
0.048
0.089
0.011
0.028
0.063
-0.080
0.028
0.081
0.011
0.065
0.036
0.006
0.100
-0.029
0.072
0.054
-0.085
0.054
0.086
0.090
0.024
-0.017
-0.043
0.016
0.033
0.066
0.075
0.047
-0.049
0.241
1.241
-0.496
-1.760
-0.326
0.570
0.877
0.361
-0.158
-0.083
-0.127
-0.149
-0.145
0.326
0.159
-0.580
-0.192
0.405
0.241
0.142
0.170
0.205
0.021
-0.144
-0.077
-0.124
0.062
0.017
-0.041
0.003
0.088
0.178
0.048
0.012
-0.050
0.060
0.060
-0.005
-0.003
-0.026
-0.011
0.072
0.178
0.001
-0.103
-0.043
0.137
0.242
0.136
-0.626
-0.302
0.380
0.514
0.227
-0.141
-0.128
-0.085
-0.017
0.108
-0.008
0.056
0.099
0.076
-0.002
0.021
-0.016
-0.026
0.047
-0.009
-0.063
0.012
0.025
0.034
0.028
0.117
-0.026
0.052
0.070
-0.025
0.057
0.060
0.009
-0.015
-0.020
0.142
0.034
0.132
-0.019
0.088
-0.022
0.001
0.008
-0.028
0.004
0.067
0.119
0.028
0.018
-0.057
-0.005
0.050
0.108
0.017
0.199
1.178
-0.481
-1.894
-0.425
0.599
0.736
0.486
0.051
-0.036
-0.247
-0.181
-0.072
-0.104
0.048
0.115
0.175
0.175
0.181
0.073
0.064
-0.008
-0.057
-0.018
0.034
-0.048
0.008
0.108
0.055
-0.011
-0.037
-0.028
0.063
0.059
-0.364
-0.157
0.314
0.334
0.191
-0.148
-0.138
-0.112
-0.029
0.034
0.040
0.089
0.185
0.052
-0.080
-0.076
0.136
0.172
0.194
-0.002
-0.121
-0.119
0.038
0.090
0.059
-0.010
0.054
-0.023
0.132
-0.037
0.001
0.012
-0.027
-0.031
-0.003
-0.049
0.023
0.091
0.033
0.108
-0.081
0.039
0.094
0.086
0.100
0.052
0.068
-0.034
0.000
0.107
0.029
0.082
0.061
0.085
-0.002
-0.043
-0.026
0.039
0.053
0.006
-0.068
0.022
0.533
1.103
-0.972
-1.623
0.017
0.633
0.769
0.371
0.015
-0.176
-0.208
-0.092
-0.071
-0.030
0.141
0.118
0.242
0.095
-0.383
0.084
0.480
0.355
0.115
-0.071
-0.234
-0.183
-0.064
0.154
0.195
0.110
-0.030
-0.023
-0.065
-0.024
-0.026
-0.010
0.023
0.009
0.063
-0.002
0.065
0.082
0.115
-0.002
-0.063
0.045
0.157
0.165
0.008
-0.066
-0.051
0.008
0.071
0.108
0.078
0.024
0.068
-0.058
-0.052
0.059
0.012
0.052
0.125
-0.034
-0.068
0.123
0.336
0.590
-0.540
-0.744
0.138
0.260
0.147
0.333
0.168
-0.052
-0.097
-0.128
-0.179
-0.040
0.092
0.316
0.227
0.105
-0.155
-0.028
-0.029
0.017
-0.005
0.137
0.145
-0.005
-0.074
0.065
0.774
-0.206
-1.462
-0.350
0.548
0.675
0.391
-0.045
-0.157
-0.114
0.049
-0.013
0.042
0.074
0.116
0.112
0.063
0.071
0.054
0.003
0.063
0.130
0.049
0.030
-0.014
-0.048
-0.013
-0.120
-0.004
0.137
0.133
0.160
-0.011
-0.116
-0.055
-0.044
-0.011
0.164
0.082
-0.007
-0.028
0.031
0.059
0.045
0.033
0.039
0.023
0.050
0.018
0.049
0.048
0.044
0.172
0.056
-0.009
-0.017
0.006
-0.001
0.072
0.051
0.012
0.021
-0.039
0.018
-0.003
-0.004
0.057
-0.009
0.034
0.034
0.066
0.008
-0.065
0.047
-0.000
0.114
-0.006
0.065
0.065
0.071
0.052
0.055
0.194
0.208
-0.461
-0.223
0.279
0.358
0.266
0.017
-0.123
-0.107
-0.225
-0.088
0.133
0.213
0.188
0.108
-0.081
-0.099
0.609
0.712
-1.517
-1.216
0.272
0.808
0.725
0.200
-0.139
-0.230
-0.152
-0.063
0.004
0.025
0.101
0.067
0.051
0.058
0.065
0.137
0.055
0.104
0.037
0.037
0.003
-0.030
-0.063
0.002
-0.004
0.097
0.001
0.060
0.113
0.114
-0.106
-0.101
0.063
0.090
0.105
0.082
0.034
0.097
0.048
-0.041
0.054
-0.038
-0.061
0.100
0.015
0.037
0.030
0.030
0.048
0.015
-0.048
0.046
-0.028
-0.033
0.064
0.076
-0.078
0.066
-0.053
0.004
0.061
0.097
0.040
-0.086
0.049
0.065
0.138
0.032
-0.027
0.017
-0.005
0.074
0.083
0.063
0.083
0.147
0.064
-0.005
0.018
0.098
0.008
0.022
0.913
0.411
-2.032
-1.009
0.596
1.125
0.587
0.042
-0.212
-0.355
-0.180
-0.051
0.050
0.123
0.192
0.101
0.236
0.732
-0.243
-0.767
-0.136
0.283
0.223
0.202
0.103
0.024
-0.016
-0.058
-0.145
-0.045
-0.020
-0.143
-0.014
0.219
0.245
0.209
0.017
-0.062
0.022
-0.051
-0.054
0.061
0.098
0.087
0.061
0.051
0.054
-0.006
0.039
0.009
-0.031
0.087
-0.017
0.044
0.033
-0.013
0.106
0.059
0.082
0.120
-0.046
-0.006
0.034
0.028
-0.070
0.117
0.064
0.030
0.013
0.091
0.080
-0.034
-0.071
0.049
0.044
0.084
0.162
0.040
0.038
0.205
-0.030
-0.034
-0.053
-0.123
0.083
0.164
0.138
0.000
0.035
-0.074
0.262
0.013
-0.437
-0.050
0.338
1.079
0.869
-1.646
-1.704
0.182
0.971
0.957
0.307
-0.200
-0.359
-0.238
-0.111
0.005
0.089
0.127
0.088
0.122
0.121
0.079
0.023
0.029
0.068
0.017
0.089
-0.053
0.003
0.013
-0.039
0.046
0.064
0.100
0.013
-0.041
0.024
-0.038
0.024
0.019
0.012
0.091
0.088
0.020
-0.102
-0.012
0.093
0.074
0.023
0.010
0.055
-0.024
0.027
0.035
-0.039
0.040
0.050
0.093
0.012
-0.018
-0.043
0.002
0.004
0.048
0.040
0.029
0.006
0.024
0.011
-0.027
-0.024
0.061
0.050
0.063
0.090
-0.049
-0.081
-0.107
0.088
0.231
0.145
0.048
0.079
-0.083
-0.030
0.012
0.021
0.061
-0.017
0.012
0.029
0.028
0.014
0.038
0.040
0.146
1.115
-0.622
-1.689
-0.363
0.240
0.832
0.816
0.334
-0.069
-0.311
-0.320
-0.204
-0.059
0.132
0.216
0.172
0.172
0.104
0.032
0.038
0.011
-0.000
0.055
0.028
-0.074
0.022
0.003
0.011
0.015
-0.036
0.097
0.086
0.033
0.008
0.126
-0.018
-0.008
0.070
-0.010
0.002
0.034
0.047
0.099
0.019
0.139
-0.066
-0.050
0.062
0.032
-0.058
0.081
0.142
0.112
0.061
0.020
-0.000
-0.009
0.001
-0.018
-0.090
0.023
0.093
0.038
0.071
0.048
0.024
-0.057
0.061
0.055
0.035
0.087
0.009
0.045
0.076
0.901
0.657
-1.533
-1.174
0.321
0.704
0.689
0.142
-0.072
0.038
0.459
-0.424
-0.886
-0.193
0.197
0.288
0.334
0.232
0.172
-0.031
-0.084
-0.070
0.039
0.021
-0.066
0.042
0.004
0.062
0.156
0.176
0.150
-0.008
-0.036
-0.005
0.052
0.104
-0.318
-0.320
0.303
0.313
0.244
-0.043
-0.230
-0.083
0.177
-0.003
-0.037
-0.087
0.050
0.156
0.071
0.062
0.006
-0.097
0.090
0.178
0.109
0.029
-0.084
-0.050
-0.053
0.117
0.085
0.136
0.021
-0.061
0.022
0.094
-0.026
0.140
0.041
-0.024
0.012
0.038
0.062
0.002
-0.042
0.008
0.086
-0.030
-0.006
-0.019
0.106
0.098
-0.001
-0.008
0.013
0.029
0.035
0.075
0.114
0.060
0.006
0.135
1.192
-0.043
-1.735
-0.596
0.397
0.710
0.504
0.148
-0.129
-0.164
-0.277
-0.035
-0.079
-0.039
0.104
0.154
0.137
0.207
0.111
0.037
0.011
-0.022
-0.009
0.068
0.016
0.111
0.031
0.006
-0.045
0.035
0.008
0.174
-0.025
0.101
0.063
-0.040
0.014
0.034
0.008
0.067
0.015
-0.076
-0.001
0.004
0.063
0.159
0.049
0.125
-0.068
-0.439
0.045
0.323
0.366
0.055
-0.094
-0.134
-0.007
-0.025
0.081
0.120
0.083
0.084
0.027
0.080
0.029
-0.081
0.007
0.025
0.067
0.045
0.126
-0.010
0.004
0.047
0.031
0.042
0.047
0.041
-0.010
0.059
0.064
-0.067
-0.025
0.175
0.137
0.024
0.033
-0.026
-0.041
0.051
-0.016
0.024
0.081
0.071
0.031
0.051
0.755
0.513
-1.530
-1.031
0.436
0.966
0.626
0.007
-0.239
-0.234
-0.124
-0.111
-0.038
0.077
0.083
0.155
0.225
0.066
0.078
0.130
-0.088
0.033
-0.066
0.003
0.049
0.038
0.118
0.069
-0.052
-0.084
0.031
0.003
0.065
0.057
-0.019
0.069
0.088
0.058
0.005
-0.002
-0.030
0.031
-0.017
0.027
0.120
0.014
0.037
0.035
0.024
0.233
-0.063
-0.390
0.013
0.360
0.345
0.126
-0.038
-0.085
-0.057
-0.129
0.029
0.058
0.096
0.057
0.120
0.019
-0.020
-0.015
-0.058
-0.029
0.061
-0.025
0.060
0.047
-0.011
0.088
0.062
0.077
0.066
0.077
-0.002
0.073
0.116
0.064
-0.007
-0.105
-0.002
0.044
0.044
0.011
0.055
0.047
0.082
0.059
0.985
0.019
-1.820
-0.768
0.529
0.988
0.601
-0.006
-0.162
-0.110
-0.250
-0.109
0.012
0.058
0.094
0.049
0.020
0.100
0.233
0.177
0.014
0.027
0.015
-0.028
-0.019
-0.033
-0.005
-0.038
0.025
0.139
-0.038
-0.079
-0.001
0.097
-0.021
-0.243
-0.018
0.213
0.221
0.157
-0.006
0.004
0.010
-0.061
-0.032
0.062
0.104
0.043
0.097
0.041
0.105
0.015
0.017
-0.060
-0.353
-0.047
0.313
0.336
0.079
-0.099
-0.163
-0.057
0.024
-0.064
0.032
0.096
0.156
0.030
0.016
0.054
-0.032
0.029
0.011
0.033
-0.025
0.008
0.081
0.092
0.082
0.072
0.013
-0.018
0.022
0.122
-0.026
0.101
-0.012
-0.011
0.060
0.026
0.056
0.026
-0.009
0.006
0.026
-0.021
0.028
-0.030
0.022
0.144
0.121
-0.054
0.208
1.189
-0.420
-1.724
-0.262
0.595
0.857
0.410
-0.023
-0.068
-0.209
-0.140
-0.038
-0.081
0.079
0.013
0.089
0.139
0.104
0.124
0.052
0.110
0.019
-0.042
-0.002
0.033
0.022
0.025
-0.047
0.023
0.046
-0.017
-0.018
0.025
0.084
0.076
0.090
-0.044
0.107
-0.085
0.021
0.092
0.068
0.010
0.052
0.031
0.035
0.045
0.085
-0.316
-0.110
0.360
0.387
0.062
-0.143
-0.195
-0.055
0.082
0.054
0.108
-0.082
0.053
0.168
0.053
0.187
0.062
-0.011
0.002
-0.098
0.029
-0.011
0.073
0.096
-0.002
0.048
0.082
0.188
0.018
-0.063
-0.130
0.001
0.049
-0.043
0.085
0.105
0.050
0.033
0.045
0.013
0.015
0.051
0.862
0.609
-1.588
-1.076
0.230
0.741
0.669
0.158
-0.053
-0.169
-0.137
-0.180
-0.054
0.078
0.093
0.123
0.150
0.087
0.127
0.048
0.153
0.056
0.002
-0.066
-0.003
-0.034
-0.012
-0.048
0.032
-0.053
0.080
0.095
0.003
0.031
-0.021
-0.017
0.055
0.044
0.039
0.021
0.626
0.129
-0.683
-0.357
0.232
0.240
0.075
0.114
0.180
-0.035
0.123
0.134
-0.461
-0.198
0.212
0.322
0.145
0.003
-0.055
0.105
0.053
0.103
0.024
-0.011
-0.006
-0.010
0.019
0.061
-0.031
0.040
-0.001
-0.007
-0.030
0.037
-0.029
0.043
-0.035
0.013
0.074
0.013
-0.047
-0.056
0.157
0.286
0.224
0.142
-0.026
-0.094
-0.195
-0.099
-0.021
1.013
0.822
-1.267
-1.037
0.088
0.641
0.574
0.148
-0.156
-0.189
-0.150
-0.130
-0.078
0.015
0.064
0.144
0.179
0.099
0.049
0.148
0.098
0.064
0.008
-0.097
-0.031
-0.005
0.028
0.193
0.077
0.003
0.035
0.001
0.001
-0.044
0.002
0.091
-0.018
0.010
0.105
0.020
-0.008
0.100
0.034
-0.106
-0.042
-0.002
-0.028
0.031
0.030
0.221
-0.175
-0.388
0.225
0.396
0.303
0.038
-0.036
-0.138
-0.052
-0.056
0.036
0.004
0.158
0.117
0.141
0.025
-0.037
-0.050
0.002
0.000
0.019
-0.056
-0.080
0.008
0.037
0.030
0.036
0.142
0.043
0.052
0.049
0.063
0.088
0.040
-0.040
-0.009
0.029
0.070
0.060
-0.007
0.068
0.088
0.021
0.046
0.120
0.148
1.167
-0.350
-1.825
-0.402
0.544
0.798
0.472
-0.003
-0.173
-0.162
-0.190
-0.203
-0.004
0.189
0.234
0.256
0.044
0.091
-0.013
-0.031
0.099
0.100
0.132
0.096
-0.049
0.001
0.050
-0.047
-0.028
0.008
-0.006
0.035
-0.021
0.036
0.031
0.165
0.092
0.012
-0.074
-0.043
0.019
0.087
0.029
-0.032
0.001
0.050
0.027
-0.047
0.028
0.008
0.076
0.172
0.035
0.004
0.024
0.097
-0.158
-0.292
0.191
0.350
0.276
-0.008
-0.071
-0.074
-0.109
0.026
0.104
0.129
0.130
0.129
0.043
0.010
0.057
-0.051
-0.024
0.094
0.054
-0.022
-0.079
0.047
0.037
-0.009
-0.073
-0.041
0.032
0.122
-0.007
-0.054
0.072
0.128
0.098
0.247
1.004
-0.963
-1.573
0.061
0.742
0.756
0.329
-0.046
-0.124
-0.132
-0.195
-0.035
-0.051
0.056
0.149
0.106
0.188
0.099
0.040
0.022
0.041
0.045
-0.033
0.074
-0.101
-0.025
0.046
0.065
0.069
0.012
-0.046
0.090
0.024
-0.032
0.161
0.032
0.062
-0.055
-0.062
-0.141
0.074
0.565
0.669
-0.482
-0.666
-0.066
0.161
0.027
0.383
0.265
-0.282
-0.015
0.176
0.195
0.025
-0.153
-0.101
0.002
-0.138
0.097
0.291
0.308
0.019
-0.150
-0.048
-0.084
-0.006
0.036
0.017
0.051
0.015
0.003
0.027
0.065
0.030
0.002
-0.015
0.023
0.017
0.056
0.102
1.135
0.311
-1.656
-0.797
0.349
0.736
0.620
0.224
-0.065
-0.171
-0.235
-0.087
-0.053
-0.059
0.118
0.133
0.051
0.092
0.119
0.032
0.144
0.015
-0.027
-0.041
0.008
-0.022
0.097
0.052
0.075
0.062
0.089
-0.019
0.076
-0.031
0.051
0.029
-0.004
0.054
0.108
-0.005
0.069
-0.017
0.055
0.066
-0.070
-0.144
-0.005
0.009
0.111
0.075
0.105
0.034
-0.006
0.050
-0.020
-0.105
-0.022
0.234
0.213
0.165
-0.168
-0.453
0.074
0.402
0.320
0.048
-0.123
-0.168
-0.038
0.068
0.113
0.080
0.032
0.064
-0.033
0.032
-0.006
0.047
0.033
0.046
-0.098
0.033
0.174
0.228
0.111
-0.083
-0.088
-0.108
0.018
-0.007
0.007
-0.027
0.092
0.059
0.008
0.023
-0.058
-0.029
1.044
0.191
-1.687
-0.820
0.315
0.765
0.699
0.135
-0.047
-0.072
-0.155
-0.160
-0.021
0.058
0.099
0.156
0.113
0.126
0.060
0.026
0.098
0.006
0.075
-0.049
-0.016
-0.047
-0.038
0.056
0.021
0.023
0.026
0.052
-0.035
-0.024
0.128
0.073
-0.054
0.076
0.050
-0.030
-0.046
-0.023
0.006
0.024
0.036
0.031
0.038
0.013
0.166
0.014
-0.335
-0.071
0.400
0.420
0.085
-0.012
-0.164
-0.041
-0.007
0.026
0.050
0.085
-0.072
-0.010
0.149
0.136
0.143
0.053
0.212
0.424
-0.601
-0.857
0.083
0.349
0.234
0.192
0.117
-0.073
-0.047
-0.052
-0.084
-0.024
-0.010
-0.040
0.143
0.089
0.400
1.296
-0.632
-1.740
-0.167
0.670
0.788
0.344
-0.020
-0.100
-0.109
-0.259
-0.180
-0.186
-0.091
0.154
0.360
0.365
0.202
-0.021
-0.056
-0.100
-0.071
0.042
0.078
0.057
0.132
0.053
-0.047
-0.015
-0.082
0.016
0.015
-0.043
0.054
0.018
-0.031
0.046
0.106
0.037
0.044
0.044
0.101
-0.059
-0.460
0.108
0.393
0.343
0.078
-0.105
-0.081
0.014
-0.030
0.015
0.113
0.084
0.079
-0.007
0.048
0.022
0.046
0.038
0.008
-0.052
-0.032
0.137
0.081
0.020
0.048
0.028
0.040
0.098
0.026
-0.018
0.044
0.042
0.106
0.018
0.037
-0.055
-0.009
-0.003
0.055
0.025
0.017
0.007
0.070
0.083
0.036
0.060
0.049
0.035
0.684
0.859
-1.326
-1.385
0.139
0.642
0.657
0.193
-0.082
-0.156
-0.152
-0.194
-0.093
0.011
0.107
0.111
0.127
0.119
-0.015
0.085
0.161
0.041
0.029
0.077
0.019
-0.010
-0.016
0.030
-0.001
-0.010
-0.018
-0.021
-0.054
0.137
0.118
0.056
0.093
0.069
-0.082
-0.039
-0.076
0.052
0.115
0.141
0.106
0.101
-0.380
-0.396
0.170
0.327
0.306
-0.008
-0.191
-0.089
0.040
0.070
0.066
0.025
0.083
-0.021
-0.039
-0.040
0.057
0.096
0.066
0.082
-0.014
0.014
0.021
-0.016
-0.014
0.067
-0.054
-0.017
0.116
0.183
0.205
0.038
-0.020
0.053
-0.068
0.056
0.053
0.039
-0.029
0.071
0.153
-0.005
-0.068
0.003
0.121
-0.064
-0.069
-0.076
0.241
0.855
0.687
-1.538
-1.353
0.221
0.755
0.760
0.237
-0.168
-0.148
-0.133
-0.164
-0.083
-0.069
0.074
0.195
0.137
0.135
0.152
0.014
0.100
0.042
0.005
0.064
0.040
-0.016
-0.010
0.003
0.041
-0.054
-0.053
0.027
0.027
-0.000
0.056
0.010
-0.009
-0.118
0.039
0.204
0.136
0.072
-0.025
0.032
-0.346
-0.090
0.703
0.012
-0.412
-0.188
0.128
0.106
0.103
0.047
-0.025
-0.132
0.014
0.030
0.041
0.111
0.012
0.009
-0.040
0.074
0.135
0.099
0.086
-0.008
0.019
-0.015
0.078
-0.016
0.054
0.123
0.042
0.072
-0.039
-0.092
-0.037
-0.161
0.056
0.199
0.655
1.222
-0.993
-1.737
-0.028
0.660
0.664
0.377
0.014
-0.142
-0.177
-0.138
-0.062
0.007
0.111
0.106
0.033
-0.054
0.044
0.095
0.104
0.137
0.115
-0.011
0.022
0.109
0.032
0.058
0.095
-0.041
0.034
0.024
0.001
0.136
0.001
0.033
0.087
0.051
0.028
-0.014
-0.115
0.010
0.119
0.106
0.064
-0.087
-0.033
0.220
-0.038
-0.424
0.046
0.328
0.368
0.222
-0.120
-0.108
-0.091
-0.035
0.121
0.039
0.125
0.115
0.120
0.078
-0.074
0.005
-0.026
0.049
-0.049
-0.033
0.163
0.003
0.002
0.048
0.074
0.049
0.012
0.052
0.033
0.044
0.022
-0.003
-0.019
0.098
0.066
0.071
0.010
-0.062
-0.079
-0.066
0.076
0.204
0.121
-0.068
-0.038
-0.050
0.061
0.729
0.860
-1.327
-1.419
0.270
0.730
0.739
0.280
-0.043
-0.217
-0.250
-0.173
-0.058
-0.021
0.017
0.206
0.263
0.148
-0.007
0.029
0.107
0.054
0.031
-0.002
0.033
0.073
-0.042
-0.005
0.078
0.073
0.066
-0.023
-0.093
-0.144
-0.035
0.202
0.226
0.188
-0.073
-0.467
0.009
0.366
0.035
0.015
-0.018
0.071
0.089
-0.016
0.019
0.083
0.063
-0.005
0.083
-0.006
0.065
0.032
0.058
0.069
0.078
-0.009
-0.035
0.065
0.022
0.041
0.009
0.000
0.001
0.056
0.007
0.107
0.010
0.021
0.024
0.081
0.144
0.096
-0.017
0.054
-0.028
0.020
-0.026
0.099
0.037
0.046
0.123
0.064
0.007
0.031
-0.037
-0.004
0.049
0.066
1.022
0.388
-1.656
-1.067
0.401
0.857
0.633
0.200
-0.207
-0.111
-0.216
-0.115
-0.098
0.001
0.148
0.167
0.033
0.106
0.113
0.071
0.047
0.045
-0.193
-0.025
0.302
0.182
0.114
-0.018
-0.107
-0.163
0.055
0.050
0.120
0.049
0.042
0.004
0.018
-0.081
0.041
0.195
0.210
-0.423
-0.082
0.214
0.191
0.069
-0.111
0.025
-0.055
0.019
0.041
0.098
0.105
0.056
0.041
0.026
-0.015
-0.007
0.013
0.131
0.019
0.035
0.084
0.091
0.017
-0.005
-0.002
0.032
-0.016
-0.003
0.092
0.049
0.006
0.026
0.063
0.493
0.058
-0.821
-0.517
0.157
0.251
0.507
1.400
-0.619
-1.813
-0.263
0.545
0.759
0.345
-0.108
-0.064
0.140
-0.064
-0.119
-0.032
0.072
0.193
0.205
0.092
0.030
0.060
0.028
0.140
0.075
-0.019
0.002
-0.072
-0.068
-0.016
-0.019
0.064
0.036
0.047
-0.048
-0.034
0.055
-0.008
0.000
0.061
-0.003
-0.014
-0.032
0.002
-0.025
0.049
0.116
0.128
0.039
0.062
0.105
0.132
-0.005
-0.426
-0.070
0.322
0.355
0.137
-0.079
-0.070
-0.023
-0.044
0.020
0.109
0.144
0.073
0.058
0.009
0.041
-0.025
-0.027
0.007
0.017
0.057
0.027
0.065
0.013
-0.036
0.067
0.051
0.067
-0.006
-0.123
0.128
0.557
1.251
-0.962
-1.658
-0.192
0.532
0.813
0.409
0.066
-0.164
-0.225
-0.125
0.007
-0.032
0.084
0.076
0.054
0.155
0.145
0.066
0.157
0.024
0.104
0.065
0.020
-0.073
-0.026
0.117
0.022
-0.017
0.029
-0.017
0.049
-0.032
-0.011
-0.002
0.010
0.102
0.025
-0.003
-0.005
0.089
0.032
0.002
-0.031
-0.010
-0.019
0.121
0.041
0.108
0.048
0.086
0.003
0.097
0.020
-0.003
-0.010
0.016
0.098
0.060
-0.059
-0.064
0.037
0.559
0.324
-0.728
-0.528
0.274
0.192
-0.251
0.165
0.420
0.334
0.044
-0.202
-0.186
-0.161
-0.048
0.194
0.049
0.164
0.144
0.039
0.091
0.075
0.101
1.154
-0.242
-1.866
-0.502
0.586
0.746
0.453
0.023
-0.044
-0.217
-0.262
-0.032
-0.018
-0.171
0.029
0.313
0.239
0.170
0.031
0.036
-0.055
0.006
0.022
0.119
0.007
0.006
-0.028
-0.027
0.009
0.113
0.011
0.060
0.023
-0.011
0.059
0.022
-0.057
0.021
0.023
0.068
0.034
-0.036
-0.157
0.024
0.209
0.233
0.236
-0.045
-0.009
-0.045
-0.070
-0.024
0.077
0.172
0.097
0.059
-0.004
-0.013
-0.033
-0.016
-0.078
0.030
0.023
-0.004
0.049
0.018
-0.017
0.052
-0.028
0.007
0.137
0.002
-0.102
0.011
-0.107
-0.065
0.191
0.193
-0.256
-0.017
0.329
0.347
0.109
-0.237
-0.099
-0.040
-0.037
0.178
0.830
0.900
-1.229
-1.293
0.060
0.559
0.617
0.195
0.049
-0.133
-0.212
-0.233
-0.055
0.031
0.097
0.116
0.114
0.070
0.063
0.056
0.046
0.020
-0.008
0.001
0.092
-0.033
0.030
0.038
-0.088
0.053
-0.043
0.014
-0.013
-0.002
0.043
0.034
0.066
0.002
0.045
0.071
0.023
-0.002
-0.005
0.033
0.162
0.025
0.030
0.066
0.083
-0.033
0.030
-0.053
0.074
0.018
0.054
0.238
0.578
-0.339
-0.799
-0.059
0.278
0.075
0.242
0.068
0.049
0.009
0.005
-0.096
-0.030
-0.005
-0.008
0.050
0.091
0.094
0.122
0.124
0.085
0.146
-0.051
-0.368
-0.029
0.230
0.227
0.047
0.030
0.215
1.109
-0.025
-1.830
-0.747
0.525
0.855
0.463
0.136
-0.054
-0.181
-0.223
-0.106
-0.142
0.004
0.038
0.005
0.097
0.143
0.056
0.087
0.157
-0.016
0.009
-0.001
0.068
0.021
-0.097
0.056
0.079
0.060
0.074
0.057
0.104
0.031
0.056
-0.065
-0.007
0.110
0.043
0.014
0.019
0.028
-0.049
-0.004
0.009
0.075
0.069
-0.040
-0.063
-0.095
-0.006
-0.034
0.149
0.198
-0.013
0.013
-0.076
-0.033
0.014
0.100
0.104
0.107
0.016
0.100
0.042
-0.024
0.042
0.049
0.057
0.014
0.019
0.031
-0.016
-0.015
0.004
0.085
0.052
-0.016
0.064
0.048
-0.432
-0.143
0.266
0.405
0.219
-0.076
-0.090
-0.064
-0.100
0.022
0.138
0.108
0.139
1.209
-0.118
-1.815
-0.622
0.534
0.847
0.477
0.018
-0.056
-0.185
-0.062
-0.059
-0.057
0.046
0.225
0.090
0.185
0.030
0.017
0.153
0.043
0.026
0.045
-0.058
-0.045
-0.088
-0.136
0.113
0.192
0.066
0.066
-0.071
-0.069
-0.060
-0.032
0.071
0.167
0.155
0.600
-0.099
-0.799
-0.279
0.103
0.113
0.235
0.367
0.252
-0.101
-0.210
-0.141
-0.030
0.055
0.119
0.094
0.147
0.146
0.105
-0.008
0.043
0.036
-0.036
0.011
-0.032
0.021
0.136
0.083
-0.093
-0.013
-0.000
0.037
-0.017
0.030
0.047
0.056
0.044
0.024
0.103
-0.030
0.097
-0.171
-0.420
0.173
0.470
0.293
0.102
-0.086
-0.170
-0.005
-0.067
0.079
1.196
0.254
-1.765
-0.820
0.547
0.846
0.542
0.030
-0.270
-0.231
-0.139
-0.032
-0.100
0.029
0.106
0.059
0.113
-0.008
0.091
0.134
0.087
0.041
0.064
-0.041
0.010
0.008
-0.056
-0.055
0.076
0.154
0.122
0.002
-0.000
0.030
0.084
-0.013
-0.030
0.169
0.125
0.025
-0.044
-0.008
-0.015
0.005
-0.007
0.039
0.113
0.001
-0.015
-0.051
0.467
0.232
-0.695
-0.513
0.060
0.248
0.238
0.195
0.163
0.003
-0.079
-0.101
-0.080
-0.019
0.068
0.089
0.115
0.028
0.039
0.050
0.081
0.023
0.047
0.033
0.006
0.063
0.093
0.044
-0.014
-0.050
-0.148
0.111
0.182
0.346
-0.229
-0.266
1.058
0.681
-1.380
-1.135
0.165
0.718
0.563
0.201
-0.059
-0.137
-0.215
-0.159
-0.088
0.083
0.043
0.046
0.116
0.066
0.175
0.078
0.064
0.081
0.055
0.048
0.085
0.028
0.025
0.009
0.071
0.005
-0.005
-0.043
-0.012
0.058
0.078
0.078
0.097
0.007
0.073
-0.036
-0.013
-0.001
-0.044
0.021
0.010
0.004
0.045
0.067
0.064
0.017
-0.046
0.006
0.014
0.011
0.038
0.143
0.032
0.041
-0.046
-0.011
0.074
0.089
0.007
0.074
0.126
0.057
-0.050
-0.099
0.105
0.000
0.125
0.124
0.062
0.059
-0.004
-0.049
-0.032
-0.000
0.035
0.039
0.031
0.049
0.033
0.069
0.268
1.236
-0.660
-1.796
-0.213
0.627
0.847
0.538
-0.345
-0.304
0.032
0.230
0.024
-0.304
-0.105
0.035
0.230
0.206
0.095
0.161
0.099
0.070
0.075
0.015
-0.085
-0.159
-0.013
0.264
0.181
0.024
-0.095
-0.074
-0.007
0.006
-0.002
0.042
0.001
0.151
0.041
-0.062
-0.068
-0.091
0.162
0.203
0.212
0.043
-0.092
-0.007
-0.081
0.007
0.067
0.101
0.151
0.023
0.111
0.454
0.492
-0.546
-0.756
-0.054
0.277
0.190
0.119
0.224
0.061
-0.074
-0.123
0.012
-0.054
0.010
-0.034
0.084
0.064
0.022
0.170
0.083
0.049
-0.005
0.064
-0.081
-0.026
-0.008
0.033
0.278
0.183
-0.376
-0.340
0.153
0.414
0.250
0.023
-0.111
-0.061
-0.040
0.076
0.153
-0.001
0.013
0.112
0.773
0.754
-1.515
-1.352
0.148
0.736
0.772
0.223
-0.075
-0.088
-0.127
-0.180
-0.052
-0.053
0.117
0.178
0.103
0.085
0.105
0.040
0.121
0.055
-0.042
-0.121
-0.048
0.076
-0.025
-0.035
0.018
0.065
0.036
0.114
0.028
0.035
0.043
-0.037
0.015
0.056
0.040
0.022
0.046
0.118
0.090
0.019
-0.007
-0.044
-0.025
-0.070
0.002
0.083
0.053
0.064
0.059
0.001
-0.052
0.005
-0.026
0.046
0.094
0.048
-0.010
0.050
0.061
-0.018
-0.099
0.019
0.264
0.189
0.151
-0.070
-0.046
-0.063
0.047
0.199
-0.113
-0.397
0.171
0.379
0.265
0.058
-0.164
-0.154
-0.111
-0.055
0.022
0.050
0.738
0.932
-1.358
-1.438
0.236
0.750
0.567
0.168
-0.095
-0.211
-0.196
-0.117
-0.099
0.108
0.158
0.122
0.044
0.114
0.109
0.124
0.190
0.061
0.127
-0.006
-0.104
0.008
0.140
0.020
0.072
-0.016
0.011
-0.064
0.015
0.121
0.030
-0.030
0.029
0.008
-0.009
-0.034
0.040
0.016
0.121
0.097
0.045
-0.017
-0.025
-0.072
-0.035
0.017
0.039
0.056
0.072
-0.026
-0.104
0.029
0.132
0.211
0.078
0.036
-0.017
-0.082
-0.076
0.073
0.072
0.085
0.109
0.085
0.054
0.007
-0.027
-0.028
0.107
0.112
0.141
-0.197
-0.500
0.057
0.328
0.072
0.215
-0.078
-0.173
-0.008
0.123
0.012
0.110
0.019
-0.040
0.049
-0.020
0.239
1.302
-0.299
-1.788
-0.459
0.532
0.773
0.460
-0.021
0.013
-0.020
-0.075
-0.124
-0.156
-0.062
0.083
0.060
0.112
0.087
0.138
0.092
0.042
0.067
-0.049
-0.052
-0.032
0.009
-0.016
0.001
0.029
0.002
0.015
0.095
-0.020
0.007
0.014
0.065
0.058
0.036
0.096
0.135
-0.064
0.058
0.062
-0.019
-0.026
0.050
-0.023
0.072
0.048
0.018
0.094
0.095
-0.040
-0.015
-0.001
0.013
0.086
-0.162
-0.042
0.078
0.186
0.160
-0.094
-0.035
-0.059
-0.057
0.091
0.333
-0.246
-0.280
0.271
0.393
0.247
0.052
-0.075
-0.173
-0.053
-0.027
0.019
0.359
1.263
-0.718
-1.623
-0.188
0.627
0.814
0.358
-0.084
-0.213
-0.270
-0.120
-0.077
-0.096
0.026
0.084
0.156
0.133
0.105
0.031
0.017
-0.020
-0.031
-0.007
0.066
0.005
0.016
0.082
-0.030
0.107
0.020
0.050
0.081
0.015
0.030
0.037
0.033
-0.008
0.087
0.018
0.060
0.050
0.053
-0.020
-0.089
-0.149
0.024
-0.042
-0.073
0.040
0.214
0.124
0.006
-0.165
-0.108
0.025
0.089
0.116
0.084
0.140
0.107
0.096
0.033
-0.022
0.017
-0.006
0.065
0.076
0.049
0.008
0.039
0.003
-0.023
-0.017
-0.040
-0.104
0.065
0.227
0.185
0.003
-0.092
-0.061
0.015
0.043
0.121
-0.361
-0.097
0.355
0.374
0.171
-0.135
-0.153
-0.115
0.013
0.041
0.062
1.243
-0.022
-1.636
-0.573
0.462
0.679
0.521
0.055
-0.151
-0.125
-0.017
-0.055
-0.027
-0.077
0.412
0.631
-0.453
-0.613
0.068
0.380
0.125
0.241
0.057
-0.053
-0.045
-0.117
-0.118
-0.092
-0.061
-0.003
0.130
0.075
0.138
0.124
0.057
0.140
0.076
-0.003
0.024
-0.029
-0.050
0.016
0.167
0.055
-0.043
-0.002
-0.010
-0.046
0.097
0.056
0.027
-0.002
0.046
-0.064
-0.047
0.026
0.101
0.209
0.055
0.070
0.007
-0.502
-0.119
0.368
0.410
0.102
-0.142
-0.162
-0.002
0.104
-0.003
0.021
0.003
-0.041
0.093
0.047
0.027
-0.005
0.037
0.093
0.018
-0.037
-0.020
0.052
-0.014
0.103
0.918
0.631
-1.478
-1.160
0.286
0.802
0.624
0.146
-0.127
-0.221
-0.080
-0.063
-0.117
-0.045
0.020
0.119
0.173
0.108
0.074
-0.081
0.037
0.208
0.119
-0.012
0.040
0.053
-0.069
-0.035
0.039
0.004
0.013
0.064
0.091
0.009
-0.044
0.075
-0.018
0.090
-0.006
0.056
0.057
0.027
-0.018
-0.028
0.020
0.023
0.095
-0.087
-0.031
0.043
0.032
0.001
0.070
0.055
-0.045
-0.029
-0.014
0.043
0.170
0.022
-0.005
0.014
0.052
0.049
0.125
-0.188
-0.268
0.219
0.292
0.204
0.043
-0.012
-0.161
0.024
-0.056
-0.136
0.017
0.231
0.277
0.162
0.004
-0.136
-0.150
-0.059
0.056
0.016
-0.029
0.145
0.154
0.047
-0.022
-0.056
-0.028
0.014
0.093
0.081
1.079
0.196
-1.660
-0.875
0.414
0.680
0.641
0.087
-0.150
-0.146
-0.193
-0.094
-0.088
0.265
0.712
-0.172
-0.835
-0.108
0.381
0.310
0.232
0.162
0.074
-0.042
-0.139
-0.071
-0.062
-0.046
-0.037
0.029
0.058
0.041
0.084
0.025
0.068
-0.037
0.090
0.073
-0.008
0.017
-0.030
0.004
-0.014
0.137
0.107
-0.018
-0.333
-0.000
0.388
0.401
0.131
-0.168
-0.106
0.135
0.134
-0.056
0.034
0.094
-0.020
-0.083
-0.136
0.044
0.098
0.085
0.042
-0.013
-0.017
-0.060
-0.000
-0.002
0.033
0.056
0.068
0.074
0.033
0.008
0.016
0.044
0.402
1.194
-0.918
-1.621
-0.245
0.608
0.808
0.401
0.170
-0.005
-0.028
-0.128
-0.132
-0.146
-0.061
0.059
0.138
0.271
0.108
0.041
0.188
0.144
0.049
-0.115
-0.140
-0.064
-0.015
0.031
0.028
0.064
0.106
0.175
0.006
-0.011
0.029
-0.032
-0.020
0.016
0.042
-0.099
0.044
0.069
0.032
0.039
0.050
0.144
-0.076
-0.437
0.123
0.362
0.304
0.067
-0.062
-0.050
-0.017
0.045
0.079
0.144
0.328
0.556
-0.427
-0.858
-0.016
0.342
0.212
0.196
0.022
0.014
-0.067
-0.066
-0.083
-0.028
0.030
-0.012
0.021
0.121
-0.024
0.064
0.078
0.067
0.001
0.038
0.065
0.045
0.073
0.964
0.344
-1.518
-1.026
0.338
0.845
0.696
0.146
-0.111
-0.176
-0.208
-0.167
-0.123
0.070
0.104
0.092
0.062
0.052
0.175
0.142
0.059
-0.102
-0.003
-0.087
0.040
0.083
0.071
-0.003
-0.094
0.008
0.049
0.167
0.043
0.058
-0.021
0.064
0.022
-0.083
0.061
-0.027
0.060
0.078
0.033
0.057
0.210
-0.321
-0.262
0.288
0.324
0.212
-0.087
-0.128
-0.099
0.020
0.069
0.042
0.062
0.067
-0.052
0.093
0.204
0.130
-0.093
-0.048
-0.015
0.014
0.078
0.005
0.039
0.054
0.008
-0.002
0.073
0.021
-0.007
0.029
0.044
0.088
0.427
1.109
-1.024
-1.585
-0.047
0.687
0.757
0.316
-0.029
-0.163
0.028
-0.107
-0.058
-0.024
0.051
0.096
0.120
0.154
0.138
0.046
0.014
0.040
0.014
-0.057
0.065
-0.046
-0.079
0.140
0.023
-0.021
0.059
0.011
0.046
0.404
0.177
-0.618
-0.396
0.202
0.275
0.054
-0.254
0.176
0.312
0.202
0.054
-0.085
-0.040
-0.062
0.012
0.088
0.134
0.176
0.068
-0.066
0.004
0.039
-0.004
0.068
0.022
-0.152
-0.119
-0.068
-0.019
0.075
0.161
0.152
0.025
-0.097
0.027
-0.002
0.035
-0.015
0.055
0.161
0.091
0.046
-0.015
-0.043
0.064
0.020
0.051
0.040
0.091
0.047
-0.052
-0.001
0.059
0.048
0.089
0.021
-0.102
-0.021
0.065
0.034
-0.038
0.500
1.042
-1.058
-1.577
-0.055
0.743
0.867
0.238
-0.073
-0.171
-0.162
-0.144
-0.065
0.099
0.047
0.120
0.054
0.137
0.088
0.120
0.061
0.094
0.044
-0.022
0.005
0.008
0.036
-0.000
-0.013
0.118
0.028
-0.481
-0.058
0.285
0.284
-0.017
-0.019
0.008
0.142
0.039
-0.013
0.016
-0.066
0.025
0.087
0.114
0.083
0.056
-0.018
-0.032
0.021
-0.046
0.033
0.070
0.047
0.005
-0.013
0.024
0.136
0.033
0.015
0.047
-0.003
-0.015
0.026
-0.053
0.028
0.046
0.065
0.042
0.050
-0.046
-0.068
0.041
0.071
0.073
0.061
0.016
0.110
0.035
0.041
-0.053
-0.092
0.073
-0.109
-0.060
-0.000
0.076
0.190
1.294
-0.157
-1.767
-0.754
0.522
0.993
1.261
-0.047
-1.078
-0.669
0.017
0.232
0.317
0.188
0.085
-0.115
-0.064
0.001
0.050
0.106
0.028
-0.028
0.035
-0.013
0.005
0.038
0.005
-0.014
0.090
0.067
0.152
-0.370
-0.343
0.207
0.464
0.256
0.070
-0.119
-0.050
-0.012
-0.057
0.078
0.019
0.010
0.064
0.034
0.088
0.053
-0.025
0.107
-0.046
0.041
-0.041
-0.152
0.071
0.129
0.164
0.058
-0.021
-0.030
-0.035
-0.104
-0.038
0.205
0.251
0.110
-0.023
-0.025
-0.102
-0.026
0.057
-0.006
0.026
0.050
0.048
0.122
0.117
-0.063
0.080
0.136
-0.004
-0.005
-0.009
-0.024
0.144
1.188
0.028
-1.605
-0.684
0.301
0.818
0.611
0.157
-0.170
-0.136
-0.149
-0.137
-0.125
-0.010
0.078
0.034
0.169
0.172
0.141
-0.261
-0.009
0.286
0.296
0.090
-0.101
-0.244
-0.018
0.060
0.015
0.019
0.148
0.203
0.151
0.052
-0.064
-0.101
-0.043
0.095
0.616
0.015
-0.703
-0.466
0.110
0.249
0.229
0.204
0.145
-0.115
-0.144
-0.129
-0.121
-0.007
-0.007
0.047
-0.049
-0.019
0.210
0.441
0.254
-0.047
-0.192
-0.065
-0.060
0.086
0.025
-0.003
0.093
0.190
0.083
0.016
-0.014
0.012
0.006
-0.013
0.005
-0.011
0.021
0.048
0.851
0.533
-1.509
-1.016
0.337
0.809
0.622
0.139
-0.175
-0.281
-0.166
-0.071
-0.083
0.054
0.098
0.125
0.196
0.071
0.131
-0.159
-0.377
0.040
0.358
0.398
0.059
-0.078
-0.168
-0.079
-0.051
0.034
0.164
0.136
-0.005
0.032
0.140
-0.014
-0.011
-0.056
0.013
0.008
0.135
0.005
0.039
0.025
0.056
0.099
-0.038
0.005
-0.006
0.043
0.103
0.072
-0.013
0.031
0.116
-0.040
-0.241
-0.034
0.130
0.201
0.028
0.042
0.029
0.001
0.026
0.072
0.084
0.058
0.027
0.021
0.070
0.022
-0.022
-0.065
-0.088
0.053
0.236
0.083
-0.013
0.038
0.132
0.076
-0.078
-0.122
0.062
0.197
1.294
-0.230
-1.812
-0.403
0.507
0.620
0.371
0.028
-0.102
-0.165
-0.112
-0.426
-0.271
0.335
0.572
0.353
0.557
-0.011
-0.666
-0.434
0.188
0.137
0.279
0.341
0.134
-0.090
-0.063
-0.098
-0.082
-0.091
-0.073
0.010
0.181
0.049
0.093
0.060
0.072
0.094
0.119
0.003
-0.016
-0.026
-0.067
0.037
0.024
-0.006
0.115
-0.002
0.033
-0.023
0.004
0.035
0.041
0.087
0.012
0.043
0.019
-0.048
0.034
0.082
0.043
0.046
0.018
0.010
-0.039
-0.016
0.187
0.091
-0.049
0.030
0.078
0.021
0.124
-0.013
0.031
0.043
0.042
0.017
0.000
0.032
-0.008
0.014
0.040
0.099
0.066
-0.049
-0.020
-0.040
0.054
1.110
-0.535
-1.328
0.063
0.564
0.564
0.263
-0.048
-0.134
-0.110
0.030
-0.008
0.051
0.087
0.132
0.015
0.058
0.097
0.056
0.045
-0.018
-0.052
0.039
-0.098
-0.011
-0.083
-0.062
0.078
0.137
0.104
-0.009
-0.032
-0.049
-0.012
0.078
0.070
0.089
0.034
-0.031
0.126
0.049
0.007
0.178
0.078
0.086
-0.076
-0.017
0.088
0.106
0.045
0.053
-0.016
0.004
-0.000
0.022
0.037
0.067
0.006
-0.015
-0.007
-0.044
-0.008
0.038
0.031
0.097
0.036
0.031
-0.006
0.002
0.027
0.478
0.354
-0.574
-0.604
0.088
0.301
0.302
0.241
-0.364
-0.049
0.318
0.227
0.076
-0.068
-0.068
0.835
0.389
-1.562
-0.967
0.455
0.869
0.670
0.173
-0.197
-0.212
-0.208
-0.070
-0.075
-0.050
0.084
0.114
0.051
0.155
0.193
0.105
-0.011
-0.020
-0.120
0.053
0.174
0.126
0.081
0.052
-0.134
-0.045
-0.021
0.034
-0.004
0.096
0.086
0.102
-0.013
0.070
-0.036
-0.072
0.002
0.024
-0.027
0.024
0.051
-0.058
-0.011
0.067
0.053
0.057
0.026
0.050
0.139
-0.008
-0.003
0.018
0.024
0.030
0.023
0.001
0.060
-0.059
0.020
0.034
-0.031
0.034
0.033
0.047
0.036
0.112
0.039
0.013
0.083
-0.004
0.052
0.072
0.140
-0.458
-0.072
0.168
0.303
0.168
0.086
-0.028
-0.214
-0.117
0.208
1.325
-0.188
-1.751
-0.490
0.490
0.735
0.473
0.226
-0.033
-0.255
-0.221
-0.116
-0.113
-0.007
0.073
0.141
0.205
0.206
0.063
0.073
0.070
0.064
0.028
-0.043
0.014
0.070
0.006
0.059
0.016
0.006
-0.045
0.036
0.056
-0.024
0.015
0.037
-0.062
0.048
0.036
0.042
0.086
0.089
-0.003
0.011
-0.019
-0.146
0.163
0.218
0.179
0.174
-0.109
0.011
0.089
0.390
0.301
-0.647
-0.593
0.144
0.340
0.192
0.184
0.090
-0.118
-0.189
-0.056
0.078
-0.251
-0.306
0.199
0.469
0.316
0.054
-0.168
-0.099
0.016
0.041
0.065
0.106
0.063
0.067
0.526
0.946
-1.276
-1.589
0.147
0.731
0.712
0.293
-0.086
-0.108
-0.118
-0.082
-0.134
0.025
0.098
0.109
0.178
0.143
0.087
-0.017
0.064
0.038
0.090
0.047
0.031
-0.052
-0.055
0.018
-0.024
0.003
0.055
0.142
-0.003
-0.009
0.050
0.005
0.060
0.032
0.013
-0.016
0.026
0.052
-0.055
0.008
0.053
0.147
0.061
0.023
-0.070
-0.007
0.038
-0.009
0.048
0.104
0.163
0.002
-0.070
-0.101
-0.037
0.230
0.271
0.151
-0.021
-0.020
-0.025
-0.022
0.053
-0.009
0.119
0.232
-0.297
-0.318
0.300
0.294
0.175
-0.210
-0.213
-0.009
0.120
0.142
-0.009
-0.066
0.070
0.179
0.208
-0.000
-0.019
-0.066
-0.022
0.023
-0.011
0.597
1.071
-1.144
-1.559
0.073
0.687
0.652
0.298
-0.013
-0.154
-0.171
-0.135
-0.074
-0.055
0.122
0.126
0.142
0.067
0.047
0.010
0.087
-0.030
0.028
0.010
-0.001
-0.011
0.108
-0.025
0.039
-0.005
0.053
0.003
0.016
0.054
0.282
0.599
-0.414
-0.743
-0.063
0.185
0.146
0.330
0.290
0.068
-0.111
-0.240
0.020
0.065
-0.012
-0.100
0.073
0.309
0.235
0.117
0.013
-0.050
-0.042
0.017
0.014
-0.011
0.229
-0.065
-0.395
0.114
0.246
0.242
0.055
-0.160
-0.029
-0.061
0.029
-0.022
0.084
0.107
0.109
0.014
0.036
-0.001
-0.008
0.066
0.037
0.054
0.019
0.008
0.525
1.116
-1.057
-1.567
0.016
0.621
0.696
0.500
-0.010
-0.098
-0.344
-0.230
-0.083
-0.047
-0.083
0.167
0.231
0.264
0.171
-0.108
-0.022
0.167
0.169
-0.078
-0.046
0.033
-0.048
0.028
0.022
-0.030
0.025
-0.004
0.097
0.044
0.025
-0.014
0.060
0.027
0.027
0.024
0.037
0.025
0.077
0.040
0.057
0.059
-0.044
0.050
-0.041
-0.004
0.038
0.013
0.069
0.000
0.023
0.085
0.039
0.101
0.020
-0.021
0.041
0.021
0.003
0.102
-0.039
0.021
0.088
0.086
-0.048
-0.563
-0.048
0.530
0.486
0.151
-0.083
-0.155
-0.133
-0.012
0.035
0.125
0.103
0.085
0.032
0.107
0.017
0.061
-0.033
-0.093
0.321
1.215
-0.839
-1.746
-0.061
0.704
0.803
0.303
-0.119
-0.108
-0.149
-0.112
-0.104
-0.053
-0.064
0.114
0.233
0.126
0.109
-0.008
0.055
0.022
0.075
0.034
0.030
0.066
0.028
-0.013
-0.023
0.003
0.039
0.084
-0.038
0.011
0.063
0.015
0.105
0.013
-0.027
-0.072
-0.071
-0.182
0.154
0.146
0.210
0.039
-0.041
-0.053
-0.083
-0.119
0.015
0.029
0.034
0.110
0.063
0.043
0.045
0.042
0.032
0.033
-0.092
-0.137
-0.082
0.114
0.138
-0.329
-0.034
0.394
0.375
0.210
-0.170
-0.236
-0.054
-0.015
0.040
0.199
0.097
0.043
0.039
-0.018
0.003
0.046
-0.014
0.001
-0.027
0.017
0.009
0.017
-0.000
0.026
0.046
0.001
0.038
-0.004
-0.030
0.027
0.064
0.072
0.098
-0.057
0.036
0.439
0.365
-0.575
-0.639
0.063
0.244
0.625
1.348
-0.752
-1.613
-0.125
0.422
0.704
0.339
0.031
-0.116
-0.200
-0.098
-0.076
0.037
0.098
0.121
0.127
0.062
0.121
0.171
0.100
-0.030
-0.056
0.004
0.068
-0.028
0.030
-0.062
-0.046
-0.012
0.006
0.010
-0.011
0.035
0.120
0.048
0.017
0.050
-0.000
0.041
0.059
0.096
0.011
0.018
0.112
0.050
0.138
0.140
-0.333
-0.233
0.332
0.346
0.153
-0.048
-0.135
-0.099
-0.073
0.105
0.146
0.115
-0.042
-0.022
0.051
0.037
-0.040
-0.009
0.095
0.165
0.157
-0.003
-0.179
-0.089
0.030
0.044
0.125
0.124
0.003
0.046
0.031
0.029
-0.004
0.040
0.030
0.059
0.033
0.065
0.055
-0.019
0.030
0.009
0.034
0.023
0.098
0.003
1.140
-0.029
-1.683
-0.646
0.367
0.702
0.527
0.227
0.055
-0.118
-0.311
-0.271
-0.115
0.051
0.075
0.242
0.224
0.143
0.037
0.011
0.000
-0.008
0.003
0.020
-0.040
0.007
0.178
-0.019
0.077
0.008
0.017
-0.025
0.024
0.018
0.027
0.055
0.053
0.071
0.010
0.031
-0.031
0.153
-0.241
-0.370
0.134
0.294
0.252
0.053
-0.081
-0.162
-0.120
0.094
0.051
0.026
0.074
0.181
0.139
0.010
-0.074
-0.088
-0.040
0.033
0.192
0.038
0.055
0.001
0.020
0.000
0.052
0.031
0.032
-0.014
0.041
0.037
0.022
-0.009
0.036
0.050
0.092
0.059
0.029
0.021
-0.010
-0.025
0.140
0.107
0.071
-0.039
-0.052
-0.063
-0.088
-0.123
0.172
0.293
0.174
0.037
-0.094
-0.115
0.075
1.214
-0.165
-1.860
-0.439
0.587
0.719
0.343
0.061
-0.095
-0.100
-0.123
-0.082
-0.114
-0.065
0.212
0.121
0.151
0.153
0.025
0.047
0.145
0.092
0.094
0.448
0.031
-0.775
-0.451
0.047
0.170
0.202
0.117
0.161
-0.099
-0.141
0.063
-0.088
-0.332
0.031
0.295
0.428
0.131
0.018
0.119
-0.132
-0.122
-0.128
-0.066
0.093
0.210
0.157
0.027
-0.125
-0.058
-0.042
0.072
-0.016
0.052
0.059
0.024
0.039
0.014
0.032
0.079
0.038
0.012
-0.073
-0.076
0.002
0.024
0.092
0.018
-0.002
0.015
0.025
0.123
0.084
0.006
-0.023
-0.078
0.024
0.003
0.038
0.094
0.030
0.004
0.599
0.894
-1.281
-1.429
0.102
0.719
0.774
0.334
0.018
-0.135
-0.186
-0.122
-0.006
-0.119
0.065
0.161
0.137
0.056
0.016
0.101
0.065
0.060
0.110
0.008
-0.020
-0.026
-0.073
0.014
-0.028
0.071
0.009
0.056
0.025
0.103
-0.020
0.077
-0.002
-0.113
0.024
-0.023
-0.069
0.087
0.215
0.113
0.182
-0.065
-0.052
0.075
0.149
-0.279
-0.165
0.274
0.299
0.285
-0.099
-0.117
-0.101
-0.089
0.045
0.020
0.002
0.070
0.041
-0.025
0.056
0.002
-0.034
0.076
0.038
-0.034
0.026
0.068
0.034
0.023
0.042
0.066
0.019
-0.028
0.046
0.142
0.071
0.041
-0.004
0.007
0.067
0.046
0.108
0.080
-0.070
-0.048
0.024
0.049
0.109
0.062
0.113
0.053
-0.042
0.026
0.414
1.121
-1.033
-1.661
-0.021
0.761
0.817
0.395
-0.044
-0.297
-0.138
-0.399
-0.422
0.193
0.507
0.414
0.127
-0.060
-0.155
-0.043
0.009
0.080
0.125
0.027
0.112
0.050
0.021
0.035
-0.023
-0.085
0.002
-0.024
0.029
0.017
0.004
0.117
0.100
0.050
0.002
0.052
0.098
0.044
0.022
-0.018
0.033
-0.013
-0.020
0.077
0.053
0.012
-0.021
0.031
0.002
0.017
0.089
0.049
0.079
-0.010
0.016
-0.015
0.012
0.040
0.109
0.002
0.045
0.133
-0.024
0.021
-0.004
-0.041
0.024
0.007
0.045
0.055
0.052
0.026
-0.018
0.054
0.030
0.030
-0.011
0.035
0.071
0.034
0.020
-0.006
-0.099
0.026
0.033
0.047
0.584
1.197
-0.537
-1.775
-0.838
0.420
0.887
0.514
0.327
0.106
-0.120
-0.356
-0.223
-0.232
0.023
0.163
0.260
0.204
0.135
0.155
0.101
0.042
0.070
-0.127
-0.157
-0.079
0.045
0.022
-0.067
0.064
0.097
0.107
-0.383
-0.266
0.276
0.400
0.299
0.025
-0.197
-0.072
0.018
0.060
0.115
-0.085
0.004
0.120
0.177
0.183
-0.036
-0.089
-0.082
-0.034
-0.011
-0.042
0.064
0.025
0.148
0.040
0.078
-0.077
-0.073
0.006
-0.030
-0.048
0.032
0.098
0.108
0.071
-0.020
-0.021
0.065
0.051
0.014
0.088
0.009
-0.020
-0.023
0.043
0.066
0.033
0.047
0.090
1.112
-0.068
-1.801
-0.691
0.352
0.797
0.664
0.092
-0.109
-0.238
-0.212
-0.107
-0.121
-0.005
0.197
0.066
0.111
0.073
0.127
0.087
0.061
0.024
0.028
-0.063
-0.004
0.097
0.000
-0.000
-0.011
0.013
0.041
0.060
-0.012
-0.021
0.014
0.073
0.063
0.009
0.014
0.070
0.028
-0.136
0.228
-0.079
-0.423
0.143
0.339
0.318
0.039
-0.128
-0.107
-0.055
-0.023
0.076
0.108
0.133
0.153
-0.085
-0.102
-0.010
0.047
0.065
0.120
0.041
-0.124
-0.171
0.043
0.181
0.173
0.115
-0.077
-0.020
0.013
-0.028
0.054
0.076
0.128
0.057
0.148
0.066
-0.036
-0.050
-0.091
-0.012
0.040
0.066
0.124
1.277
-0.021
-1.637
-0.754
0.373
0.761
0.540
0.078
-0.128
-0.146
-0.130
-0.090
-0.145
0.037
0.123
0.106
0.117
0.130
0.126
0.012
0.015
0.003
-0.018
0.044
0.099
0.048
0.037
0.088
0.015
-0.048
0.014
-0.016
-0.016
0.059
0.008
-0.029
0.063
-0.081
0.383
0.513
-0.571
-0.691
0.055
0.228
0.190
0.110
0.109
-0.031
0.003
0.053
-0.390
-0.189
0.190
0.368
0.190
0.037
-0.010
-0.064
0.075
0.093
0.089
0.052
0.052
0.070
-0.032
-0.110
-0.067
-0.012
0.033
0.123
0.061
-0.067
-0.042
0.022
-0.002
0.049
0.026
0.044
0.047
-0.016
-0.006
-0.017
0.038
0.048
0.075
-0.021
0.125
0.113
0.060
0.031
-0.040
-0.037
0.374
1.119
-0.712
-1.648
-0.082
0.543
0.688
0.361
0.064
-0.019
-0.149
-0.140
-0.059
-0.156
0.040
0.175
0.102
0.120
0.000
-0.005
0.187
0.188
0.093
0.065
-0.119
-0.158
-0.074
0.133
0.026
-0.002
0.050
-0.022
-0.004
0.106
0.075
-0.295
-0.132
0.260
0.337
0.210
0.001
-0.187
-0.044
0.002
-0.001
0.131
0.056
0.101
0.116
0.032
0.058
0.053
-0.069
0.004
0.007
-0.009
0.005
0.074
0.031
-0.026
0.010
0.078
0.030
-0.018
-0.002
0.013
0.020
0.103
0.034
-0.058
0.030
0.050
0.014
0.066
0.118
0.061
0.126
0.006
0.013
0.075
-0.016
0.037
0.095
-0.041
0.002
0.028
0.101
-0.005
-0.031
0.087
0.035
0.019
0.785
0.656
-1.441
-1.236
0.171
0.707
0.598
0.197
-0.088
-0.178
-0.143
-0.077
-0.151
-0.087
0.127
0.066
0.074
0.030
0.193
0.115
0.068
0.173
0.706
-0.227
-0.873
-0.211
0.209
0.157
0.199
0.219
0.048
-0.020
-0.136
0.050
-0.310
-0.292
0.169
0.518
0.277
0.095
-0.079
-0.120
-0.103
-0.015
0.081
0.086
0.100
0.012
-0.028
-0.017
-0.061
0.023
0.078
0.082
-0.035
-0.100
-0.119
0.098
0.088
0.047
0.134
0.041
-0.023
-0.018
-0.026
0.067
-0.102
0.010
0.186
0.115
0.139
0.065
0.003
-0.038
-0.059
-0.033
0.054
0.137
0.056
0.128
-0.050
0.053
0.016
0.004
0.024
-0.042
0.274
1.302
-0.691
-1.797
-0.215
0.581
0.705
0.444
-0.005
-0.153
-0.133
-0.093
-0.030
0.031
-0.041
-0.018
0.132
0.298
0.270
0.089
-0.076
-0.043
0.008
0.016
-0.003
0.124
0.077
0.158
0.046
-0.059
-0.028
-0.045
0.190
-0.341
-0.250
0.272
0.387
0.246
-0.039
-0.137
-0.082
-0.109
-0.075
0.025
0.134
0.094
0.059
0.134
0.018
0.034
0.019
0.059
-0.032
-0.089
-0.011
-0.025
0.016
0.145
0.097
0.022
0.019
-0.005
0.000
0.041
-0.018
0.072
-0.006
0.050
0.005
0.008
-0.062
0.020
0.060
-0.005
0.052
0.043
0.043
-0.009
0.011
-0.033
-0.025
0.002
0.087
0.161
0.100
-0.029
0.011
-0.008
-0.051
0.032
0.033
0.104
0.022
0.092
0.021
0.031
0.050
0.142
1.204
-0.290
-1.791
-0.436
0.538
0.617
0.371
0.006
-0.093
-0.179
-0.270
-0.175
0.081
0.260
0.191
0.122
0.023
0.040
-0.011
-0.002
0.057
0.060
0.088
0.006
0.127
0.042
0.031
-0.003
-0.011
0.087
-0.195
-0.390
0.160
0.352
0.251
0.070
-0.144
-0.112
0.030
-0.090
0.041
0.074
0.112
0.051
0.060
-0.036
0.021
-0.026
-0.016
0.013
0.050
-0.008
0.037
0.063
0.061
0.057
-0.019
0.008
0.105
0.021
-0.035
0.059
-0.093
0.098
0.095
0.039
0.076
-0.073
-0.002
0.010
0.000
0.076
-0.009
0.048
0.020
0.087
-0.003
0.034
-0.007
0.104
0.046
-0.008
0.052
0.055
0.038
0.028
0.083
0.042
0.047
-0.008
-0.065
0.011
0.028
-0.041
0.048
0.072
0.010
0.065
0.047
0.014
0.045
0.032
0.240
1.228
-0.676
-1.595
-0.198
0.568
0.815
0.350
-0.051
-0.062
-0.199
-0.114
-0.034
-0.071
0.090
0.039
0.035
0.095
0.143
0.008
0.045
0.133
0.100
-0.033
0.262
-0.173
-0.385
-0.035
0.230
0.314
0.155
-0.096
-0.029
-0.020
-0.005
-0.044
0.081
0.146
0.069
0.103
0.063
0.070
-0.057
-0.196
-0.066
0.119
0.240
0.142
0.031
-0.086
-0.110
-0.067
0.002
-0.007
0.110
0.078
0.059
-0.045
0.093
-0.028
-0.002
-0.055
0.083
0.041
-0.020
-0.017
-0.022
0.011
0.117
0.029
0.042
-0.004
0.043
0.038
-0.036
0.104
0.113
-0.064
0.062
-0.047
0.011
0.010
0.023
0.151
0.065
0.035
0.046
-0.028
0.000
0.128
0.011
0.015
0.001
-0.004
0.023
0.086
0.032
0.056
0.025
0.038
-0.009
0.055
0.016
0.722
0.776
-1.373
-1.341
0.164
0.777
0.684
0.209
-0.085
-0.117
-0.110
-0.465
-0.318
0.269
0.439
0.284
0.088
-0.110
-0.064
0.064
0.174
0.080
0.139
0.080
-0.014
0.053
-0.020
0.013
0.017
0.001
0.053
0.026
0.057
0.114
0.058
0.029
-0.197
0.030
0.226
0.200
0.164
0.087
-0.078
-0.067
-0.033
0.005
0.149
0.036
0.076
0.007
-0.021
-0.060
0.063
0.040
0.023
0.035
0.012
0.004
-0.050
0.002
0.078
0.056
-0.023
0.042
0.060
-0.012
0.025
0.095
-0.013
0.095
0.035
-0.116
-0.117
0.056
0.157
0.092
0.143
0.040
0.107
-0.056
0.028
0.018
0.039
0.092
0.041
0.008
0.051
0.112
0.079
-0.086
-0.007
-0.018
0.043
0.020
0.006
0.017
0.025
-0.053
-0.039
0.045
0.043
0.010
0.052
0.049
0.002
0.040
0.090
0.021
0.136
0.518
0.459
-1.218
-1.034
0.348
0.794
0.567
0.081
-0.195
-0.133
-0.196
-0.128
-0.030
-0.056
0.126
0.141
0.012
0.053
0.008
0.073
0.117
0.025
0.145
0.079
-0.014
-0.006
-0.077
0.017
0.046
0.100
-0.022
0.037
0.049
0.072
0.463
0.279
-0.800
-0.534
0.119
0.145
0.245
0.396
0.232
0.127
-0.175
-0.239
-0.096
-0.030
0.103
0.171
0.082
0.176
0.040
0.020
0.055
-0.013
0.056
-0.027
0.082
0.176
-0.025
-0.083
0.001
0.031
-0.043
0.050
0.078
0.125
0.033
0.013
-0.005
-0.004
0.040
0.271
1.086
-0.779
-1.559
0.046
0.461
0.519
0.494
0.252
0.105
-0.160
-0.291
-0.170
-0.062
0.110
0.212
0.208
0.137
0.115
0.115
0.128
0.013
-0.011
-0.056
-0.020
-0.072
-0.032
-0.018
-0.100
-0.116
0.078
0.349
0.212
0.081
-0.153
-0.063
-0.008
-0.017
0.085
0.080
0.082
0.149
0.048
0.048
0.001
0.023
0.019
-0.008
0.108
0.035
0.001
0.030
0.037
0.095
0.063
-0.031
0.023
0.007
-0.008
0.050
0.072
0.019
-0.006
-0.065
-0.012
-0.029
-0.028
-0.016
-0.050
0.009
0.166
0.246
0.134
-0.042
-0.068
-0.071
-0.008
0.094
0.082
0.111
0.084
0.115
0.019
0.096
0.046
-0.375
-0.038
0.261
0.371
0.137
-0.045
-0.095
-0.038
-0.003
0.081
-0.008
0.051
0.088
0.079
-0.040
0.032
0.058
0.511
1.034
-1.100
-1.468
-0.087
0.623
0.712
0.267
0.015
-0.160
-0.130
-0.092
-0.056
-0.090
0.061
0.116
0.074
0.206
0.291
0.192
-0.012
-0.096
-0.159
0.001
0.034
0.082
0.159
-0.015
-0.005
0.020
-0.048
0.054
0.068
0.048
0.092
0.025
0.047
0.070
0.060
0.002
-0.007
0.020
0.036
0.123
-0.008
0.024
0.040
0.059
-0.040
-0.012
-0.003
-0.016
0.021
0.055
0.038
0.057
-0.099
-0.058
0.030
0.064
-0.005
-0.084
0.012
0.047
0.006
0.071
-0.053
0.024
0.085
0.077
0.263
-0.049
-0.444
0.071
0.354
0.277
0.028
-0.180
-0.035
0.094
0.087
0.113
0.065
-0.010
-0.041
0.013
0.033
0.082
0.008
-0.056
0.076
-0.012
-0.070
0.005
0.116
0.073
0.024
0.584
0.941
-1.264
-1.430
0.032
0.703
0.799
0.371
0.054
-0.179
-0.180
-0.146
-0.119
-0.036
0.056
0.103
0.090
0.147
0.153
0.040
0.135
-0.005
0.021
-0.027
-0.017
0.054
0.013
0.026
0.037
0.100
0.547
0.072
-0.900
-0.350
0.231
0.252
0.252
0.242
0.047
-0.095
-0.039
-0.216
-0.042
0.273
0.167
0.145
-0.008
0.019
0.034
0.053
0.070
0.049
-0.014
0.057
0.035
0.018
0.066
0.009
0.054
-0.167
-0.517
-0.015
0.332
0.550
0.206
-0.088
-0.185
-0.160
-0.079
-0.029
0.169
0.160
0.189
0.038
0.080
0.060
-0.110
-0.045
0.073
-0.077
0.027
-0.055
-0.077
0.134
0.107
0.142
0.422
1.150
-0.822
-1.849
-0.296
0.679
0.827
0.492
0.067
-0.198
-0.211
-0.180
-0.134
-0.052
-0.040
0.053
0.159
0.194
0.063
0.141
0.071
0.084
-0.039
0.022
-0.028
0.024
0.035
0.097
0.004
-0.001
0.068
0.091
0.084
-0.052
-0.031
0.000
0.049
0.078
0.014
0.077
-0.023
0.097
0.037
0.007
0.009
-0.002
-0.065
0.072
0.049
0.058
0.105
0.059
-0.028
0.001
0.014
0.085
0.090
0.030
0.042
0.029
0.002
0.005
0.053
0.075
0.002
0.110
0.115
-0.441
-0.191
0.345
0.367
0.254
-0.113
-0.121
-0.018
-0.078
0.180
0.130
-0.025
-0.048
0.044
0.041
0.044
-0.048
0.015
-0.016
-0.017
0.012
0.060
-0.005
0.087
0.112
1.040
0.495
-1.548
-0.851
0.356
0.731
0.626
0.156
-0.065
-0.223
-0.195
0.005
-0.042
-0.133
-0.069
0.176
0.367
0.305
0.086
-0.060
-0.100
-0.048
0.078
0.082
-0.152
0.017
0.170
0.129
0.012
0.009
-0.200
-0.074
0.004
-0.015
0.061
0.036
0.053
0.163
0.077
0.005
0.082
0.002
0.030
0.030
0.022
0.057
0.051
-0.028
0.010
0.051
0.024
0.066
0.010
0.080
0.056
-0.035
-0.031
0.048
0.162
0.023
-0.400
-0.052
0.393
0.315
0.111
-0.204
-0.112
-0.023
0.036
0.032
0.040
0.126
0.050
0.035
0.031
0.026
0.047
-0.052
0.055
0.045
-0.018
-0.013
0.092
0.076
0.063
0.054
0.060
0.069
0.172
1.158
-0.591
-1.727
-0.247
0.539
0.826
1.086
-0.005
-1.025
-0.614
-0.046
0.115
0.146
0.210
0.155
-0.026
0.054
0.118
0.018
-0.118
-0.101
0.068
0.159
0.121
0.137
0.077
-0.007
-0.054
-0.008
0.010
0.062
0.029
0.051
-0.051
0.178
0.056
0.045
0.086
0.047
-0.007
-0.139
-0.099
0.143
0.198
-0.083
-0.010
0.058
0.084
0.074
-0.079
-0.103
0.023
-0.097
-0.070
-0.048
0.181
0.241
0.209
-0.363
-0.189
0.164
0.272
0.113
-0.019
-0.110
-0.080
0.008
0.079
0.075
0.063
0.040
0.090
0.167
-0.061
0.279
1.197
-0.743
-1.823
-0.178
0.652
0.880
0.339
-0.001
-0.093
-0.216
-0.158
-0.167
-0.058
-0.019
0.078
0.119
0.184
0.105
0.061
0.028
-0.011
0.054
-0.012
0.077
0.066
-0.097
0.014
0.082
0.168
0.168
0.021
0.023
-0.029
-0.044
0.118
0.072
0.065
0.031
0.080
0.085
-0.029
-0.027
-0.005
0.026
0.114
0.044
-0.041
-0.053
-0.068
0.031
0.035
0.039
0.085
-0.052
0.008
0.018
0.008
0.047
0.118
0.044
-0.013
0.022
0.086
-0.014
0.066
0.140
0.094
0.009
0.055
-0.006
0.125
0.049
0.040
0.294
0.054
-0.471
-0.129
0.243
0.346
0.155
-0.123
-0.077
-0.081
-0.012
-0.018
0.019
0.116
0.077
0.082
0.009
-0.041
0.078
1.143
-0.003
-1.749
-0.756
0.467
0.847
0.600
0.013
-0.192
-0.132
0.104
0.092
0.221
0.407
-0.624
-0.549
0.192
0.370
0.303
0.379
0.213
-0.093
-0.102
-0.140
-0.075
-0.122
-0.083
0.038
0.044
0.114
0.069
0.069
0.065
0.076
0.043
0.023
0.011
0.023
0.034
0.069
-0.020
0.076
0.012
-0.134
0.063
0.198
0.062
-0.068
-0.010
0.018
0.020
0.076
0.099
0.011
0.095
0.003
0.022
0.014
-0.077
-0.003
0.090
0.129
0.093
0.023
0.034
0.056
0.027
0.014
0.059
0.080
0.179
-0.009
-0.292
0.007
0.280
0.350
0.047
-0.135
-0.153
-0.045
0.054
0.139
0.832
0.711
-1.504
-1.319
0.259
0.894
0.869
0.280
-0.140
-0.320
-0.310
-0.142
-0.118
-0.090
0.018
0.196
0.354
0.271
0.089
-0.101
0.077
0.057
-0.092
-0.195
-0.026
0.111
0.084
0.094
0.095
0.002
0.049
-0.041
-0.003
-0.002
-0.035
0.054
-0.020
-0.027
0.243
0.228
0.169
0.079
-0.093
-0.118
-0.071
-0.015
0.196
0.046
0.002
-0.058
-0.011
0.133
-0.034
0.004
-0.013
0.055
0.026
0.023
0.027
-0.010
0.024
-0.010
-0.027
0.127
0.116
0.034
0.007
-0.069
0.042
0.075
0.076
0.105
0.104
-0.099
-0.026
0.047
0.001
0.061
0.212
-0.040
-0.425
0.027
0.374
0.313
0.082
0.895
0.060
-1.727
-0.919
0.397
0.851
1.184
0.250
-0.844
-0.703
-0.011
0.041
0.092
0.171
0.170
-0.053
0.023
-0.093
-0.013
0.065
0.075
0.088
0.074
0.047
0.006
0.122
-0.012
-0.016
0.047
0.058
-0.041
0.035
0.018
0.035
0.092
0.060
0.033
0.029
-0.002
-0.015
0.113
0.029
0.036
0.035
-0.030
-0.007
0.003
0.060
0.056
-0.014
0.008
0.037
0.003
-0.099
0.070
0.090
0.015
-0.018
-0.016
0.019
0.004
-0.012
0.013
-0.020
0.033
0.078
0.110
0.005
0.009
0.008
0.055
0.022
0.013
0.066
0.077
0.023
0.024
0.001
-0.051
0.123
0.088
-0.027
0.006
0.000
0.052
0.076
0.116
0.004
-0.191
-0.050
0.088
0.152
0.292
-0.136
-0.421
-0.035
0.374
0.320
0.104
-0.070
0.254
1.110
-0.730
-1.697
-0.149
0.677
0.783
0.306
-0.036
-0.181
-0.241
-0.128
-0.162
-0.013
0.115
0.153
0.163
0.131
0.100
0.068
0.080
0.107
-0.083
-0.284
0.074
0.266
0.261
0.125
-0.111
-0.145
-0.130
-0.070
-0.003
-0.039
0.059
0.037
0.012
0.063
0.101
0.011
0.007
-0.036
-0.062
0.004
0.036
0.071
0.110
0.030
-0.017
0.106
0.066
0.061
0.583
0.206
-0.627
-0.483
0.052
0.266
0.218
0.107
0.085
-0.026
-0.037
0.019
-0.101
-0.019
0.000
0.077
0.029
0.059
0.101
0.090
0.086
0.063
-0.051
-0.017
-0.062
0.043
0.036
-0.075
-0.457
-0.038
0.588
1.506
-0.375
-1.841
-0.485
0.415
0.691
0.433
0.049
-0.043
0.016
-0.048
-0.111
-0.143
0.014
0.086
0.081
0.082
0.044
0.187
0.074
0.010
0.030
0.028
0.042
0.068
-0.058
-0.019
0.014
-0.012
-0.027
0.020
0.057
-0.028
-0.001
-0.058
-0.029
0.015
-0.080
0.096
0.174
0.231
0.196
-0.105
-0.184
-0.131
0.012
0.142
0.156
0.079
0.049
0.065
0.006
-0.010
0.059
-0.017
0.053
-0.017
0.063
-0.040
-0.007
0.003
0.024
0.120
0.099
-0.003
0.097
0.015
0.001
0.046
0.018
0.051
-0.028
0.080
0.109
-0.018
0.042
0.063
0.005
0.050
0.050
-0.049
0.052
-0.003
0.150
1.114
0.362
-1.724
-1.070
0.295
0.768
0.804
-0.017
-0.477
-0.016
0.207
0.105
-0.118
-0.186
-0.111
0.108
0.144
0.159
0.164
0.180
0.706
-0.181
-0.903
-0.262
0.206
0.116
0.208
0.197
0.011
-0.052
-0.051
-0.091
-0.064
-0.020
0.093
0.110
0.193
0.120
0.130
0.031
-0.070
-0.006
0.028
0.009
0.049
0.031
-0.013
0.016
-0.097
-0.169
0.166
0.206
0.122
0.081
-0.080
-0.053
-0.058
-0.087
0.054
0.094
0.007
0.029
0.063
0.025
-0.082
0.043
0.033
-0.012
-0.064
0.027
0.089
0.050
0.022
0.081
-0.005
0.026
0.016
0.065
0.049
0.040
0.043
0.009
-0.022
0.051
0.019
0.058
-0.065
-0.025
-0.024
0.080
0.157
1.023
0.664
-1.537
-1.262
0.154
0.776
0.726
0.106
-0.176
-0.156
0.033
-0.355
-0.295
0.210
0.451
0.324
0.031
-0.055
-0.127
-0.088
0.156
0.162
0.107
0.069
0.040
0.088
-0.021
0.021
0.069
-0.040
-0.081
-0.027
0.096
0.052
-0.132
-0.080
0.112
0.143
0.096
-0.004
-0.001
0.017
-0.088
-0.018
0.099
-0.024
0.039
0.036
0.037
0.121
-0.040
-0.052
0.026
0.008
0.099
0.059
-0.033
-0.013
-0.009
0.013
0.070
0.005
0.080
0.092
0.022
0.002
-0.011
0.024
0.096
-0.023
0.018
-0.006
0.099
0.046
0.010
0.023
0.008
-0.081
0.110
0.062
0.041
0.080
0.006
0.016
0.023
-0.031
0.012
0.072
0.076
0.026
0.022
0.018
0.012
0.023
0.752
0.724
-1.560
-1.187
0.276
0.819
0.499
-0.079
0.009
0.168
0.025
-0.094
-0.245
-0.114
0.085
0.127
0.124
0.095
0.147
0.129
0.038
0.029
-0.070
-0.046
-0.027
0.205
0.547
-0.396
-0.764
-0.015
0.290
0.186
0.276
0.095
-0.043
0.003
-0.152
-0.116
0.042
0.088
0.006
0.201
0.109
0.143
0.009
0.082
0.077
-0.003
-0.007
0.109
0.067
0.155
-0.040
-0.002
-0.007
-0.001
0.019
0.015
0.003
0.025
-0.071
-0.005
0.015
0.064
0.065
0.011
0.033
0.038
0.070
-0.000
0.030
-0.005
0.099
-0.163
-0.037
0.236
0.203
0.901
0.693
-1.572
-1.283
0.245
0.741
0.766
0.246
-0.017
-0.143
-0.233
-0.104
-0.115
-0.003
0.065
0.176
0.146
0.119
-0.004
0.021
0.097
0.022
0.105
0.074
0.081
-0.467
-0.155
0.374
0.292
0.163
-0.050
-0.135
0.041
0.008
-0.006
0.002
0.068
0.115
0.036
0.020
0.057
0.003
0.079
-0.028
-0.016
0.042
-0.071
0.063
0.038
0.081
0.000
0.035
0.075
0.097
-0.018
0.006
0.003
0.043
0.086
0.064
0.003
0.061
0.021
0.083
0.113
-0.043
0.029
0.038
-0.002
0.030
0.047
0.030
0.017
-0.002
0.041
0.039
0.056
0.139
-0.053
0.078
0.022
-0.095
-0.041
-0.011
0.025
0.079
0.121
0.062
0.022
0.016
0.246
1.381
-0.542
-1.756
-0.505
0.333
0.916
0.652
0.284
-0.065
-0.237
-0.365
-0.200
-0.004
0.210
0.117
0.028
0.116
0.171
0.210
-0.313
-0.319
0.208
0.343
0.201
-0.073
-0.164
-0.192
-0.000
0.033
0.069
0.100
0.138
0.138
0.021
0.410
0.235
-0.688
-0.508
0.077
0.261
0.205
0.166
0.178
-0.117
-0.067
-0.073
-0.047
-0.057
-0.011
0.019
0.090
0.244
0.295
0.076
-0.032
-0.104
-0.026
0.012
0.069
0.079
0.016
-0.031
0.008
-0.021
-0.045
0.031
0.055
-0.022
0.012
0.002
0.016
0.007
0.059
0.052
-0.019
-0.009
0.009
0.034
0.037
0.018
-0.057
0.032
0.012
0.012
0.100
0.082
-0.035
-0.006
0.045
0.046
0.087
1.038
0.092
-1.739
-0.734
0.481
0.857
0.562
0.038
-0.147
-0.180
-0.021
-0.218
-0.490
0.115
0.457
0.397
0.011
-0.126
-0.021
0.143
0.208
0.089
0.011
-0.118
-0.143
0.012
0.034
0.005
0.008
0.010
0.042
0.046
0.108
-0.223
-0.113
0.120
0.094
0.259
-0.013
-0.086
0.044
-0.054
0.052
0.081
0.053
0.091
0.015
0.002
0.055
0.067
0.029
-0.060
-0.054
0.068
0.035
0.037
0.024
-0.004
-0.008
0.048
0.025
-0.043
-0.054
-0.003
0.185
0.176
0.014
0.000
-0.053
-0.043
-0.002
0.033
0.070
0.049
0.070
0.042
-0.036
0.006
-0.053
-0.007
0.100
0.102
0.016
0.079
0.011
0.074
0.058
0.070
0.445
0.532
-1.171
-0.811
0.440
0.659
0.642
0.056
-0.194
-0.039
0.017
-0.077
-0.252
-0.165
0.120
0.170
0.156
0.188
0.135
0.029
-0.072
-0.055
-0.128
-0.011
-0.029
0.120
0.019
0.200
0.722
-0.280
-0.816
-0.284
0.202
0.281
0.211
0.115
0.074
-0.081
-0.049
-0.171
-0.045
0.136
0.214
0.167
0.055
0.057
0.051
0.014
0.100
0.071
0.092
0.077
0.018
-0.010
-0.007
-0.049
-0.022
0.018
0.025
-0.040
0.049
0.057
-0.004
-0.017
0.017
0.189
0.181
0.038
-0.053
0.020
-0.031
0.057
0.052
0.059
0.066
0.004
0.034
-0.025
0.045
0.059
0.625
0.789
-1.458
-1.406
0.237
0.731
0.684
0.276
0.073
-0.022
-0.264
-0.636
-0.104
0.392
0.362
0.148
0.037
-0.035
-0.008
0.066
0.051
0.136
0.112
0.025
-0.003
0.036
0.077
0.055
-0.013
-0.035
-0.119
-0.005
0.108
0.053
0.089
-0.108
0.012
0.069
0.007
-0.006
0.201
0.038
0.061
0.040
-0.015
0.013
0.068
0.025
-0.035
-0.050
0.078
0.055
0.077
-0.068
-0.067
0.080
0.256
0.071
0.045
-0.073
-0.082
0.047
-0.008
0.065
0.109
0.137
0.026
0.049
-0.056
-0.033
-0.025
-0.087
0.093
0.256
0.213
0.153
-0.086
-0.044
-0.042
0.030
0.007
0.100
0.067
0.017
0.047
0.013
0.008
0.019
-0.027
0.126
-0.369
-0.232
0.201
0.254
0.216
-0.086
-0.130
-0.011
0.035
0.000
0.115
0.065
0.062
0.073
0.003
0.022
-0.005
-0.034
0.192
0.006
-0.028
-0.048
0.036
0.111
0.021
-0.001
0.095
0.076
0.094
-0.028
-0.051
0.082
0.071
0.024
0.047
0.030
0.258
1.252
-0.603
-1.836
-0.254
0.605
0.764
0.418
0.069
-0.046
-0.167
-0.298
-0.201
-0.102
0.110
0.218
0.062
-0.037
0.032
0.148
0.305
0.078
-0.070
-0.133
-0.125
0.055
0.140
0.002
0.030
-0.028
0.032
0.051
0.115
-0.310
-0.165
0.220
0.344
0.307
-0.045
-0.192
-0.252
-0.035
0.180
0.233
0.223
0.078
-0.035
-0.055
-0.001
0.029
0.069
-0.003
0.109
0.044
-0.004
0.016
-0.063
-0.061
0.084
0.039
0.039
0.036
-0.019
-0.039
0.043
-0.026
0.062
0.147
0.103
-0.079
-0.196
-0.055
0.092
0.205
0.215
1.031
0.456
-1.823
-1.082
0.234
0.822
0.694
0.209
-0.068
-0.130
-0.108
-0.164
-0.146
0.012
0.060
0.097
0.127
0.054
0.038
0.165
0.061
0.091
0.052
0.035
0.041
0.077
0.058
0.038
-0.024
0.105
0.465
-0.342
-0.645
0.017
0.210
0.164
0.175
0.159
0.148
-0.085
-0.098
-0.112
-0.046
0.046
-0.002
0.085
0.111
0.120
0.193
-0.161
-0.454
-0.001
0.410
0.380
0.092
-0.236
-0.171
-0.039
0.075
0.075
0.027
0.136
0.132
0.070
0.062
0.099
-0.007
0.037
-0.021
0.045
0.071
0.024
-0.007
0.285
1.248
-0.691
-1.709
-0.289
0.553
0.829
0.506
0.029
-0.164
-0.215
-0.132
-0.083
-0.064
-0.113
0.133
0.255
0.293
0.159
-0.021
-0.097
-0.006
-0.002
-0.061
-0.007
0.011
-0.036
0.056
-0.025
0.035
0.033
-0.043
-0.064
0.086
0.076
0.034
0.019
0.027
0.050
0.158
0.031
-0.101
0.060
0.184
-0.006
0.147
0.101
0.002
0.006
-0.072
-0.026
-0.015
-0.113
-0.057
0.138
0.137
0.217
0.131
-0.161
-0.182
-0.002
0.043
0.150
0.102
0.282
-0.325
-0.274
0.205
0.361
0.192
-0.035
-0.156
-0.111
-0.031
0.154
1.236
-0.404
-1.744
-0.399
0.521
0.824
0.559
0.167
-0.123
-0.180
-0.206
-0.087
-0.096
0.073
0.150
0.151
0.120
0.109
0.053
0.001
0.081
0.001
0.060
0.073
-0.037
-0.036
-0.006
0.098
0.014
-0.029
0.005
0.029
0.071
0.120
0.092
-0.015
0.087
-0.015
-0.018
0.019
0.072
0.045
0.037
0.079
0.104
0.002
0.155
0.613
-0.329
-0.914
-0.241
0.317
0.249
0.215
0.065
-0.099
-0.142
0.042
0.098
0.087
-0.026
-0.044
-0.020
0.022
0.032
0.148
0.157
0.105
0.032
0.068
0.023
-0.062
-0.108
0.039
0.121
-0.428
-0.139
0.325
0.304
0.182
-0.088
-0.116
-0.158
0.014
0.069
0.237
0.087
0.110
1.111
0.065
-1.911
-0.899
0.475
1.013
0.675
0.038
-0.315
-0.311
-0.161
-0.103
-0.055
0.098
0.106
0.102
-0.029
0.096
0.173
-0.014
0.003
0.069
0.022
0.012
0.036
0.038
-0.025
-0.008
-0.058
0.024
0.074
0.031
0.093
0.045
0.073
0.100
-0.053
0.002
-0.017
-0.035
0.071
0.033
0.004
0.094
-0.012
0.096
-0.057
-0.004
0.078
0.156
0.059
-0.033
-0.016
-0.014
-0.144
-0.024
0.179
0.183
0.173
0.010
-0.050
-0.056
-0.006
0.062
-0.062
-0.006
0.075
0.089
0.087
0.015
0.143
-0.040
0.057
-0.072
-0.456
0.008
0.371
0.325
0.001
-0.067
0.052
0.135
1.025
0.328
-1.711
-0.875
0.386
0.832
0.604
0.169
-0.098
-0.260
-0.221
-0.185
-0.211
-0.056
-0.017
0.137
0.211
0.203
0.067
-0.017
-0.007
0.042
0.017
-0.019
-0.036
0.099
0.114
0.079
0.086
-0.035
-0.080
0.029
0.045
0.099
0.003
-0.036
0.025
0.073
0.040
-0.045
0.037
0.064
-0.056
0.043
0.030
0.011
-0.002
0.005
0.043
0.020
0.032
0.008
-0.011
-0.013
0.058
0.098
0.007
0.022
0.066
0.016
-0.032
0.010
0.065
0.117
0.086
-0.005
-0.203
0.026
0.027
0.138
0.104
0.090
0.029
-0.057
-0.047
-0.005
0.121
-0.234
-0.232
0.192
0.404
0.229
-0.075
-0.078
-0.066
-0.014
-0.015
0.153
0.143
0.066
0.283
1.256
-0.350
-1.738
-0.529
0.367
0.834
0.516
-0.039
-0.176
-0.162
-0.083
-0.047
-0.150
0.080
-0.035
0.111
0.259
0.631
0.647
-0.414
-0.801
-0.022
0.260
0.139
0.155
0.141
0.102
0.012
-0.102
-0.126
-0.086
-0.001
-0.023
0.008
-0.015
0.130
0.114
0.093
0.084
0.050
0.059
-0.073
0.069
0.032
0.039
0.008
0.002
0.051
0.125
0.073
0.081
-0.001
0.010
0.067
0.049
-0.049
0.007
-0.063
-0.076
0.042
0.068
0.171
0.187
-0.040
-0.042
0.092
-0.145
0.076
0.106
-0.278
-0.058
0.339
0.304
0.138
-0.314
-0.150
0.102
0.146
0.111
-0.042
-0.031
0.048
0.313
1.217
-0.647
-1.693
-0.243
0.764
0.733
0.277
-0.072
-0.096
-0.206
-0.054
-0.080
0.015
0.013
0.028
0.078
0.070
0.180
0.012
0.069
0.149
0.054
-0.015
-0.005
-0.013
0.054
0.038
0.062
-0.010
-0.033
-0.039
0.053
0.069
0.070
0.039
0.011
0.009
0.056
0.015
0.039
0.032
0.121
0.104
-0.004
-0.129
-0.102
-0.006
0.080
-0.028
0.025
0.110
0.112
0.056
0.031
-0.042
-0.004
-0.041
0.056
0.013
0.094
0.078
0.010
0.126
0.138
0.012
-0.068
-0.043
-0.077
-0.012
0.019
0.063
0.153
0.173
0.023
0.012
-0.059
0.041
0.014
0.108
0.151
0.016
0.033
0.018
0.055
0.032
0.091
-0.419
-0.238
0.161
0.313
0.258
0.040
-0.097
0.518
0.800
-1.277
-1.458
0.169
0.760
0.816
0.357
-0.045
-0.245
-0.219
-0.142
-0.073
-0.012
0.327
0.617
-0.292
-0.693
-0.091
0.308
0.278
0.311
0.144
0.040
-0.105
-0.082
-0.088
0.026
-0.110
0.004
0.030
0.118
0.069
0.069
0.072
0.060
0.073
0.008
-0.002
-0.000
-0.019
0.026
0.029
0.054
0.058
0.083
0.007
-0.065
-0.054
0.081
0.092
0.062
0.125
0.036
-0.081
-0.047
-0.095
0.125
0.181
0.100
0.097
-0.013
0.016
-0.137
-0.028
0.041
0.137
0.079
-0.004
0.029
0.001
-0.037
0.005
0.010
-0.036
0.009
-0.004
0.005
-0.063
0.010
0.109
-0.229
-0.022
0.453
0.322
0.085
0.491
0.816
-1.249
-1.506
0.137
0.706
0.794
0.395
-0.029
-0.269
-0.285
-0.171
-0.070
-0.020
0.051
0.175
0.072
0.018
0.106
0.081
0.172
0.031
0.071
0.027
0.077
0.018
-0.022
-0.036
0.082
0.006
0.043
0.018
0.010
0.126
-0.168
-0.162
0.055
0.245
0.258
0.092
-0.072
0.004
-0.143
-0.055
0.025
0.028
0.152
0.085
0.015
-0.006
-0.004
0.022
-0.014
-0.022
0.074
0.066
-0.004
0.054
0.042
0.015
0.015
0.016
0.056
0.063
0.082
0.032
0.012
-0.059
0.012
-0.004
0.059
0.030
0.112
0.058
0.044
-0.001
0.041
-0.011
-0.056
0.066
0.111
0.175
0.018
0.032
-0.022
0.071
0.060
-0.370
-0.089
0.477
1.537
0.105
-1.942
-0.633
0.388
0.753
0.433
0.045
-0.067
-0.121
-0.122
-0.096
0.005
-0.054
0.005
0.018
0.007
0.112
0.005
0.061
0.039
0.041
0.050
0.011
-0.031
-0.092
-0.133
0.131
0.265
0.189
0.050
-0.110
-0.055
-0.058
-0.033
0.084
0.034
0.081
0.021
0.051
0.078
0.045
-0.039
-0.042
0.057
0.038
-0.016
-0.070
-0.071
0.004
0.088
0.129
0.085
0.099
0.048
-0.115
-0.022
0.007
0.081
0.057
-0.078
-0.045
0.068
0.138
0.200
0.565
0.098
-0.833
-0.456
0.192
0.311
0.130
0.090
0.061
0.037
-0.042
0.022
-0.093
-0.038
-0.039
-0.008
0.062
0.100
0.095
0.121
1.023
0.394
-1.658
-1.076
0.336
0.846
0.574
0.062
-0.157
-0.024
-0.082
-0.491
-0.126
0.282
0.453
0.229
-0.021
-0.065
-0.052
0.056
0.150
0.030
0.005
0.008
-0.019
0.036
-0.014
-0.072
-0.067
0.033
0.062
0.110
0.094
-0.023
0.018
-0.050
0.045
-0.024
0.094
0.051
-0.018
0.087
0.130
0.020
0.015
0.037
-0.010
0.027
0.028
0.136
0.029
-0.034
0.026
0.021
0.088
0.054
-0.047
0.081
0.003
0.002
0.113
0.049
0.018
0.016
-0.084
-0.085
-0.026
0.074
0.035
0.159
0.075
0.055
0.031
-0.029
0.070
-0.125
-0.036
0.163
0.086
0.091
0.164
-0.054
0.039
1.223
-0.092
-1.786
-0.610
0.530
0.970
0.504
-0.058
-0.169
-0.174
-0.259
-0.131
-0.021
0.065
0.201
0.221
0.153
0.003
0.054
0.029
0.036
0.007
0.023
0.054
0.044
0.164
0.127
-0.476
-0.114
0.330
0.339
0.099
0.002
-0.091
-0.080
0.008
0.031
0.070
0.097
0.063
0.077
0.026
0.007
0.052
-0.020
0.012
0.022
0.026
0.082
-0.014
-0.072
-0.036
0.195
0.134
0.054
-0.069
-0.048
-0.035
0.003
0.011
0.038
-0.011
0.028
0.084
0.011
0.041
0.005
0.075
0.015
0.030
0.016
-0.021
0.017
0.058
0.107
0.014
0.042
0.150
0.092
-0.023
0.029
0.009
0.047
0.029
-0.006
-0.002
0.015
0.094
0.022
0.078
-0.026
1.076
0.367
-1.806
-0.994
0.319
0.766
0.619
0.014
-0.024
-0.084
-0.120
-0.131
-0.103
0.072
0.342
0.222
0.022
0.058
0.032
0.059
0.172
-0.206
-0.194
0.313
0.364
0.145
-0.187
-0.451
0.024
0.713
-0.210
-0.684
-0.097
0.269
0.233
0.273
0.205
-0.146
-0.098
-0.001
-0.008
-0.018
0.017
0.055
-0.018
-0.028
0.067
0.085
0.051
0.025
0.089
0.137
0.005
0.042
0.007
0.023
0.009
0.068
0.018
0.028
-0.012
-0.043
-0.024
0.051
0.103
0.020
0.016
0.019
0.043
0.048
0.039
0.103
0.036
-0.011
-0.008
0.030
-0.008
0.017
-0.020
-0.019
-0.001
0.074
0.057
0.071
-0.083
0.060
-0.030
0.157
1.252
-0.284
-1.835
-0.394
0.473
0.811
0.520
0.081
-0.095
-0.211
-0.253
-0.096
-0.014
0.180
0.110
0.085
0.067
0.053
-0.002
0.108
0.108
0.016
0.001
-0.029
0.028
0.030
-0.017
0.061
-0.119
-0.034
0.163
0.010
-0.385
-0.120
0.376
0.337
-0.013
-0.130
-0.058
0.002
0.049
0.105
0.042
0.029
0.077
0.117
0.102
0.143
0.003
-0.058
-0.010
0.005
0.000
0.105
0.026
-0.012
0.067
-0.021
0.007
-0.025
-0.044
0.029
0.088
0.033
0.005
-0.071
-0.131
0.055
0.118
0.011
0.054
0.003
0.042
-0.113
-0.097
0.115
0.177
0.253
0.065
0.027
-0.087
-0.032
-0.014
0.112
0.604
1.094
-1.114
-1.642
0.044
0.616
0.600
0.354
-0.038
-0.188
-0.185
-0.185
-0.076
-0.017
0.040
0.232
0.181
0.023
0.008
0.027
-0.005
0.062
0.046
-0.006
-0.001
-0.018
0.025
-0.003
0.033
-0.005
0.074
-0.040
0.098
0.196
0.017
-0.355
-0.012
0.309
0.326
0.054
-0.151
-0.098
-0.048
0.041
0.028
0.046
0.057
0.070
0.060
0.008
-0.058
0.033
0.043
0.102
0.069
-0.098
0.025
0.003
0.037
0.099
0.122
-0.016
0.034
0.088
0.031
0.056
0.053
0.002
-0.064
-0.059
-0.035
0.053
0.104
0.192
-0.002
0.006
-0.022
0.012
0.021
-0.200
0.016
0.139
0.291
0.205
0.031
-0.110
-0.065
-0.064
-0.079
0.005
0.182
0.068
0.025
0.028
0.054
0.103
0.122
1.050
0.286
-1.809
-1.104
0.387
0.892
0.611
0.273
-0.070
-0.142
-0.223
-0.150
-0.082
-0.082
-0.088
0.408
0.824
0.027
-0.547
-0.033
0.211
0.068
0.065
-0.078
-0.077
0.125
0.132
-0.465
-0.080
0.236
0.328
0.035
-0.104
-0.099
-0.107
-0.023
0.092
0.054
0.131
0.004
0.070
0.102
0.048
-0.036
-0.003
-0.002
-0.018
0.119
-0.041
0.083
0.069
-0.007
0.001
-0.019
0.010
0.029
0.046
0.100
0.039
-0.009
-0.005
0.056
0.046
0.014
0.112
-0.017
0.071
0.034
0.049
-0.107
-0.001
0.091
0.043
0.097
0.052
0.022
0.033
0.030
0.002
0.101
-0.027
0.037
0.090
0.012
0.047
0.068
0.051
-0.022
-0.011
0.047
0.007
-0.027
-0.013
-0.025
0.710
0.985
-1.269
-1.521
0.092
0.643
0.757
0.426
-0.040
-0.176
-0.192
-0.214
-0.059
0.090
0.138
0.166
0.151
0.137
0.066
-0.002
0.036
0.134
-0.037
0.002
0.025
0.058
-0.010
-0.041
0.069
-0.042
0.031
0.077
-0.013
0.102
0.182
-0.032
-0.438
0.039
0.353
0.392
0.046
-0.141
-0.117
-0.124
0.007
0.085
0.100
0.071
0.074
-0.062
0.040
0.007
0.012
0.042
-0.035
-0.036
0.036
0.019
-0.012
0.035
0.036
0.108
-0.006
-0.091
-0.002
0.116
0.229
0.221
-0.064
-0.128
-0.149
0.004
0.103
0.049
0.165
0.028
0.059
-0.134
-0.019
0.050
0.108
-0.050
-0.032
-0.088
0.089
0.015
0.608
0.997
-1.264
-1.425
0.161
0.612
0.692
0.319
-0.016
-0.107
-0.180
-0.118
-0.089
0.012
0.037
0.060
0.102
0.146
0.127
0.072
0.019
0.042
0.006
0.010
0.022
0.048
0.493
0.182
-0.662
-0.541
0.140
0.156
0.115
0.219
0.073
-0.093
-0.029
-0.041
0.008
-0.081
0.021
0.046
0.148
0.114
0.074
0.093
0.057
0.157
0.052
-0.002
0.013
-0.035
0.014
0.017
0.007
0.073
0.113
-0.453
-0.117
0.399
0.338
0.129
-0.161
-0.091
-0.012
-0.034
0.025
0.058
0.087
0.107
0.052
0.038
0.056
0.043
-0.001
0.022
-0.043
0.089
0.073
-0.046
0.043
-0.075
0.045
-0.002
0.034
-0.073
0.011
0.033
-0.036
0.010
0.095
0.308
1.276
-0.553
-1.780
-0.363
0.520
0.839
0.431
0.065
-0.100
-0.189
-0.105
-0.063
-0.089
0.070
0.042
0.131
0.141
0.195
0.035
0.088
0.103
0.026
-0.040
0.001
0.064
0.036
-0.049
-0.040
0.047
-0.064
0.000
-0.001
0.074
-0.099
-0.076
0.063
0.288
0.067
0.073
0.026
-0.088
-0.017
0.028
0.031
0.040
-0.023
0.040
0.124
0.031
0.111
0.029
-0.129
-0.075
0.021
0.008
-0.080
0.034
0.015
0.080
0.105
0.044
-0.035
0.030
0.027
0.052
0.035
0.035
0.047
0.008
0.000
0.070
0.076
0.185
-0.304
-0.250
0.193
0.343
0.188
0.496
0.919
-1.318
-1.666
0.082
0.776
0.733
0.319
-0.052
-0.079
-0.171
-0.241
-0.135
-0.057
0.040
0.127
0.117
0.186
0.115
-0.006
0.044
-0.011
0.025
-0.002
-0.043
0.104
0.012
0.064
-0.012
-0.016
-0.054
0.040
-0.034
0.047
0.064
0.031
0.069
-0.009
-0.045
-0.036
0.008
0.062
-0.001
0.049
0.058
-0.007
-0.047
0.004
0.028
0.068
0.147
0.108
0.058
0.007
-0.007
0.003
0.101
0.073
-0.000
0.045
-0.019
0.000
-0.076
-0.001
0.048
0.199
0.708
-0.186
-0.727
-0.183
0.223
0.166
0.236
0.213
0.120
-0.077
-0.077
-0.106
0.004
0.005
0.102
0.159
0.036
0.107
0.156
0.107
0.053
0.027
-0.013
0.035
0.294
1.059
-0.416
-1.676
-0.453
0.572
1.010
0.338
-0.407
-0.229
0.104
0.108
0.030
-0.188
-0.064
0.059
0.076
0.102
0.167
0.069
0.140
0.083
0.091
-0.062
-0.055
-0.025
0.002
0.034
-0.008
-0.063
0.063
0.083
0.127
0.096
0.018
-0.050
0.044
-0.031
0.124
0.053
0.084
0.106
0.030
0.034
0.018
0.039
0.044
0.003
0.052
0.089
0.027
-0.004
-0.039
-0.019
0.026
0.040
-0.028
-0.024
0.025
0.024
0.085
-0.021
-0.068
-0.023
0.031
0.028
0.051
0.036
0.086
-0.051
0.013
-0.003
0.064
0.017
0.001
-0.008
0.068
0.146
0.095
0.041
-0.015
-0.051
-0.210
0.082
0.235
0.233
0.118
-0.026
-0.080
-0.072
-0.029
-0.012
0.062
0.075
0.095
0.074
-0.010
-0.046
-0.015
0.078
0.046
-0.032
0.451
1.139
-1.005
-1.560
0.060
0.543
0.823
0.496
-0.247
-0.572
-0.089
0.186
0.182
-0.001
-0.098
0.019
-0.033
0.129
0.151
0.154
0.116
0.121
-0.061
-0.075
-0.013
0.078
0.081
0.024
-0.027
0.058
0.027
-0.028
-0.001
0.039
0.050
0.105
0.030
0.046
0.019
0.003
-0.004
-0.009
0.019
0.036
0.132
0.121
0.011
-0.095
-0.130
-0.011
0.084
0.171
0.051
-0.030
0.113
0.022
0.058
-0.148
-0.003
0.038
0.192
0.117
-0.037
0.022
-0.041
-0.067
0.082
0.080
0.112
0.083
0.033
0.064
0.004
-0.056
0.025
0.268
0.582
-0.323
-0.883
-0.143
0.256
0.125
0.227
0.176
0.071
-0.117
-0.149
-0.010
1.080
0.199
-1.699
-0.765
0.453
0.906
0.620
0.074
-0.183
-0.202
-0.197
-0.074
-0.088
0.033
-0.009
0.093
0.114
0.086
0.105
0.122
0.216
-0.028
-0.503
0.061
0.290
0.287
0.131
-0.095
-0.164
-0.072
-0.074
0.063
0.188
0.126
-0.025
