-0.060
-0.055
0.066
0.062
0.060
0.057
0.041
0.140
0.089
0.021
0.034
-0.080
-0.042
-0.057
-0.033
0.146
0.127
0.010
-0.095
-0.027
-0.014
0.068
0.100
0.020
-0.081
-0.007
0.093
0.079
-0.040
-0.008
0.143
0.204
-0.233
-0.288
0.026
0.099
0.139
0.048
-0.026
0.069
-0.039
0.022
0.013
-0.028
0.003
0.146
0.114
0.028
-0.019
0.073
0.065
0.011
0.063
-0.029
0.036
0.079
0.093
0.029
0.062
0.051
0.083
0.035
-0.036
-0.012
0.001
0.082
0.025
0.042
-0.049
0.012
-0.031
0.108
0.125
0.100
0.035
-0.028
-0.075
0.085
0.066
0.008
0.069
0.038
-0.006
-0.017
-0.003
0.043
0.059
-0.025
0.004
0.097
0.067
-0.004
0.074
0.013
0.069
-0.005
-0.012
0.047
0.052
0.015
0.034
0.015
0.022
-0.045
0.038
0.050
0.148
0.087
0.024
0.041
0.013
-0.042
0.052
0.041
0.088
0.047
0.023
-0.046
0.058
0.095
0.118
0.079
0.028
0.451
0.526
-1.027
-0.823
0.272
0.577
0.480
0.171
-0.074
-0.186
-0.183
-0.089
0.090
-0.008
0.054
0.094
0.222
0.142
0.072
0.032
-0.009
0.066
0.052
-0.020
0.007
0.007
-0.025
0.008
0.043
0.044
0.075
0.026
-0.049
0.020
0.074
-0.023
0.010
0.141
0.060
0.043
0.027
0.052
0.006
0.021
0.062
0.066
0.004
-0.005
0.044
0.081
0.046
0.055
0.021
0.007
-0.046
0.031
0.024
0.011
-0.001
-0.076
0.124
0.148
0.044
0.039
-0.095
0.075
0.180
0.131
-0.228
-0.197
0.019
0.096
0.111
0.002
0.028
0.085
0.057
-0.012
-0.040
-0.023
0.054
0.102
-0.008
0.004
-0.025
0.018
-0.000
0.068
0.044
0.062
-0.007
0.055
0.063
-0.007
-0.002
0.017
-0.016
-0.063
0.055
0.030
0.112
0.030
0.042
-0.025
0.028
0.021
0.112
0.053
-0.063
0.056
0.100
0.001
-0.049
0.050
0.128
0.020
0.059
-0.019
0.037
-0.006
0.037
0.022
0.016
0.025
0.105
-0.012
0.045
-0.044
0.110
0.884
-0.321
-1.413
-0.200
0.596
0.764
0.250
-0.031
-0.232
-0.229
-0.093
0.031
0.008
0.050
0.009
0.155
0.105
0.111
0.034
0.006
0.062
0.024
0.018
0.013
0.028
0.093
-0.032
-0.003
0.071
0.033
0.029
0.015
0.031
-0.009
-0.018
0.085
0.005
0.049
0.059
0.051
0.079
0.042
0.050
-0.004
0.063
-0.066
-0.026
0.062
0.039
-0.079
-0.004
0.024
-0.030
0.005
0.051
-0.023
0.104
0.063
-0.057
-0.007
0.059
0.043
0.063
-0.051
-0.079
0.035
0.094
0.143
0.077
0.001
0.198
0.009
-0.253
-0.174
0.115
0.179
0.115
0.120
0.058
-0.016
-0.000
-0.056
-0.043
0.092
0.104
0.022
0.098
0.037
0.051
0.020
0.077
0.013
-0.007
-0.005
-0.003
0.037
0.040
0.042
0.076
0.053
0.044
0.022
0.066
0.076
0.049
-0.011
0.041
0.083
0.015
0.005
0.011
0.005
0.039
0.084
0.118
-0.004
-0.022
0.015
0.033
0.045
-0.021
-0.005
0.141
0.018
0.004
-0.047
0.087
0.100
0.084
0.081
0.044
-0.040
0.009
0.012
0.021
0.589
0.456
-1.225
-0.720
0.315
0.771
0.475
0.055
-0.204
-0.193
-0.067
-0.030
0.131
-0.055
0.004
0.110
0.059
0.059
0.143
0.056
0.020
-0.018
-0.039
0.062
0.032
-0.055
0.026
0.035
0.101
0.061
-0.018
0.019
0.014
-0.013
-0.045
-0.030
0.074
0.077
0.052
-0.005
0.051
0.032
-0.026
-0.034
0.055
0.054
0.049
-0.026
-0.095
-0.008
0.110
0.106
0.034
0.025
0.000
-0.031
0.038
0.118
-0.023
0.007
0.097
0.024
0.020
0.035
-0.009
0.098
0.046
0.000
-0.017
0.067
0.138
0.083
-0.035
-0.018
0.115
0.246
-0.179
-0.292
-0.129
0.148
0.267
0.091
0.035
0.004
-0.009
-0.004
0.018
0.051
0.107
0.085
-0.015
-0.044
0.020
0.015
0.071
0.102
0.004
0.025
0.042
-0.001
0.038
0.015
0.109
0.000
0.104
0.108
0.044
-0.025
-0.033
0.083
0.010
0.030
0.012
0.001
0.094
0.039
0.060
0.002
0.015
-0.068
0.042
-0.013
-0.016
0.036
0.038
0.062
0.001
0.055
-0.002
0.060
0.005
-0.020
0.022
0.097
0.038
0.010
-0.001
0.074
0.007
-0.001
0.022
0.047
0.085
0.046
0.095
0.812
-0.293
-1.280
-0.325
0.569
0.754
0.308
-0.107
-0.199
-0.184
-0.104
-0.024
0.014
0.062
0.039
0.111
0.128
0.125
0.053
-0.004
0.046
-0.017
0.023
0.071
0.021
-0.061
0.010
0.036
0.021
-0.045
-0.011
0.094
0.020
0.115
0.044
0.047
-0.144
-0.058
0.090
0.092
0.033
0.070
0.026
0.079
-0.007
0.009
0.094
0.049
0.068
0.084
0.069
0.009
0.028
0.082
-0.039
0.044
0.034
0.018
-0.005
0.037
-0.013
-0.027
0.084
0.020
0.097
0.010
0.037
0.021
0.013
0.042
0.108
0.039
0.004
0.088
0.007
0.051
0.122
-0.013
0.051
-0.050
0.051
0.025
-0.036
0.072
0.258
0.101
-0.228
-0.286
0.099
0.184
0.137
0.038
0.022
-0.041
-0.053
0.036
0.062
0.076
-0.010
0.029
0.244
0.006
-0.302
-0.052
0.212
0.175
-0.120
-0.117
0.133
0.179
0.010
-0.087
-0.064
0.070
0.044
0.602
0.531
-1.095
-0.978
0.216
0.770
0.445
0.100
-0.128
-0.223
-0.108
-0.009
0.037
-0.067
0.034
0.148
0.067
0.030
0.141
0.015
-0.004
-0.014
0.064
-0.012
0.026
0.016
0.015
-0.001
0.074
0.053
-0.033
-0.081
0.003
0.082
0.074
0.077
-0.003
-0.016
-0.015
0.003
-0.017
0.109
0.047
0.042
0.072
-0.036
0.085
0.012
0.014
0.013
0.032
0.119
0.046
-0.006
0.047
0.024
0.041
0.085
0.027
0.024
0.032
0.071
-0.065
0.036
0.027
0.119
0.031
-0.022
-0.028
0.066
-0.028
0.043
0.101
0.033
0.095
0.031
-0.028
0.015
0.008
0.039
-0.028
-0.001
0.045
0.108
0.104
-0.033
-0.012
0.012
0.079
0.045
0.057
0.065
0.120
0.037
0.018
-0.091
-0.019
0.038
0.039
0.063
0.024
0.013
0.100
0.013
0.046
-0.023
0.081
-0.017
-0.029
-0.070
0.037
0.025
0.084
0.045
0.015
-0.031
0.049
0.086
0.063
0.010
-0.040
-0.059
0.045
0.038
0.076
0.019
-0.042
0.035
-0.011
0.003
0.006
0.013
0.092
0.044
0.060
0.006
-0.037
0.026
0.025
0.061
0.002
-0.054
0.053
-0.030
0.095
0.178
0.036
0.023
-0.015
-0.018
0.020
-0.007
-0.008
0.051
0.024
0.139
1.049
-0.453
-1.598
-0.350
0.652
0.841
0.320
-0.030
-0.185
-0.116
-0.146
-0.089
0.081
0.026
0.037
0.096
0.157
0.141
0.101
0.008
0.010
0.010
-0.008
-0.009
-0.011
-0.052
-0.039
0.055
0.052
0.022
0.001
0.031
0.011
-0.029
0.069
0.062
0.101
-0.009
0.034
0.017
0.003
0.029
0.023
-0.025
-0.019
0.043
0.111
0.066
-0.013
0.019
-0.004
-0.023
0.106
-0.006
-0.018
-0.065
0.073
-0.019
-0.003
0.042
0.058
0.103
0.061
-0.057
-0.010
0.007
0.179
-0.009
-0.020
-0.051
0.005
-0.030
-0.008
0.052
0.036
0.061
0.124
-0.011
-0.007
0.066
0.047
0.014
-0.021
-0.024
0.036
0.044
0.041
0.049
-0.024
0.011
0.064
0.042
0.024
0.055
-0.020
0.063
0.105
0.074
0.030
-0.017
0.060
0.024
-0.015
0.034
0.024
0.005
0.029
0.073
-0.039
0.060
0.005
0.002
0.076
0.067
0.004
-0.037
0.106
0.055
0.075
-0.011
-0.018
0.020
0.067
0.055
0.048
0.012
0.098
0.040
-0.003
-0.014
0.120
0.187
0.005
-0.287
-0.166
0.161
0.830
0.516
-1.206
-0.664
0.265
0.620
0.402
0.070
-0.132
-0.180
-0.122
0.008
0.036
-0.007
0.119
0.116
0.067
0.054
0.099
0.003
0.056
0.016
0.022
-0.103
0.035
0.138
-0.026
0.013
0.021
-0.014
0.093
0.049
-0.038
-0.023
0.021
0.083
0.095
0.014
0.028
0.049
-0.026
-0.015
0.087
0.008
0.003
0.005
-0.007
0.073
-0.006
0.102
0.061
-0.030
-0.017
0.018
0.054
0.066
0.056
0.052
0.024
0.036
0.016
0.073
0.032
-0.016
0.041
0.065
0.057
-0.057
0.065
0.011
0.085
0.044
-0.044
0.077
0.052
0.023
0.074
-0.034
-0.009
0.078
0.108
0.022
0.032
-0.015
0.121
-0.009
0.065
-0.008
0.064
-0.039
0.002
0.050
0.060
0.014
0.006
0.008
0.101
0.057
0.094
0.023
0.060
0.023
-0.062
0.031
0.162
0.004
-0.009
0.010
-0.035
0.113
0.103
0.054
-0.035
-0.025
0.007
0.019
0.068
0.038
0.008
0.083
0.011
0.074
-0.041
0.136
0.028
0.068
0.023
0.028
-0.039
0.012
0.075
0.039
0.030
-0.000
0.011
-0.003
-0.003
-0.000
0.071
0.034
0.023
0.115
0.043
0.086
-0.018
0.047
-0.054
0.059
-0.015
0.012
0.039
0.006
0.025
0.021
0.116
0.018
-0.003
0.062
0.069
0.041
0.056
-0.000
0.053
-0.004
0.065
0.064
0.038
0.069
-0.003
0.080
0.036
0.068
0.071
-0.016
0.001
0.070
-0.010
0.010
0.032
0.047
-0.001
0.094
0.024
0.066
0.033
0.016
-0.014
0.032
0.040
0.037
-0.032
0.097
0.029
0.061
0.008
0.076
0.065
0.096
-0.031
0.031
0.070
0.097
0.006
0.780
0.042
-1.321
-0.552
0.575
0.716
0.365
-0.025
-0.154
-0.175
-0.051
-0.023
0.078
0.003
0.050
0.087
0.133
0.046
0.223
0.145
-0.106
-0.232
0.028
0.180
0.041
0.087
-0.007
0.066
-0.041
0.002
-0.028
0.031
-0.002
-0.008
0.084
-0.028
0.105
0.118
0.034
-0.021
0.052
0.023
0.004
-0.021
0.024
0.046
-0.002
0.121
-0.010
0.045
-0.049
0.099
0.041
0.019
-0.014
0.021
0.051
0.034
0.003
0.042
0.041
0.024
0.034
0.068
-0.026
0.029
0.069
0.064
0.051
-0.043
-0.010
0.033
-0.031
0.094
0.054
0.049
0.076
-0.004
-0.020
0.034
0.031
-0.086
0.072
0.117
0.000
0.006
0.048
0.048
0.063
-0.029
-0.034
-0.002
0.038
-0.008
0.119
0.040
0.106
-0.023
0.028
0.016
0.001
0.092
0.023
0.048
0.088
-0.010
-0.008
0.007
0.058
0.024
0.106
0.001
0.011
0.047
-0.013
-0.036
0.026
0.062
0.015
0.002
0.046
0.052
0.073
0.036
0.039
-0.062
0.060
0.066
0.074
-0.056
-0.026
0.004
0.058
-0.024
0.085
0.132
0.026
0.027
0.030
-0.004
0.039
-0.005
-0.019
0.024
0.232
0.805
-0.490
-1.225
-0.173
0.659
0.759
0.230
-0.196
-0.133
-0.079
0.023
-0.002
0.010
0.008
0.024
0.121
0.112
0.026
0.058
0.052
0.121
0.028
-0.000
-0.011
0.109
-0.009
0.004
-0.042
0.085
-0.025
0.002
-0.037
0.051
0.026
0.088
0.047
0.083
0.005
-0.070
-0.022
0.039
0.012
0.104
0.052
-0.023
-0.014
-0.018
-0.030
0.025
0.189
0.053
0.048
-0.048
0.119
0.056
0.055
0.009
0.007
-0.031
0.098
0.018
0.051
0.043
0.027
0.016
0.025
0.083
0.060
0.017
0.067
0.063
0.041
0.013
0.069
-0.053
0.028
0.055
-0.020
0.004
0.057
-0.006
0.078
0.047
0.006
0.059
0.027
0.071
-0.034
-0.059
0.046
0.024
0.020
0.008
0.035
0.065
0.010
0.035
-0.026
0.113
0.061
0.072
0.047
-0.064
-0.002
0.094
0.039
0.112
-0.038
-0.006
0.031
0.013
0.078
-0.006
-0.031
0.116
0.037
0.043
0.002
-0.051
0.040
0.047
-0.014
0.039
0.063
0.001
0.061
0.014
0.097
0.031
0.099
0.050
0.015
0.002
0.043
-0.017
-0.037
-0.049
0.111
0.086
0.045
0.062
0.017
-0.023
0.126
0.009
-0.013
-0.042
-0.081
0.044
0.072
0.103
0.075
0.024
0.006
0.027
-0.041
0.096
0.020
0.053
-0.001
-0.005
0.104
0.123
0.168
0.686
0.054
-1.262
-0.479
0.380
0.795
0.409
-0.077
-0.122
-0.190
-0.094
-0.099
-0.005
0.071
0.278
0.221
-0.095
-0.266
0.057
0.214
0.155
0.037
-0.027
-0.075
-0.050
0.023
0.023
0.092
0.081
0.081
0.057
0.039
0.025
0.053
0.045
0.069
-0.005
0.001
0.107
-0.004
0.039
-0.016
0.085
0.064
0.077
-0.032
0.025
0.048
-0.023
0.010
0.055
0.041
0.058
0.020
0.028
0.025
-0.007
-0.025
0.071
0.080
-0.047
-0.028
0.049
0.115
0.002
0.120
-0.014
-0.010
0.041
0.081
0.022
-0.018
0.031
0.096
0.013
0.013
0.041
0.007
-0.017
0.020
-0.048
0.035
0.061
0.029
0.063
0.014
0.022
0.059
-0.010
-0.073
0.072
0.056
0.033
0.031
0.019
0.003
0.016
0.096
-0.002
-0.006
0.075
0.095
0.056
0.009
-0.009
0.012
-0.030
0.011
0.005
0.025
-0.032
0.114
0.024
0.070
0.001
0.041
0.049
0.083
0.043
0.005
-0.070
0.033
0.142
0.027
0.004
0.063
-0.077
0.025
0.001
0.072
0.048
0.119
0.072
0.052
-0.101
0.064
-0.026
0.038
0.055
0.096
0.057
-0.001
-0.021
-0.061
0.056
0.056
0.104
0.006
-0.019
0.043
0.181
0.858
-0.486
-1.240
-0.143
0.686
0.678
0.239
-0.182
-0.107
-0.183
-0.134
0.020
0.079
0.006
0.123
0.097
0.118
0.063
0.052
0.067
0.073
-0.052
0.013
-0.015
0.054
-0.026
0.013
0.044
0.091
0.061
0.030
0.042
-0.021
0.059
0.037
0.019
0.003
0.056
0.022
0.075
0.008
0.037
0.040
0.016
0.119
-0.004
-0.017
-0.021
-0.026
-0.014
0.073
0.025
0.054
-0.055
0.071
-0.010
0.091
0.097
-0.016
-0.015
0.005
0.010
0.040
-0.043
0.005
0.030
-0.013
0.067
0.092
-0.017
-0.056
0.002
0.018
0.008
0.039
-0.024
-0.008
0.000
0.024
0.033
0.069
0.056
0.071
0.037
0.022
-0.032
0.023
-0.003
0.053
0.025
-0.057
0.052
-0.012
0.099
0.007
0.032
-0.017
0.049
0.040
0.065
-0.045
-0.042
0.002
0.057
0.033
-0.022
0.084
0.089
0.049
0.039
0.033
0.035
0.078
0.002
-0.047
-0.082
-0.041
0.011
0.093
0.076
0.098
0.033
0.046
0.041
-0.080
-0.057
0.002
0.014
0.068
0.007
0.027
0.092
0.021
-0.008
0.140
0.073
-0.008
0.015
0.020
-0.018
0.005
-0.066
0.081
0.029
0.087
0.096
-0.002
0.073
0.082
0.059
-0.032
0.004
0.024
0.450
0.568
-1.050
-0.879
0.204
0.756
0.719
0.008
-0.450
-0.347
-0.028
0.073
0.097
0.032
0.005
0.110
0.186
0.106
0.010
0.011
0.036
0.055
0.100
0.075
0.082
0.076
-0.022
-0.003
-0.103
-0.021
0.009
-0.020
0.070
0.102
0.052
-0.043
-0.002
0.012
0.086
-0.019
0.066
-0.024
0.063
0.042
0.001
-0.002
0.009
0.058
0.048
0.039
-0.041
0.002
0.054
0.026
-0.058
0.009
0.043
0.080
0.081
-0.038
-0.039
0.107
0.044
-0.027
0.110
0.103
-0.029
-0.026
-0.036
0.056
0.024
0.069
0.067
0.068
0.004
0.052
0.009
0.050
0.051
0.055
0.002
0.008
-0.033
0.005
0.060
0.145
0.097
0.054
0.045
0.044
-0.049
-0.021
-0.010
0.025
-0.007
0.092
0.038
0.047
0.111
0.138
0.002
0.052
0.723
0.145
-1.395
-0.594
0.347
0.721
0.468
0.095
-0.199
-0.122
-0.101
-0.031
-0.014
0.069
0.059
0.123
0.083
0.119
0.000
0.075
-0.045
0.082
0.020
0.038
0.006
-0.004
0.024
0.042
-0.001
0.021
-0.002
0.024
-0.016
0.033
0.076
-0.024
0.070
-0.005
0.080
0.094
0.047
0.015
0.011
0.055
0.004
-0.007
-0.014
-0.033
0.112
0.040
0.021
0.113
0.021
0.031
0.022
0.031
0.057
0.056
0.064
0.135
-0.124
-0.329
-0.110
0.207
0.230
0.166
0.007
-0.046
-0.032
0.017
0.017
-0.005
-0.031
-0.055
-0.018
0.076
0.027
0.071
0.312
0.007
-0.315
-0.042
0.207
0.110
-0.097
-0.192
0.138
0.104
0.068
-0.004
-0.009
0.013
-0.004
0.162
0.031
0.038
-0.042
-0.013
-0.001
0.046
0.007
0.027
0.004
0.111
0.024
0.060
-0.035
0.060
0.505
0.656
-1.151
-0.945
0.274
0.777
0.481
0.183
-0.103
-0.104
-0.130
-0.065
0.010
-0.004
0.081
0.111
0.055
0.090
0.089
0.043
-0.005
0.048
0.107
0.042
-0.028
-0.010
-0.052
0.047
0.031
-0.035
0.067
0.041
0.046
0.049
0.010
0.069
0.044
-0.024
0.045
0.072
0.025
0.009
-0.012
0.075
0.029
0.030
0.027
0.098
0.067
0.009
0.072
0.080
0.002
0.002
-0.031
0.104
0.132
0.048
0.066
0.053
-0.019
0.130
-0.004
0.016
-0.006
0.097
0.095
0.042
-0.004
-0.005
-0.036
0.094
0.081
-0.021
-0.014
0.066
0.078
0.033
0.055
0.046
0.053
0.165
0.014
0.013
-0.009
0.035
0.072
0.070
0.027
-0.070
-0.038
0.042
0.076
-0.021
0.096
0.053
0.063
0.053
-0.064
-0.022
0.040
0.059
-0.009
-0.011
0.041
0.109
0.096
0.026
-0.118
-0.048
0.092
0.124
0.037
-0.003
0.071
0.066
0.076
-0.010
-0.012
0.038
0.039
0.057
0.082
0.042
-0.011
0.119
0.852
-0.119
-1.286
-0.398
0.443
0.785
0.329
-0.002
-0.230
-0.180
-0.148
0.022
0.163
0.234
0.058
-0.204
-0.060
0.217
0.200
0.077
0.064
-0.098
0.049
0.049
0.004
0.014
-0.018
0.019
0.008
0.015
0.015
0.075
0.126
0.047
0.017
-0.029
0.001
-0.042
0.126
0.226
-0.316
-0.105
0.288
0.133
-0.071
-0.086
0.091
0.114
0.124
0.014
0.093
-0.021
-0.016
0.057
0.037
0.021
0.022
0.021
0.055
0.077
0.041
-0.023
0.089
0.060
0.033
0.130
0.085
0.013
0.020
-0.029
0.081
0.044
0.092
-0.084
-0.009
-0.052
0.104
0.066
0.036
0.045
0.056
0.009
-0.047
0.121
0.021
0.030
-0.011
0.042
0.097
0.015
0.031
-0.013
0.048
0.009
0.139
-0.028
0.078
0.011
-0.041
0.041
0.049
0.017
0.065
0.054
0.047
0.147
0.855
-0.541
-1.373
-0.214
0.624
0.719
0.224
-0.066
-0.166
-0.165
-0.077
0.026
0.069
0.045
0.027
0.060
0.118
0.099
0.027
-0.003
0.127
-0.020
0.000
0.030
0.107
0.001
-0.002
0.007
0.018
-0.007
-0.007
-0.020
0.027
0.015
0.080
0.114
0.245
0.122
-0.262
-0.180
0.102
0.114
0.026
0.075
-0.014
-0.076
-0.047
0.001
0.179
0.009
0.030
0.053
0.065
-0.040
0.074
-0.046
-0.019
0.071
0.050
0.047
0.074
-0.009
0.030
-0.052
0.070
0.016
-0.032
-0.056
0.002
-0.003
0.024
0.022
0.090
0.316
-0.114
-0.197
0.007
0.193
0.145
0.004
-0.091
0.088
0.089
0.031
0.027
-0.032
-0.070
-0.046
0.138
0.061
0.108
0.055
0.026
-0.006
-0.017
0.034
0.038
0.012
-0.042
0.039
0.033
0.598
0.423
-1.049
-0.847
0.258
0.643
0.482
0.076
-0.149
-0.083
-0.113
-0.007
-0.036
-0.026
0.066
0.043
0.106
0.044
0.031
0.044
-0.019
0.015
0.051
-0.038
0.062
0.028
-0.013
0.044
0.012
0.048
0.017
-0.012
0.095
0.054
0.049
0.030
0.022
0.011
0.070
0.130
-0.006
-0.070
-0.007
0.053
0.049
0.020
0.060
-0.026
0.039
0.037
0.034
0.010
0.116
0.116
0.006
-0.056
-0.096
0.043
0.083
0.052
-0.011
0.008
0.074
0.016
-0.013
0.098
0.007
0.047
-0.012
-0.018
0.110
0.070
0.044
-0.001
0.002
0.046
0.085
0.046
0.018
-0.032
0.036
-0.005
0.022
0.004
0.023
0.121
0.081
-0.050
0.054
0.081
0.155
0.166
-0.049
-0.257
-0.101
0.125
0.144
0.080
0.133
0.002
0.065
-0.036
-0.046
0.042
0.057
0.035
-0.033
-0.029
-0.045
0.048
0.089
0.043
0.131
0.019
0.018
0.045
0.025
0.052
0.042
-0.035
0.039
0.033
-0.035
0.082
0.031
0.017
0.153
-0.002
0.137
0.847
-0.117
-1.348
-0.377
0.432
0.660
0.388
0.202
-0.271
-0.538
-0.086
0.283
0.147
-0.186
-0.039
0.254
0.152
0.062
-0.004
-0.051
0.019
0.007
0.023
0.113
0.126
0.102
-0.050
-0.014
0.027
0.086
0.035
0.025
0.007
-0.014
0.042
0.059
-0.015
0.007
0.036
0.033
0.038
0.050
0.065
0.078
0.007
0.071
-0.036
0.032
0.003
0.080
0.031
0.072
0.008
0.031
0.027
0.111
-0.104
-0.003
0.040
0.006
0.059
0.034
0.016
-0.012
0.003
0.052
0.022
0.105
-0.007
-0.017
0.087
0.070
0.061
0.044
0.022
0.043
0.017
0.090
0.043
0.073
0.000
0.000
0.039
0.063
0.098
0.002
-0.044
0.025
0.094
0.058
0.026
-0.052
0.086
0.009
0.037
0.001
0.019
0.114
0.059
0.042
-0.036
0.114
-0.079
0.111
0.215
-0.017
-0.227
-0.132
0.084
0.113
0.138
0.069
0.021
0.453
0.574
-1.137
-0.825
0.289
0.702
0.458
0.169
-0.114
-0.099
-0.113
-0.009
0.044
0.064
0.036
0.103
0.067
0.011
0.122
0.080
0.015
-0.067
-0.012
-0.010
-0.026
0.075
-0.018
0.038
0.044
0.050
-0.012
0.083
-0.010
0.017
0.074
-0.035
-0.046
0.159
0.002
0.053
0.026
0.031
-0.009
-0.004
0.014
0.039
0.061
0.037
0.044
0.037
0.092
0.018
-0.010
0.053
0.015
0.071
-0.049
-0.007
-0.032
0.122
0.026
-0.014
0.019
0.071
0.022
0.047
0.020
0.108
0.069
-0.035
-0.024
0.090
-0.040
-0.025
0.061
0.066
-0.045
0.062
-0.010
0.046
0.037
0.060
-0.059
-0.016
-0.012
0.026
0.058
0.003
0.022
0.084
0.099
-0.013
-0.031
0.090
0.043
0.044
-0.001
-0.021
0.030
-0.026
0.055
0.040
-0.041
0.152
0.067
0.029
0.017
0.089
0.021
0.105
-0.104
-0.065
0.047
0.009
0.049
0.121
0.023
0.035
0.188
1.101
-0.483
-1.692
-0.271
0.753
0.764
0.070
-0.017
-0.002
-0.082
-0.104
-0.120
0.019
0.027
0.110
0.160
0.113
0.093
0.107
-0.044
0.048
0.010
0.125
0.131
-0.066
-0.275
-0.100
0.100
0.173
0.044
0.076
-0.004
-0.069
0.007
0.004
0.008
0.040
0.082
0.031
0.001
0.034
0.039
0.080
-0.008
0.002
0.051
0.006
0.031
0.087
0.046
0.029
-0.005
0.012
0.058
0.046
0.083
-0.024
-0.045
0.022
0.081
0.080
-0.015
0.035
-0.014
0.051
0.064
0.077
-0.043
0.024
0.045
-0.023
0.027
0.013
0.056
-0.003
-0.003
0.098
0.110
0.004
-0.030
0.058
0.041
-0.003
0.035
0.074
0.055
-0.004
0.071
-0.015
0.044
0.024
0.013
0.096
0.063
0.075
-0.064
-0.042
-0.058
0.030
0.052
0.023
0.042
0.080
0.020
0.042
0.043
0.055
0.056
0.054
-0.056
0.065
-0.008
-0.007
0.058
0.079
0.064
0.061
-0.044
0.012
0.547
0.560
-1.095
-0.879
0.175
0.782
0.592
0.072
-0.131
-0.130
-0.156
-0.010
-0.020
0.010
0.120
0.152
0.060
0.086
-0.005
-0.009
0.008
0.095
-0.025
0.069
0.011
0.026
0.004
0.026
0.058
0.118
-0.030
0.004
0.055
0.051
0.037
0.053
-0.041
0.025
0.095
0.035
0.026
0.029
0.048
0.052
0.035
0.000
-0.020
0.045
0.037
0.028
-0.030
-0.017
0.097
-0.001
0.022
0.001
0.161
0.002
-0.040
0.006
0.002
0.055
0.026
-0.097
0.058
0.000
0.048
0.055
0.075
-0.002
-0.023
0.079
-0.000
0.028
0.071
0.007
-0.026
-0.024
0.046
0.057
0.143
0.008
0.024
0.055
0.023
-0.053
0.012
0.047
0.047
0.012
0.024
0.026
-0.041
0.205
-0.047
-0.244
0.058
0.273
0.095
-0.120
-0.117
0.119
0.049
-0.021
-0.060
0.023
0.171
0.208
-0.134
-0.273
-0.044
0.153
0.143
0.053
0.015
0.008
0.073
-0.033
0.069
0.037
-0.020
-0.044
0.028
0.076
0.033
0.100
0.044
-0.014
-0.016
-0.022
0.113
0.018
0.096
0.845
-0.172
-1.387
-0.243
0.498
0.666
0.378
0.015
-0.144
-0.086
-0.072
-0.034
-0.034
-0.093
0.117
0.183
0.057
0.030
0.090
0.060
0.112
0.036
0.004
-0.009
0.016
0.049
0.040
-0.051
0.056
-0.059
0.084
-0.022
0.050
-0.069
0.107
0.085
0.021
0.032
0.055
0.095
0.024
0.033
-0.039
0.142
0.018
-0.030
0.038
0.091
0.091
0.027
0.006
0.018
0.045
0.084
0.022
-0.045
0.000
0.076
0.004
-0.000
0.148
0.047
0.028
0.077
0.071
0.010
0.031
-0.006
0.039
-0.033
0.035
0.038
-0.034
0.045
0.088
0.035
0.035
0.050
-0.010
-0.021
0.077
-0.001
0.073
0.079
0.021
-0.010
0.038
0.030
0.025
0.020
0.056
-0.028
0.011
0.064
0.035
-0.012
0.073
0.036
0.008
0.014
0.029
0.129
0.064
-0.026
-0.058
0.040
0.064
0.041
0.055
0.055
0.271
0.745
-0.774
-1.189
-0.006
0.676
0.548
0.265
-0.089
-0.147
-0.121
-0.033
-0.036
-0.017
0.060
0.016
0.034
0.082
0.007
0.117
0.070
0.065
-0.036
0.088
0.002
0.014
0.018
-0.033
-0.020
0.010
0.019
-0.012
0.046
0.043
0.036
0.015
0.024
0.079
0.101
-0.028
0.014
0.001
0.016
-0.027
-0.009
-0.006
-0.010
0.122
0.052
0.026
0.089
0.138
-0.353
-0.016
0.230
0.188
-0.043
0.071
0.124
-0.178
-0.159
0.020
0.159
0.106
0.044
0.023
0.072
-0.000
0.068
0.013
-0.020
0.016
0.013
0.015
0.023
0.049
0.087
0.012
0.031
-0.001
0.118
-0.016
0.032
-0.004
0.000
0.043
0.103
0.004
0.023
0.032
0.069
0.084
0.009
-0.084
0.086
-0.058
0.002
0.286
0.846
-0.692
-1.146
-0.056
0.668
0.645
0.261
-0.083
-0.317
-0.208
0.005
0.034
0.119
0.140
0.104
0.139
0.054
0.029
0.051
0.072
0.106
0.052
0.071
-0.017
0.019
-0.027
0.047
-0.011
0.063
0.055
0.014
-0.058
0.031
0.034
-0.014
0.026
0.076
0.044
0.052
0.034
-0.014
0.170
0.032
0.021
-0.020
0.119
0.029
-0.011
0.030
0.002
0.068
0.102
0.045
-0.005
0.048
-0.006
0.065
0.026
0.038
0.118
-0.062
-0.013
0.027
0.147
0.069
-0.005
0.019
0.065
0.079
0.015
-0.012
0.091
0.051
0.080
0.014
0.022
-0.060
-0.012
-0.001
0.059
0.061
0.048
0.079
0.022
0.068
0.123
0.168
-0.149
-0.257
0.084
0.159
0.160
0.101
-0.036
0.006
0.017
0.013
-0.008
0.003
0.067
-0.007
0.047
0.028
0.036
-0.013
0.075
0.089
0.091
0.004
0.071
0.511
0.549
-1.009
-0.978
0.206
0.751
0.523
-0.020
-0.196
-0.088
-0.047
-0.024
0.083
0.017
0.015
0.055
0.068
0.075
0.076
0.121
0.083
-0.027
0.005
-0.061
-0.013
0.021
0.087
0.064
0.004
0.106
-0.015
-0.091
0.046
0.123
0.051
-0.036
0.057
0.006
0.064
0.112
0.015
-0.062
-0.024
0.026
0.045
-0.054
0.074
0.064
0.010
-0.041
0.046
0.092
-0.009
0.061
0.064
-0.009
0.088
0.049
0.038
-0.005
0.029
-0.056
-0.003
0.149
0.162
-0.321
-0.126
0.232
0.225
-0.110
-0.105
0.149
0.150
0.050
-0.023
0.011
0.013
0.001
-0.051
-0.005
0.083
0.032
0.060
0.067
0.085
0.127
0.049
-0.037
-0.025
0.023
0.033
0.012
0.034
0.035
-0.035
-0.023
0.091
0.057
0.114
0.050
-0.033
-0.027
-0.036
-0.045
0.075
0.034
0.112
0.035
-0.001
0.021
0.038
0.111
0.453
0.754
-0.950
-1.212
0.089
0.768
0.613
0.232
-0.082
-0.187
-0.167
-0.031
0.058
-0.006
-0.051
0.087
0.124
0.153
0.085
0.209
0.101
-0.285
-0.247
0.094
0.230
0.115
-0.008
-0.077
-0.027
0.034
0.055
-0.041
0.002
0.006
0.039
0.093
0.053
0.010
0.040
-0.017
0.026
0.145
-0.031
-0.003
0.013
-0.019
-0.019
0.049
0.072
0.082
0.100
-0.061
-0.002
-0.002
0.045
0.052
-0.019
0.010
-0.011
0.034
-0.003
0.075
0.099
0.005
-0.012
-0.013
0.072
0.009
0.048
0.085
0.010
0.007
0.023
0.039
-0.007
0.048
0.024
-0.003
0.056
0.036
0.029
0.024
0.079
0.083
0.012
0.015
0.019
0.047
-0.036
-0.037
0.091
0.096
0.058
0.014
0.007
0.069
-0.005
0.091
0.007
-0.047
0.057
-0.023
0.002
0.004
0.092
0.035
0.044
0.124
0.048
0.026
0.032
0.002
0.052
-0.001
0.025
0.001
0.026
0.049
0.037
0.091
0.060
-0.007
0.007
0.000
0.066
0.127
0.002
0.086
-0.053
0.021
0.010
0.002
0.024
0.133
0.016
0.081
0.702
0.154
-1.263
-0.636
0.353
0.825
0.356
-0.031
-0.177
-0.176
-0.049
-0.029
0.021
0.013
0.035
0.130
0.047
0.115
0.032
0.084
0.003
0.021
-0.040
0.007
-0.036
0.048
0.012
0.008
0.023
0.041
0.042
-0.066
0.015
0.017
0.034
-0.006
0.167
0.159
-0.079
-0.194
-0.059
0.086
0.189
0.091
-0.050
-0.013
-0.014
0.117
0.006
-0.001
-0.003
0.035
0.028
0.048
0.025
0.084
0.029
0.022
0.100
0.064
0.027
0.069
0.017
-0.024
0.299
-0.249
-0.188
0.134
0.308
0.080
-0.164
-0.042
0.113
0.070
0.003
-0.050
0.011
-0.006
0.088
0.038
0.114
0.026
-0.027
0.035
0.114
0.007
0.001
0.045
-0.005
0.057
0.052
-0.077
-0.027
0.082
0.126
0.041
0.021
0.018
0.063
0.055
-0.036
0.061
-0.009
0.066
0.488
0.663
-0.945
-1.029
0.154
0.589
0.671
0.171
-0.041
-0.149
-0.174
-0.026
-0.057
0.006
0.047
0.096
0.058
0.173
0.060
0.043
0.087
0.016
0.016
-0.034
-0.025
-0.013
-0.057
0.001
0.013
-0.004
0.027
-0.018
0.068
0.025
0.034
0.075
0.063
-0.004
0.011
0.006
0.073
-0.018
0.107
0.031
-0.003
0.006
0.046
-0.019
0.058
0.022
0.052
-0.004
0.064
-0.034
-0.086
0.071
0.027
0.042
0.034
0.082
0.092
0.076
-0.034
0.038
0.017
-0.027
-0.014
0.056
0.112
0.047
0.020
0.009
0.066
0.031
-0.014
0.041
0.031
0.106
0.073
-0.019
-0.037
0.007
0.082
0.014
0.023
0.115
0.057
-0.003
0.007
0.080
0.018
0.055
0.001
0.067
0.000
0.051
-0.002
0.025
0.003
0.046
0.042
0.094
0.070
-0.021
0.010
-0.037
0.034
0.053
0.007
-0.011
0.094
0.074
0.077
0.105
0.018
-0.008
0.100
0.802
-0.257
-1.115
-0.290
0.319
0.454
0.368
0.147
-0.075
-0.146
-0.065
-0.105
0.024
-0.015
0.048
0.140
0.216
0.096
0.105
0.062
-0.008
0.099
0.007
-0.041
-0.063
0.007
0.032
-0.052
0.003
0.116
0.170
-0.282
-0.160
0.119
0.298
0.004
-0.156
0.103
0.239
0.092
-0.053
-0.091
-0.056
0.025
0.047
0.039
0.015
0.047
0.009
0.097
0.037
0.022
0.044
0.004
0.009
-0.013
0.027
0.083
-0.002
0.018
-0.008
0.037
-0.026
0.035
0.025
0.066
0.083
0.040
0.061
-0.004
0.007
-0.011
0.098
-0.003
0.044
0.029
0.011
0.066
0.010
0.018
0.001
0.027
0.072
0.068
0.106
0.008
-0.002
-0.038
-0.002
-0.034
0.056
0.110
0.077
0.029
0.018
-0.022
0.062
-0.005
0.029
0.045
-0.003
0.004
0.065
0.067
0.131
0.054
-0.006
-0.069
-0.001
0.034
0.009
0.094
0.112
-0.024
0.040
0.009
0.010
0.020
0.016
0.070
0.142
0.893
-0.376
-1.258
-0.259
0.566
0.651
0.308
-0.026
-0.238
-0.184
-0.128
0.061
0.034
0.048
0.059
0.075
0.164
0.099
0.069
0.008
-0.005
0.014
0.053
0.034
0.057
0.046
-0.047
-0.015
0.034
0.058
-0.050
-0.010
-0.030
0.013
0.058
0.077
-0.004
0.007
-0.033
0.003
0.057
0.083
0.057
0.050
0.067
0.024
-0.016
0.042
0.049
0.066
0.034
0.104
0.042
-0.015
0.042
-0.003
0.126
0.231
0.075
-0.308
-0.221
0.074
0.172
0.090
0.001
-0.029
-0.002
-0.026
0.041
-0.004
0.051
-0.005
0.071
0.119
0.010
0.009
0.023
-0.012
0.070
0.046
0.041
0.014
0.156
-0.007
-0.053
0.014
-0.010
0.113
0.128
-0.052
0.056
0.078
0.051
-0.085
-0.060
0.102
0.089
0.023
-0.011
0.025
0.015
0.052
0.001
-0.055
0.026
0.003
0.037
0.126
0.064
-0.007
0.059
0.006
0.647
0.427
-1.141
-0.898
0.327
0.733
0.539
0.014
-0.154
-0.196
-0.078
-0.057
-0.045
0.000
0.126
0.120
0.104
0.070
0.139
0.021
-0.029
0.055
0.139
0.027
-0.005
-0.026
0.050
0.042
-0.015
0.062
0.015
0.087
0.059
-0.003
-0.012
-0.041
0.098
0.047
0.009
0.037
-0.002
0.014
0.083
0.031
0.016
0.107
-0.001
0.001
0.050
0.068
0.073
-0.009
0.045
-0.013
0.026
0.130
0.042
-0.099
0.060
-0.002
-0.024
0.017
0.047
0.066
0.056
-0.003
0.097
0.005
0.023
0.069
0.047
0.007
0.116
0.051
-0.018
0.012
0.033
0.110
0.056
0.082
0.025
0.051
0.067
0.148
0.021
0.023
-0.014
0.014
-0.026
0.137
-0.007
-0.062
-0.006
0.039
0.001
0.040
-0.073
0.062
0.065
0.079
-0.011
-0.044
-0.038
0.031
0.044
0.127
0.101
-0.017
0.015
0.125
0.052
0.284
0.105
-0.231
-0.222
0.050
0.184
0.153
0.024
-0.051
0.080
0.023
0.022
0.033
0.002
-0.039
0.024
0.077
0.073
0.078
0.063
0.061
0.641
0.319
-1.237
-0.735
0.286
0.797
0.412
0.078
-0.091
-0.177
-0.142
0.057
0.022
-0.047
0.009
0.096
0.182
0.162
0.066
0.057
0.020
0.045
0.055
0.067
-0.340
-0.115
0.154
0.233
-0.044
-0.244
0.181
0.162
0.052
0.025
-0.022
-0.010
0.021
-0.008
0.098
0.034
0.146
-0.016
0.033
0.065
0.034
0.047
-0.015
0.044
0.023
0.061
0.089
0.059
0.042
-0.011
0.102
-0.040
-0.009
-0.039
0.015
0.051
0.062
-0.030
0.027
0.056
0.050
0.011
0.049
0.031
0.014
-0.028
-0.030
-0.032
0.057
0.040
0.061
0.018
0.011
0.088
0.059
0.007
-0.032
0.076
-0.007
0.069
0.103
0.077
-0.101
-0.023
0.111
0.111
0.056
0.059
0.079
-0.024
-0.011
-0.106
0.094
0.034
-0.027
0.006
0.087
0.063
0.038
-0.005
-0.026
0.139
0.076
-0.002
0.046
-0.036
0.068
0.055
-0.005
0.017
0.054
0.077
0.016
0.089
0.818
0.375
-1.377
-1.000
0.114
0.892
0.632
0.130
-0.124
-0.197
-0.132
-0.006
0.046
-0.107
0.087
0.147
0.188
0.103
0.024
0.095
0.040
-0.053
-0.006
0.000
0.063
0.027
0.055
0.022
-0.033
0.058
0.086
-0.002
0.043
0.023
-0.016
-0.001
-0.010
0.034
0.054
0.058
0.063
0.085
0.046
0.113
-0.010
0.020
0.033
0.057
-0.094
0.053
0.045
-0.008
0.066
0.059
0.044
0.104
0.010
0.079
0.025
0.062
0.037
0.029
-0.066
0.079
0.025
0.027
0.028
0.079
0.028
0.137
0.094
0.067
-0.051
0.020
-0.088
-0.002
0.007
0.033
0.102
-0.018
-0.018
0.091
0.103
0.026
-0.033
0.006
-0.021
0.165
0.128
0.102
-0.049
-0.015
0.036
0.036
-0.015
0.029
0.056
0.048
0.077
0.053
-0.006
0.014
-0.005
0.032
-0.013
0.091
-0.024
-0.046
0.061
-0.007
0.043
0.092
0.055
-0.028
-0.023
0.063
0.061
-0.063
0.031
0.015
0.099
0.091
0.010
0.010
0.014
0.048
0.631
0.470
-1.174
-0.835
0.239
0.787
0.461
0.008
-0.167
-0.135
-0.119
-0.032
0.019
-0.016
0.051
0.122
0.104
0.089
0.023
-0.044
0.034
0.062
0.041
0.002
0.019
-0.067
0.081
0.022
-0.016
0.041
-0.061
0.059
0.003
0.018
0.002
0.016
0.074
0.004
0.009
0.072
0.030
0.020
0.011
-0.022
0.025
0.025
0.070
-0.044
0.069
-0.010
0.049
0.067
-0.024
-0.049
0.167
0.204
-0.101
-0.267
-0.021
0.151
0.153
0.125
0.083
0.051
-0.018
-0.056
0.037
-0.004
0.071
0.037
0.082
0.069
-0.031
-0.072
-0.059
0.046
0.062
0.056
0.038
0.028
0.121
-0.007
0.103
-0.013
-0.003
0.083
0.032
0.023
-0.006
-0.006
-0.011
0.005
0.050
-0.022
0.041
0.081
0.040
0.013
0.059
-0.010
0.026
-0.004
-0.002
0.010
0.143
0.086
0.064
0.039
0.074
-0.021
0.059
0.023
-0.048
0.003
0.016
-0.015
-0.000
0.088
-0.006
0.122
0.008
-0.002
-0.030
0.024
0.094
0.082
0.070
0.012
0.038
0.011
-0.003
0.026
0.011
0.081
0.088
0.060
0.047
0.034
0.527
0.456
-1.059
-0.969
0.291
0.686
0.586
0.133
-0.175
-0.198
-0.087
-0.053
0.031
0.080
0.062
0.160
0.049
0.025
0.067
0.098
-0.011
-0.029
-0.049
-0.015
0.014
0.055
0.008
0.075
-0.077
0.054
0.057
0.048
0.000
0.004
0.016
-0.005
0.054
0.076
-0.011
0.348
-0.198
-0.199
0.166
0.229
-0.009
-0.167
-0.008
0.235
0.083
0.038
0.105
-0.096
0.023
0.030
0.003
0.071
0.065
0.069
-0.003
-0.003
0.007
0.051
-0.014
0.051
0.037
-0.010
0.034
0.115
-0.028
0.095
0.047
-0.024
-0.017
0.154
0.035
0.059
-0.036
0.004
0.071
-0.009
0.021
0.050
0.054
-0.000
-0.012
0.116
0.031
-0.030
0.002
0.083
0.074
0.055
0.053
0.025
0.039
0.001
0.005
0.066
0.113
0.102
0.023
0.017
0.066
0.506
0.475
-1.192
-0.883
0.281
0.745
0.565
0.002
-0.048
-0.148
-0.155
-0.031
0.007
0.056
0.152
0.138
0.094
0.121
0.064
0.048
0.018
0.094
0.044
0.003
0.125
0.256
-0.061
-0.340
-0.201
0.142
0.186
0.223
0.003
0.023
-0.081
0.082
-0.059
0.018
0.007
0.036
0.018
0.028
0.049
0.019
0.067
-0.014
0.004
0.037
0.059
0.095
0.111
0.054
-0.033
-0.004
0.014
0.006
-0.005
0.113
0.055
0.002
0.018
0.041
-0.007
0.164
0.029
0.034
0.004
-0.009
0.048
0.022
-0.039
-0.027
-0.049
0.057
0.041
0.103
0.041
0.024
0.027
0.051
0.057
0.014
0.043
-0.015
0.021
0.055
-0.030
0.041
0.022
0.107
0.003
0.014
-0.007
-0.008
0.505
0.462
-1.190
-0.842
0.316
0.696
0.514
0.192
-0.157
-0.194
-0.174
-0.016
0.072
-0.003
0.084
0.109
0.057
0.067
0.026
0.088
0.004
0.164
0.011
-0.006
-0.036
0.055
-0.008
0.041
-0.073
-0.008
0.093
0.172
0.064
-0.055
-0.050
0.085
0.047
-0.029
0.066
0.027
0.123
0.047
0.034
-0.007
0.054
-0.021
0.045
0.024
0.107
0.008
-0.002
-0.002
0.056
0.033
0.141
0.054
0.039
-0.022
-0.027
-0.026
0.054
-0.004
0.079
0.174
0.047
-0.260
-0.140
0.124
0.236
0.173
-0.020
0.062
0.071
-0.007
-0.070
-0.120
0.091
0.174
0.088
0.092
0.049
0.025
0.046
0.011
0.016
-0.005
0.008
0.056
0.009
0.020
-0.063
0.082
0.088
0.091
0.060
0.002
-0.022
0.046
0.028
-0.093
-0.003
0.054
0.362
-0.157
-0.227
0.138
0.433
0.110
0.500
-0.014
-1.179
-0.424
0.372
0.622
0.409
0.071
-0.109
-0.162
-0.053
0.050
0.051
0.045
0.047
0.059
0.104
0.008
0.027
0.043
0.022
0.040
0.045
-0.051
0.012
-0.007
0.019
0.009
-0.042
-0.061
0.051
0.063
0.035
0.012
0.050
-0.001
0.046
0.069
0.057
0.014
0.100
0.044
0.012
-0.010
-0.001
0.047
0.055
0.007
-0.061
0.046
0.007
0.053
0.035
0.095
0.037
-0.020
0.039
0.059
-0.031
0.038
0.078
0.036
0.037
0.144
0.072
-0.085
-0.088
0.038
0.099
0.100
0.027
-0.010
-0.060
-0.020
0.022
0.007
0.020
-0.057
0.042
0.016
-0.066
0.007
0.089
0.108
0.002
0.017
0.080
-0.024
0.015
-0.011
0.092
-0.013
-0.028
-0.022
-0.050
0.152
0.100
-0.013
0.040
-0.013
0.049
0.043
0.060
0.050
-0.002
-0.047
0.039
0.116
0.658
0.358
-1.096
-0.871
0.285
0.759
0.516
0.132
-0.237
-0.120
-0.174
-0.001
0.000
0.031
0.069
0.111
0.109
0.153
0.118
-0.015
-0.029
0.027
0.029
0.209
0.013
-0.263
-0.175
0.130
0.132
0.117
-0.043
0.020
0.054
-0.012
-0.032
-0.012
0.014
0.057
0.041
0.015
-0.112
0.127
0.069
0.066
0.086
0.026
0.025
-0.014
0.076
0.027
-0.032
0.090
-0.011
0.095
0.042
0.004
0.008
0.010
0.069
-0.022
-0.018
0.048
0.028
0.070
-0.000
0.000
0.040
0.051
-0.017
-0.017
-0.061
-0.012
-0.040
0.128
0.058
-0.044
0.028
0.095
0.068
0.060
0.000
-0.016
0.079
0.029
0.072
0.068
0.018
0.060
0.063
-0.010
0.026
0.084
0.052
0.027
0.065
0.033
-0.037
0.040
0.124
-0.015
0.040
0.052
-0.007
0.020
0.028
0.042
0.015
-0.022
0.091
0.069
0.726
-0.022
-1.280
-0.480
0.658
0.688
0.374
0.029
-0.145
-0.129
-0.046
-0.079
-0.028
0.047
0.166
0.078
0.078
0.124
0.134
0.059
0.035
-0.036
0.054
-0.042
0.022
-0.078
0.093
0.025
0.063
0.030
0.026
0.073
0.069
0.098
-0.041
0.045
0.068
0.005
0.000
0.015
0.012
0.042
0.097
-0.071
0.045
0.114
0.034
0.307
-0.102
-0.250
-0.064
0.268
0.133
-0.121
-0.109
0.164
0.184
-0.020
0.104
-0.046
-0.030
0.013
0.081
0.059
0.022
-0.050
0.038
0.057
0.091
0.038
0.063
-0.044
0.082
0.069
-0.033
-0.099
-0.031
0.020
0.319
0.003
-0.244
-0.126
0.034
0.179
0.162
0.010
-0.055
-0.051
-0.031
-0.027
0.067
-0.006
-0.013
0.039
0.039
0.084
0.107
0.084
0.127
-0.031
-0.008
0.050
0.062
-0.050
0.018
-0.002
0.115
0.056
0.052
0.180
0.852
-0.147
-1.391
-0.346
0.458
0.787
0.333
-0.117
-0.180
-0.141
-0.009
-0.023
0.023
-0.016
0.162
0.072
0.008
0.074
0.086
0.024
-0.008
-0.029
-0.032
0.051
-0.015
0.024
0.020
0.001
0.109
0.132
0.061
-0.009
0.026
0.009
0.040
0.018
0.048
0.064
0.014
-0.021
-0.007
0.087
0.103
0.055
-0.030
-0.026
-0.022
-0.028
0.023
0.039
0.028
0.063
0.052
0.018
0.045
0.001
0.087
0.040
0.017
-0.040
0.091
0.060
0.037
0.033
0.073
-0.004
0.104
0.016
0.005
0.042
0.048
0.009
-0.017
0.045
0.041
0.022
0.112
0.010
0.025
0.044
0.065
-0.010
0.016
-0.059
0.009
0.066
0.008
0.090
0.060
-0.039
0.052
-0.020
0.040
0.021
0.040
0.009
0.034
0.042
0.018
0.034
0.043
0.034
0.128
0.039
0.012
-0.015
-0.026
0.057
0.073
0.059
0.022
-0.028
0.102
0.678
0.197
-1.363
-0.642
0.442
0.794
0.502
0.045
-0.253
-0.176
-0.029
0.006
0.037
0.006
0.054
0.021
0.103
0.054
0.087
0.014
0.045
-0.028
0.029
0.025
0.014
0.046
0.023
0.049
0.059
0.111
-0.007
0.009
-0.032
-0.005
0.096
-0.034
0.019
-0.023
0.082
0.045
0.064
0.055
0.007
-0.002
0.025
0.015
0.030
-0.044
0.108
0.067
0.007
0.044
0.141
-0.018
0.034
-0.021
0.083
0.024
-0.011
-0.006
0.015
0.034
0.149
0.076
0.009
-0.042
0.034
0.052
0.079
0.049
-0.031
0.021
0.074
0.017
0.056
-0.026
0.003
0.100
0.066
0.027
0.000
-0.043
0.032
0.097
-0.039
0.017
0.062
0.085
-0.010
-0.016
-0.028
0.123
0.059
0.036
0.182
0.075
0.034
0.016
-0.024
0.006
0.107
0.026
0.050
0.035
0.049
0.060
0.085
0.713
0.467
-1.226
-1.063
0.107
0.804
0.671
0.180
-0.130
-0.221
-0.081
-0.038
-0.006
-0.028
0.036
0.038
0.095
0.139
0.110
0.089
-0.020
0.041
-0.015
0.003
0.027
-0.013
0.008
-0.073
0.015
0.026
0.109
0.120
0.171
-0.019
-0.067
0.069
-0.023
0.024
0.033
0.014
0.030
0.009
0.023
0.040
0.251
-0.040
-0.288
-0.027
0.280
0.140
-0.078
-0.103
0.080
0.114
0.134
-0.038
-0.041
0.024
-0.028
-0.042
-0.001
0.058
-0.005
0.049
0.033
0.042
0.068
0.090
0.008
0.086
0.028
0.039
-0.015
0.070
0.019
0.022
-0.010
0.085
0.037
0.078
0.020
-0.005
-0.017
0.059
0.056
-0.016
-0.096
0.011
0.066
-0.015
0.069
0.057
0.103
0.042
-0.008
0.027
0.072
-0.032
-0.011
0.053
0.038
0.036
0.063
0.050
-0.003
0.006
0.008
0.006
0.070
0.007
-0.025
0.088
0.051
0.219
0.809
-0.748
-1.141
0.021
0.638
0.689
0.178
-0.070
-0.198
-0.098
-0.027
0.077
0.095
0.033
0.019
0.158
0.080
0.047
0.021
0.003
0.067
-0.028
-0.034
0.057
0.048
0.000
0.106
0.045
0.004
-0.020
0.001
-0.024
0.057
0.056
0.056
0.015
-0.033
-0.006
-0.060
0.036
0.080
0.030
0.023
0.017
0.078
-0.028
0.093
0.002
0.066
-0.049
0.012
0.044
0.147
0.058
-0.034
0.004
0.018
0.006
0.072
0.039
0.084
-0.038
0.060
0.091
0.066
-0.019
0.001
0.004
0.071
0.089
0.021
-0.064
0.040
0.038
-0.008
0.049
0.048
0.127
0.003
0.023
0.040
0.025
-0.054
-0.065
0.044
0.106
0.067
0.060
-0.002
-0.008
0.013
0.064
0.039
-0.006
-0.070
0.004
0.091
0.083
0.012
0.041
0.051
0.705
0.114
-1.398
-0.511
0.450
0.762
0.359
0.012
-0.163
-0.203
-0.111
-0.006
0.023
-0.044
0.161
0.141
0.098
0.089
0.070
0.026
0.013
0.079
0.032
0.038
-0.066
0.021
0.107
0.213
-0.191
-0.304
-0.025
0.184
0.194
0.147
0.010
-0.039
-0.020
-0.042
-0.092
0.008
0.113
-0.008
0.003
0.134
0.044
0.124
-0.002
0.013
0.000
0.012
-0.013
0.074
0.023
0.013
0.056
0.031
0.038
0.045
-0.018
-0.027
0.011
0.071
-0.028
-0.039
0.005
0.055
0.118
0.058
-0.073
0.131
0.023
-0.051
0.029
0.095
0.078
0.040
-0.057
-0.004
0.127
0.037
0.050
0.034
0.020
0.119
0.046
0.060
-0.069
-0.093
0.014
0.125
0.019
-0.020
0.017
0.032
0.058
-0.036
0.025
0.068
0.013
0.025
-0.018
0.131
0.103
0.074
0.017
0.005
0.016
0.211
0.764
-0.543
-1.160
-0.119
0.623
0.668
0.210
-0.126
-0.104
-0.175
-0.072
-0.020
-0.041
0.046
0.101
0.135
0.108
0.043
0.001
-0.001
0.007
0.073
-0.028
-0.021
0.049
0.013
0.062
0.078
0.024
0.008
0.054
0.083
-0.012
0.007
0.029
0.086
0.011
0.082
-0.010
0.007
-0.028
0.046
0.048
0.009
0.015
0.034
0.070
0.031
0.035
-0.019
0.053
0.214
0.178
-0.109
-0.332
-0.072
0.204
0.131
0.129
0.036
-0.002
0.011
-0.062
-0.040
0.075
0.012
-0.011
0.083
0.063
0.070
0.053
0.021
0.040
-0.052
-0.006
0.102
0.034
0.015
0.041
0.049
-0.002
0.020
0.120
0.040
0.018
-0.085
-0.021
0.010
-0.007
-0.000
0.085
-0.015
0.019
0.009
0.047
0.063
0.182
0.797
-0.276
-1.303
-0.229
0.633
0.654
0.274
0.005
-0.081
0.092
-0.337
-0.247
0.052
0.238
0.215
-0.012
0.010
0.194
0.107
-0.005
-0.076
-0.075
0.048
0.071
-0.022
0.047
0.064
-0.025
0.038
0.047
0.069
0.027
0.077
-0.003
0.010
0.015
-0.011
0.119
0.028
0.005
0.043
0.053
0.006
0.005
-0.010
0.070
0.022
0.037
0.059
0.026
0.050
0.079
0.031
0.040
0.046
-0.008
0.130
0.050
0.051
-0.005
-0.059
0.063
0.105
0.138
0.010
0.008
0.050
0.040
0.024
-0.023
-0.026
0.057
0.021
-0.017
0.048
0.059
0.050
0.017
0.047
0.084
0.096
-0.002
-0.038
0.072
0.025
0.098
0.050
-0.002
-0.039
0.067
0.083
-0.018
0.014
0.028
0.015
0.024
0.290
0.733
-0.723
-1.137
-0.017
0.648
0.572
0.191
0.013
-0.130
-0.113
-0.158
-0.050
-0.009
0.100
0.048
0.148
0.046
0.079
0.067
0.037
-0.072
-0.042
-0.008
0.044
0.056
0.026
0.020
-0.006
-0.004
0.049
0.093
-0.001
0.001
-0.006
0.127
0.048
0.017
0.128
0.107
-0.030
-0.067
0.040
0.010
0.016
0.047
0.036
0.011
0.039
0.053
0.022
0.013
0.009
0.044
0.023
0.052
0.049
-0.001
0.104
0.014
0.031
0.094
0.004
0.008
-0.054
0.031
0.156
0.001
0.002
0.014
0.034
0.010
0.078
0.026
0.022
0.002
0.065
0.133
-0.025
0.022
0.019
0.022
0.065
-0.028
0.024
0.075
0.008
0.038
0.075
0.072
0.007
0.038
0.041
0.179
0.795
-0.442
-1.338
-0.232
0.633
0.765
0.341
0.004
-0.213
0.087
-0.224
-0.262
0.042
0.237
0.143
-0.060
0.012
0.137
0.147
0.128
-0.012
0.011
-0.015
-0.029
0.011
0.073
-0.033
0.053
0.040
0.024
0.084
-0.019
-0.010
0.005
-0.030
0.193
0.106
-0.308
-0.207
0.203
0.103
0.080
0.004
-0.045
0.015
0.049
-0.025
0.029
0.063
-0.012
0.000
0.118
0.031
0.106
0.024
0.004
-0.018
-0.006
0.105
0.048
0.028
0.004
0.049
-0.031
-0.042
0.056
0.025
0.075
0.010
0.028
0.071
-0.000
0.038
0.057
0.071
-0.022
0.043
0.081
0.028
-0.014
0.078
0.049
0.013
0.067
0.029
0.055
-0.000
-0.028
0.019
0.017
0.082
0.010
0.019
0.023
0.074
0.125
0.780
-0.114
-1.333
-0.497
0.554
0.726
0.371
0.017
-0.210
-0.143
-0.020
0.069
-0.046
-0.084
0.083
0.092
0.093
0.128
0.107
0.039
0.050
0.053
-0.012
0.004
-0.021
0.012
0.049
0.008
0.027
0.053
0.089
0.054
-0.011
0.063
0.008
-0.013
0.073
0.082
0.077
-0.040
0.002
0.067
0.003
0.060
0.029
0.147
0.036
-0.005
0.038
0.030
-0.077
-0.005
-0.041
-0.036
0.141
0.094
0.028
0.087
-0.020
0.048
-0.004
-0.031
0.073
0.004
0.000
0.083
0.063
0.006
0.010
0.042
0.022
0.035
0.043
0.023
0.065
0.052
0.029
0.070
0.121
0.234
-0.035
-0.280
0.033
0.206
0.148
-0.254
-0.170
0.176
0.181
0.014
-0.018
-0.080
0.106
0.891
-0.248
-1.341
-0.306
0.510
0.701
0.438
-0.014
-0.156
-0.123
-0.144
0.075
0.017
0.033
0.079
0.125
0.161
0.001
-0.056
-0.058
0.071
0.065
0.102
0.057
0.045
0.088
0.018
-0.063
0.018
0.037
-0.015
0.053
0.098
0.023
0.058
0.006
0.075
0.075
0.019
-0.040
-0.097
-0.008
0.051
0.105
0.011
0.024
0.066
-0.010
0.079
0.067
0.042
-0.010
0.027
0.004
0.038
0.017
-0.043
0.046
0.089
0.108
0.051
0.106
0.169
-0.102
-0.225
-0.101
0.146
0.183
0.176
0.061
-0.015
-0.023
-0.046
0.128
0.029
-0.058
0.016
0.050
0.104
0.038
0.022
-0.001
0.068
0.042
0.125
0.064
-0.021
0.572
0.510
-1.157
-0.839
0.252
0.750
0.483
0.009
-0.163
-0.101
-0.080
-0.040
0.004
-0.069
0.069
0.075
0.094
0.058
0.138
0.084
0.112
0.054
-0.063
0.035
0.029
-0.089
0.040
0.057
-0.016
-0.005
0.022
0.090
0.118
0.005
-0.013
0.023
0.026
0.075
0.060
-0.011
0.079
0.045
-0.079
0.024
0.139
-0.033
0.150
0.022
-0.008
-0.005
-0.000
0.013
0.120
0.082
0.041
-0.013
-0.050
-0.047
0.034
0.015
0.029
0.083
0.343
-0.228
-0.267
0.062
0.204
0.016
-0.156
0.061
0.121
0.106
0.013
-0.070
0.056
0.027
0.013
0.042
0.058
0.126
0.079
0.023
0.013
0.069
0.042
0.000
-0.004
0.041
0.161
0.805
-0.094
-1.273
-0.356
0.438
0.803
0.314
-0.032
-0.164
-0.259
-0.068
-0.014
0.001
0.080
0.027
0.114
0.127
-0.002
-0.072
0.069
0.014
0.040
0.005
0.040
0.041
0.057
0.056
-0.040
-0.004
-0.032
0.059
0.069
0.052
0.120
0.030
0.026
0.041
0.064
0.031
-0.027
0.060
-0.038
0.086
0.053
0.110
0.026
0.012
-0.003
0.068
0.123
0.022
0.017
0.048
0.020
0.063
0.006
-0.075
0.057
0.067
0.060
0.022
-0.034
0.075
-0.065
-0.011
-0.010
0.112
0.034
-0.011
-0.061
-0.010
0.090
0.099
0.063
0.021
0.073
0.044
0.027
0.015
0.062
-0.005
0.215
0.123
-0.192
-0.192
0.064
0.166
0.037
0.043
0.068
-0.004
-0.030
-0.009
-0.106
-0.005
0.096
0.033
0.125
0.421
0.634
-1.058
-0.956
0.161
0.761
0.617
0.175
-0.158
-0.165
-0.099
-0.017
0.037
-0.047
-0.035
0.101
0.015
0.134
0.121
0.042
0.002
0.093
-0.014
-0.054
-0.022
0.084
-0.022
-0.010
0.050
-0.053
0.069
0.051
-0.074
0.038
0.013
0.091
0.084
0.015
-0.028
0.004
0.018
-0.100
0.079
-0.002
0.106
0.081
-0.029
0.047
0.091
0.054
0.015
-0.065
0.007
0.122
-0.061
0.015
0.039
-0.011
0.055
0.150
-0.007
0.059
0.098
-0.075
0.025
0.043
0.220
0.113
-0.236
-0.068
0.187
0.120
-0.164
-0.095
0.171
0.143
0.022
-0.088
-0.108
0.030
0.066
0.042
0.029
0.050
0.074
0.005
0.061
0.061
0.025
0.044
0.043
0.005
0.079
0.018
0.126
0.030
0.030
0.011
0.044
0.117
-0.014
-0.077
0.064
0.026
0.003
0.065
0.065
0.014
0.070
-0.017
0.062
0.015
-0.021
0.005
0.034
0.707
0.178
-1.279
-0.626
0.390
0.724
0.395
0.037
-0.112
-0.160
-0.168
-0.037
0.048
0.015
0.027
0.047
0.136
0.103
0.084
0.072
0.051
0.054
0.001
-0.042
-0.091
0.103
0.025
-0.033
0.005
0.032
0.026
0.066
0.006
-0.014
0.024
0.025
0.063
0.011
-0.025
-0.008
0.064
0.076
0.064
0.097
0.037
0.070
0.009
0.035
0.032
0.055
-0.017
0.021
-0.033
-0.006
0.042
-0.033
0.017
-0.019
-0.008
0.002
0.010
-0.055
-0.006
0.158
0.084
-0.033
-0.089
-0.073
0.078
0.068
0.008
0.032
0.033
0.000
0.042
0.016
0.039
0.050
0.126
0.014
0.002
0.050
0.084
0.052
0.060
-0.002
-0.019
0.073
0.041
0.015
0.066
0.100
0.815
0.111
-1.345
-0.501
0.324
0.711
0.405
0.026
-0.148
-0.064
-0.142
0.003
-0.003
-0.015
0.102
0.119
0.061
0.038
0.068
-0.019
-0.016
-0.005
0.057
0.022
-0.014
-0.012
0.071
0.080
0.104
0.050
-0.044
-0.005
0.083
0.044
-0.031
0.003
0.050
0.071
0.063
-0.001
-0.038
0.094
0.037
0.070
0.057
0.256
-0.220
-0.253
0.004
0.202
0.061
-0.053
0.035
0.135
0.148
0.025
-0.064
0.055
0.032
0.003
0.070
0.014
0.037
0.040
0.096
0.268
0.031
-0.261
-0.172
0.113
0.214
0.051
0.056
-0.065
-0.027
0.024
0.000
-0.003
0.104
0.099
0.008
0.069
0.008
0.041
-0.050
0.040
-0.021
0.087
0.104
0.054
0.007
0.032
-0.058
0.064
0.033
0.067
0.007
-0.008
0.038
0.089
0.048
0.003
-0.021
0.027
0.077
0.018
0.062
0.001
0.020
0.084
0.044
0.037
0.052
0.440
0.611
-0.934
-0.968
0.062
0.674
0.586
0.066
-0.062
-0.142
-0.142
-0.069
0.149
0.055
0.094
0.033
0.166
0.081
0.169
0.026
-0.005
0.006
0.027
0.002
-0.098
0.014
0.033
0.004
0.083
0.046
0.040
0.025
0.055
-0.050
-0.106
0.034
0.109
0.118
0.106
0.050
-0.004
0.043
-0.012
0.004
0.007
-0.058
0.096
0.017
0.049
0.039
0.049
0.056
0.075
0.057
0.007
0.059
-0.021
-0.004
0.065
0.010
0.053
0.010
-0.017
-0.008
0.072
-0.008
0.055
-0.010
0.050
-0.005
0.042
-0.026
0.084
0.012
0.032
0.065
0.039
0.022
-0.036
0.067
-0.020
0.024
0.120
0.058
0.044
-0.059
-0.008
0.050
-0.007
0.027
0.019
0.012
0.043
0.089
0.208
0.787
-0.674
-1.227
-0.011
0.666
0.643
0.328
-0.071
-0.167
-0.079
-0.103
-0.039
-0.028
0.073
0.128
0.098
0.099
0.064
0.005
0.074
-0.051
0.142
0.025
-0.053
-0.069
0.032
-0.011
0.003
0.060
0.018
0.011
0.101
0.029
0.005
0.067
0.132
0.067
-0.134
0.035
0.079
0.127
0.061
-0.028
-0.027
0.047
0.041
-0.080
0.013
0.023
0.020
-0.003
0.126
0.081
-0.000
0.030
-0.058
0.066
0.023
0.023
0.014
0.073
0.025
0.018
0.126
-0.001
0.068
0.216
0.099
0.092
0.052
-0.334
-0.014
0.238
0.158
-0.203
-0.157
0.015
0.216
0.010
-0.007
-0.091
0.071
0.023
0.022
-0.010
0.081
0.083
0.063
0.054
0.037
0.093
0.052
0.037
0.099
0.584
0.355
-1.312
-0.901
0.263
0.839
0.534
0.112
-0.164
-0.148
-0.080
-0.070
-0.027
-0.136
0.021
0.120
0.097
0.065
0.136
0.070
0.087
0.027
0.009
0.041
0.059
0.028
-0.025
0.070
-0.020
0.063
0.085
-0.034
0.057
0.080
0.056
0.083
-0.022
-0.052
0.197
0.274
-0.164
-0.359
0.046
0.127
0.113
0.072
0.036
0.027
0.021
-0.046
-0.023
0.012
-0.014
0.056
0.003
-0.014
0.148
0.143
0.060
-0.024
0.017
0.070
0.047
0.065
0.056
0.006
0.040
0.051
0.038
0.081
0.054
0.055
0.096
-0.027
0.026
0.049
-0.017
-0.024
0.063
0.073
0.057
0.031
0.093
0.015
0.013
0.045
-0.050
-0.000
0.046
0.041
0.009
0.008
0.056
0.038
0.108
0.035
0.023
-0.030
0.050
0.101
0.070
0.015
-0.033
-0.007
0.017
0.261
0.875
-0.519
-1.128
-0.094
0.608
0.562
0.326
-0.044
-0.165
-0.199
-0.038
0.008
-0.079
-0.007
0.122
0.157
0.154
0.042
0.030
0.103
-0.002
-0.005
0.031
0.036
-0.049
0.123
-0.018
0.026
0.044
-0.009
0.057
0.045
-0.011
0.009
0.029
0.034
0.037
0.062
-0.023
0.134
0.053
0.040
-0.041
-0.004
0.049
0.110
0.045
-0.025
-0.010
-0.014
0.074
0.117
0.014
-0.058
0.025
0.034
-0.042
-0.007
0.072
0.028
0.013
-0.029
0.057
0.049
0.096
0.035
-0.011
0.048
0.074
0.010
0.076
0.040
0.022
0.018
0.004
0.135
0.075
0.016
0.035
-0.001
-0.019
-0.025
0.022
0.034
0.059
0.101
0.044
-0.014
0.059
0.059
-0.024
0.043
0.034
0.061
0.071
0.067
-0.061
-0.040
-0.031
0.083
0.725
0.179
-1.256
-0.545
0.381
0.790
0.396
0.141
-0.115
-0.184
-0.110
-0.033
-0.029
-0.040
0.090
0.173
0.144
0.092
-0.009
0.068
-0.012
0.018
0.072
0.047
-0.018
-0.026
0.054
0.015
0.031
0.049
-0.031
0.077
0.059
0.071
0.024
0.069
-0.051
0.028
0.049
-0.015
0.029
0.103
0.019
0.108
-0.020
0.028
-0.007
0.055
0.090
0.040
0.009
-0.015
0.097
0.339
-0.085
-0.285
0.019
0.250
0.124
-0.123
-0.051
0.120
0.122
-0.025
-0.003
-0.013
0.085
0.006
0.037
0.018
0.026
-0.028
0.111
0.031
-0.044
0.054
0.183
0.137
-0.206
-0.237
0.060
0.211
0.176
0.034
0.005
-0.046
0.001
-0.023
0.059
-0.038
0.095
0.020
0.094
0.607
0.471
-1.189
-0.741
0.205
0.733
0.472
0.070
-0.128
-0.152
-0.113
0.043
0.081
-0.016
0.034
0.101
0.032
0.126
0.009
0.012
0.129
0.011
0.057
0.073
-0.083
-0.006
-0.003
0.002
0.028
0.133
0.071
0.011
0.086
0.004
0.067
0.041
0.004
-0.032
0.068
0.042
0.039
0.008
0.033
0.111
0.065
0.035
0.028
0.020
0.048
-0.014
0.045
-0.030
0.122
0.074
-0.015
0.012
-0.003
0.072
0.020
0.074
0.106
0.048
-0.030
-0.068
-0.016
0.139
0.099
0.015
-0.073
0.035
0.150
0.035
0.006
-0.006
0.052
0.078
0.056
-0.036
0.008
0.113
0.064
0.003
0.004
0.065
0.095
0.051
0.008
0.005
0.071
-0.014
0.013
0.033
0.037
0.119
0.028
-0.022
-0.015
0.086
0.054
0.042
-0.025
-0.013
0.048
-0.007
0.009
0.046
0.100
0.035
0.025
0.019
0.030
0.001
0.048
-0.056
-0.001
0.081
0.062
0.078
0.028
0.273
0.762
-0.680
-1.200
0.019
0.647
0.595
0.238
-0.125
-0.208
-0.127
-0.065
0.033
0.068
0.090
0.182
0.025
0.057
0.077
0.051
0.055
0.079
-0.050
0.048
0.073
0.030
-0.047
-0.052
0.024
0.003
-0.050
0.075
0.092
0.123
-0.042
0.007
0.059
0.032
0.051
-0.007
0.008
0.030
0.080
0.005
0.065
0.061
-0.029
0.084
-0.005
0.051
0.031
0.164
0.112
-0.021
-0.085
-0.072
0.012
0.063
0.043
0.095
0.069
0.034
0.026
-0.040
0.030
0.061
0.010
0.009
0.013
0.092
0.053
-0.006
-0.000
0.042
0.045
0.058
0.012
-0.018
0.086
0.028
0.093
-0.065
-0.032
0.006
0.039
-0.031
0.077
0.081
0.075
0.165
0.139
-0.123
-0.283
-0.039
0.185
0.090
0.335
-0.003
0.539
-0.198
-1.198
-0.412
0.281
0.722
0.626
0.071
-0.222
-0.230
-0.077
0.098
-0.093
-0.023
0.113
0.170
0.143
0.100
0.007
0.072
-0.036
-0.041
0.064
0.072
0.037
0.012
-0.032
-0.011
-0.015
0.008
0.040
0.083
0.070
0.085
-0.038
0.030
0.034
0.025
0.061
-0.014
0.059
-0.025
0.061
0.001
0.117
0.038
0.072
0.004
-0.010
0.014
0.017
0.050
0.097
0.074
0.003
0.086
-0.027
-0.017
-0.065
0.065
0.078
0.102
0.121
-0.024
-0.001
0.067
0.027
0.025
0.062
-0.004
-0.009
0.061
-0.018
-0.009
0.099
0.041
0.097
0.036
0.014
-0.002
0.015
0.047
0.023
0.106
0.000
0.013
0.024
0.049
-0.073
0.060
0.014
-0.003
0.066
0.016
0.047
0.247
0.835
-0.621
-1.252
-0.107
0.719
0.638
0.153
-0.091
-0.178
-0.004
-0.053
0.011
-0.041
0.038
0.152
0.090
0.134
0.008
0.095
0.060
-0.009
-0.082
0.052
-0.016
-0.027
0.082
0.075
0.101
-0.033
0.006
-0.054
0.020
0.068
0.004
0.027
-0.016
0.096
0.021
0.067
-0.034
0.050
0.037
0.059
-0.054
0.066
0.024
0.129
0.012
0.083
0.051
0.044
0.013
0.080
0.003
0.004
0.065
0.020
0.056
0.104
0.005
0.047
-0.060
0.041
0.105
0.134
0.040
-0.024
-0.051
0.058
0.011
-0.036
0.012
0.098
0.196
0.089
0.031
0.013
0.105
0.034
-0.040
0.007
-0.011
0.075
0.004
0.049
0.019
-0.008
0.002
0.070
0.018
-0.093
0.048
0.089
0.072
0.067
-0.013
0.103
0.124
0.132
-0.049
-0.244
-0.079
0.142
0.210
0.945
0.120
-1.425
-0.631
0.357
0.731
0.438
0.043
-0.101
-0.208
-0.134
-0.008
-0.000
0.047
0.082
0.116
0.121
0.127
0.033
0.052
-0.019
0.033
-0.025
-0.004
0.043
-0.004
0.007
0.004
0.019
0.036
0.053
0.041
0.059
0.150
-0.032
0.013
-0.023
-0.013
0.066
0.070
-0.045
-0.088
0.132
0.030
0.020
0.051
0.066
0.009
-0.045
0.022
-0.005
0.046
-0.006
-0.035
0.041
0.084
0.054
0.100
0.042
0.063
-0.014
-0.007
-0.077
-0.107
0.042
0.122
0.080
0.089
0.056
0.022
0.033
0.023
0.016
0.007
0.135
0.106
-0.021
0.087
-0.010
-0.068
0.073
0.054
0.040
0.035
0.035
0.069
-0.054
0.005
0.225
-0.125
-0.300
0.048
0.206
0.506
0.599
-0.963
-0.973
0.144
0.641
0.476
0.066
-0.063
-0.083
-0.120
-0.028
0.022
0.121
0.110
0.076
0.041
-0.009
0.107
0.088
0.079
0.085
0.009
-0.009
-0.074
0.005
-0.021
0.082
0.053
-0.018
0.069
0.162
-0.195
-0.283
-0.008
0.185
0.142
0.149
0.011
0.032
-0.047
0.081
-0.019
0.010
0.018
0.081
0.039
0.036
0.069
0.041
0.046
0.052
-0.007
0.028
0.010
0.007
0.064
0.012
-0.014
0.039
0.032
0.057
0.023
0.037
0.050
0.018
0.056
-0.002
-0.036
-0.019
0.056
0.118
0.077
0.107
0.064
-0.011
0.077
0.034
0.020
-0.076
-0.029
-0.036
-0.014
0.112
0.048
0.030
0.061
0.096
0.055
-0.108
-0.005
0.011
0.072
-0.017
0.021
0.039
0.699
0.474
-1.090
-0.810
0.205
0.687
0.571
0.084
-0.212
-0.219
-0.094
-0.035
0.082
0.028
0.079
0.079
0.111
0.154
0.077
0.003
0.079
-0.041
0.040
-0.015
0.020
0.092
0.001
0.047
0.041
-0.011
-0.000
0.074
0.002
0.023
0.068
0.031
-0.030
0.013
0.070
0.040
-0.007
-0.008
0.019
0.026
0.045
0.056
-0.011
0.088
-0.013
0.030
0.016
0.032
0.053
0.057
0.006
0.022
0.106
0.037
0.010
0.014
0.081
0.142
0.046
0.044
0.002
0.026
-0.057
-0.035
-0.013
0.053
-0.008
0.021
0.041
0.023
0.058
0.032
-0.025
-0.040
0.022
0.048
0.046
0.045
-0.017
-0.006
0.106
0.229
-0.000
-0.161
-0.190
0.068
0.183
0.182
0.019
0.047
0.001
0.008
-0.008
-0.047
0.024
0.152
0.059
0.017
0.004
0.036
-0.080
0.010
0.225
-0.021
-0.262
0.637
0.555
-1.076
-0.940
0.187
0.782
0.699
0.076
-0.234
-0.249
-0.106
-0.107
-0.058
-0.012
0.086
0.186
0.093
0.114
0.103
0.069
0.021
0.084
0.024
-0.088
-0.055
0.121
-0.003
0.041
0.015
-0.008
0.061
0.066
0.058
0.026
-0.018
-0.027
0.012
0.056
0.065
0.036
0.020
-0.038
0.045
0.061
0.075
0.071
0.043
-0.054
-0.027
0.033
0.041
0.022
0.089
0.055
0.107
-0.015
0.117
0.060
0.073
0.023
-0.049
0.049
0.061
0.067
0.006
-0.046
-0.051
0.046
-0.023
0.005
0.095
0.092
0.062
-0.025
0.004
-0.013
0.014
0.065
0.144
-0.052
-0.072
0.007
0.074
0.105
0.036
0.045
-0.018
-0.005
-0.033
-0.002
0.031
0.037
0.057
0.075
0.032
0.023
0.082
0.035
0.037
0.062
0.066
0.004
0.008
-0.012
0.023
0.048
-0.013
0.046
0.083
-0.002
0.522
0.560
-1.145
-0.919
0.274
0.626
0.555
0.157
-0.161
-0.184
-0.160
-0.043
0.020
0.144
0.019
0.050
0.054
0.082
0.022
0.080
0.018
0.016
0.001
-0.017
0.015
0.040
0.093
0.059
-0.035
0.004
0.196
-0.017
-0.188
-0.181
0.125
0.224
0.077
0.049
0.031
0.018
-0.003
-0.022
-0.060
0.049
-0.020
0.082
-0.017
0.056
0.088
0.097
0.028
0.168
0.003
-0.026
-0.017
-0.004
0.032
0.016
0.030
0.054
0.045
0.019
0.000
0.050
0.123
0.017
-0.009
0.089
0.037
-0.011
0.010
-0.034
0.058
0.060
0.121
0.040
0.043
0.074
0.025
-0.049
-0.043
0.045
-0.015
0.000
0.008
0.026
-0.007
0.092
0.071
-0.056
0.053
0.077
-0.042
0.041
-0.015
0.076
-0.068
0.162
0.872
-0.537
-1.272
-0.133
0.623
0.660
0.182
-0.087
-0.090
-0.074
-0.089
0.063
0.071
-0.074
0.116
0.076
0.104
0.079
0.041
0.055
0.046
0.069
-0.007
0.078
0.059
-0.033
0.037
-0.063
-0.093
-0.085
-0.016
0.137
0.072
-0.047
0.019
-0.025
0.055
0.048
0.065
0.028
0.021
-0.085
0.032
0.024
0.026
-0.003
0.108
-0.008
0.058
0.038
0.049
0.013
0.036
0.057
0.060
0.020
-0.058
0.012
0.030
0.026
0.094
0.012
0.058
-0.007
0.034
0.005
-0.026
0.021
0.018
0.022
0.031
0.060
0.048
0.041
0.098
0.061
0.005
0.003
0.055
-0.011
0.086
-0.002
-0.019
0.057
-0.087
-0.058
0.070
0.006
0.101
0.094
0.006
-0.011
0.070
-0.107
0.108
0.071
0.034
0.048
0.133
-0.001
0.026
0.294
-0.182
-0.346
0.012
0.308
0.118
-0.213
0.023
1.078
-0.039
-1.493
-0.452
0.551
0.786
0.423
-0.049
-0.242
-0.171
0.017
0.084
-0.203
-0.278
0.161
0.238
0.263
0.091
0.083
-0.002
-0.048
-0.043
-0.064
0.089
0.018
0.040
0.066
0.027
0.027
0.040
0.050
0.049
0.017
-0.030
0.099
0.049
0.007
0.050
0.042
-0.040
-0.074
0.077
0.011
0.074
0.037
0.039
-0.015
0.060
0.102
0.065
-0.043
0.050
0.067
0.051
0.019
0.047
0.012
0.044
0.071
0.080
-0.040
0.058
-0.010
-0.011
0.040
0.033
0.046
0.020
0.027
0.038
0.029
0.103
0.041
-0.106
-0.018
-0.060
0.088
0.064
0.108
0.059
0.032
0.020
-0.024
-0.058
-0.002
0.049
0.008
0.057
-0.021
0.103
0.088
-0.012
0.041
0.029
0.067
0.031
0.056
0.053
-0.033
0.021
0.019
0.008
0.044
0.018
0.080
0.002
0.015
-0.048
0.113
-0.024
0.058
-0.014
-0.028
0.034
0.016
0.444
0.698
-1.008
-1.021
0.161
0.760
0.567
0.098
-0.139
-0.182
-0.087
-0.015
0.059
-0.030
0.067
0.079
0.104
0.142
0.093
0.092
-0.007
-0.080
-0.119
0.010
0.108
0.021
-0.014
0.031
0.075
0.086
0.006
0.002
0.031
0.040
-0.041
0.031
0.053
0.020
0.023
-0.021
0.101
0.118
0.001
0.016
0.016
0.128
0.065
0.005
-0.019
0.061
0.138
0.040
0.013
0.151
0.036
0.039
-0.042
-0.003
-0.005
0.114
0.035
0.010
-0.024
-0.014
0.101
0.003
-0.054
0.046
0.016
0.043
0.061
0.100
0.040
0.042
0.076
0.008
0.407
-0.243
-0.164
0.060
0.149
0.044
-0.126
0.076
0.212
0.069
0.034
0.420
0.476
-1.110
-0.944
0.172
0.786
0.590
0.163
-0.110
-0.203
-0.071
-0.034
0.066
0.149
-0.059
-0.206
-0.009
0.180
0.213
0.095
0.043
-0.014
-0.020
-0.036
0.022
-0.038
0.061
0.026
0.051
0.050
0.029
-0.053
0.064
0.115
0.114
0.067
0.020
-0.001
0.064
-0.030
0.041
-0.021
0.031
0.085
0.072
-0.019
0.017
0.013
0.039
0.025
0.012
0.037
0.039
0.007
0.044
0.011
0.037
-0.009
-0.005
0.048
0.044
0.085
0.096
-0.016
0.048
0.083
0.056
0.083
-0.013
0.033
0.032
-0.070
-0.057
-0.028
0.097
0.140
0.095
0.064
-0.023
-0.067
-0.021
0.000
-0.043
0.057
0.095
-0.015
0.118
0.127
0.032
0.031
0.050
-0.044
-0.024
0.124
0.024
0.036
0.025
0.118
0.085
0.029
0.072
-0.022
0.082
0.028
0.006
0.014
0.077
-0.036
0.073
-0.060
0.031
0.036
0.548
0.589
-1.035
-0.958
0.288
0.628
0.570
0.131
-0.071
-0.174
-0.158
-0.120
-0.028
-0.044
0.130
0.156
0.109
0.004
0.014
0.081
0.004
-0.006
0.049
0.014
0.004
0.087
-0.015
0.037
0.096
0.022
-0.021
0.097
0.055
-0.001
0.106
0.042
0.068
-0.016
-0.037
0.069
0.033
0.051
-0.010
0.039
-0.011
-0.021
-0.010
-0.023
0.102
0.032
0.079
0.063
-0.063
-0.043
0.074
0.111
0.080
-0.003
0.009
0.189
0.116
-0.065
-0.044
-0.060
0.032
0.044
0.097
0.056
0.094
-0.026
0.062
0.054
-0.041
0.049
0.096
-0.011
0.021
-0.021
0.026
0.025
0.053
0.029
0.040
0.069
-0.012
0.060
-0.006
0.044
0.028
0.063
0.044
0.008
-0.015
0.006
0.001
0.056
-0.039
0.066
0.075
0.144
0.194
-0.155
-0.270
-0.035
0.165
0.197
0.151
-0.031
0.028
-0.040
0.050
0.673
0.223
-1.247
-0.535
0.319
0.748
0.431
0.012
-0.093
-0.058
0.215
-0.351
-0.265
0.195
0.276
0.025
-0.128
-0.020
0.246
0.131
-0.046
-0.015
0.036
0.022
-0.044
0.033
0.073
0.115
0.036
-0.014
-0.044
0.100
0.051
-0.005
-0.009
0.017
0.054
0.061
0.032
0.003
0.059
0.005
0.033
0.056
0.021
0.073
0.001
-0.083
-0.071
0.094
0.081
0.094
0.069
0.007
-0.026
0.037
-0.014
0.025
0.046
-0.015
0.039
-0.009
-0.045
0.007
0.106
0.073
0.076
-0.010
0.021
0.046
0.073
-0.054
-0.009
0.080
0.037
0.086
0.022
0.092
0.010
-0.001
-0.031
0.083
-0.056
0.083
0.071
0.006
0.559
0.495
-1.091
-0.914
0.152
0.719
0.499
0.072
-0.141
-0.164
-0.136
-0.021
0.001
-0.006
0.050
0.151
0.077
0.050
0.081
-0.006
0.134
0.052
-0.034
0.004
-0.034
0.001
0.044
-0.008
-0.045
0.011
0.024
0.058
0.001
0.039
0.077
-0.038
0.046
0.040
0.006
0.059
0.092
-0.042
-0.045
0.074
0.082
0.146
0.198
-0.165
-0.270
-0.041
0.139
0.172
0.058
0.000
0.031
-0.021
-0.058
-0.004
0.050
0.096
0.102
0.051
-0.009
0.097
-0.034
0.023
0.020
0.035
0.092
-0.065
0.022
0.021
0.033
0.151
0.265
-0.342
-0.075
0.181
0.283
-0.122
-0.158
0.110
0.180
-0.004
-0.049
-0.017
0.055
0.076
0.064
0.021
0.083
0.043
-0.044
0.002
0.038
0.015
0.019
0.025
0.071
0.750
0.195
-1.294
-0.662
0.332
0.730
0.437
0.008
-0.170
-0.132
-0.016
-0.112
-0.011
0.052
0.103
0.100
0.071
0.079
0.082
0.024
0.066
0.021
-0.053
0.028
0.057
0.079
0.018
-0.011
-0.024
0.053
0.109
-0.018
-0.041
0.019
-0.019
0.047
0.009
0.008
-0.031
0.000
0.056
0.056
0.066
0.132
-0.007
0.031
-0.004
0.040
-0.010
-0.005
0.036
-0.024
0.128
0.086
-0.021
-0.095
-0.072
0.032
-0.016
0.110
0.059
0.037
0.015
-0.006
-0.009
0.099
0.088
0.109
-0.039
0.034
0.035
-0.070
-0.016
-0.018
0.014
0.010
0.053
-0.030
0.012
0.032
0.028
0.144
0.007
-0.009
-0.011
0.127
-0.001
-0.033
0.045
0.042
0.080
0.862
-0.182
-1.415
-0.354
0.601
0.681
0.336
-0.043
-0.171
-0.203
-0.075
0.043
0.032
0.029
0.055
0.141
0.075
0.046
0.066
0.014
0.038
-0.021
0.031
-0.043
-0.001
0.082
0.069
0.046
0.026
-0.031
0.032
0.103
0.037
0.051
0.001
-0.063
0.053
0.039
0.105
0.185
0.005
-0.281
-0.195
0.120
0.151
0.221
0.086
-0.024
0.164
0.075
-0.319
-0.022
0.156
0.172
-0.082
-0.055
0.196
0.103
0.012
-0.005
-0.045
-0.001
0.055
0.089
-0.036
0.029
0.141
0.066
-0.013
0.032
0.016
0.035
0.014
0.028
0.120
-0.006
-0.014
0.024
0.000
0.020
0.109
0.083
0.081
0.056
-0.031
-0.029
0.078
-0.032
0.018
0.356
0.647
-0.779
-1.129
0.159
0.737
0.575
0.182
-0.169
-0.178
-0.107
-0.050
0.010
0.009
0.056
0.012
0.167
0.133
-0.024
-0.055
0.061
0.018
0.081
0.008
-0.047
0.008
0.023
0.022
-0.019
-0.018
0.061
0.097
0.041
0.031
0.003
0.009
0.062
0.022
-0.028
0.025
0.039
0.038
0.024
0.030
0.059
0.081
-0.029
0.067
0.020
0.047
0.018
0.004
-0.038
0.024
0.011
0.038
0.047
0.028
0.041
0.088
0.029
0.035
-0.044
0.042
0.083
0.039
-0.015
0.004
0.026
0.099
0.049
0.058
0.087
0.055
-0.042
-0.028
0.024
0.019
0.097
0.109
0.038
-0.108
-0.088
0.031
0.078
0.048
0.100
0.024
0.043
0.029
-0.003
0.006
0.115
0.003
0.040
-0.010
0.033
0.096
0.040
0.039
0.078
0.040
0.819
0.097
-1.405
-0.439
0.412
0.684
0.402
-0.016
-0.130
-0.142
-0.130
-0.001
0.040
0.171
0.087
-0.189
-0.163
0.140
0.217
0.233
0.042
0.071
-0.080
0.034
-0.030
0.040
0.038
0.211
-0.074
-0.274
-0.006
0.237
0.052
-0.108
-0.090
0.270
0.098
0.059
-0.028
0.029
-0.106
-0.041
0.026
0.046
0.009
0.073
0.075
-0.005
0.017
0.048
0.089
0.028
0.021
0.008
-0.030
0.012
0.022
-0.016
0.060
0.080
-0.016
-0.003
0.051
-0.004
0.010
0.002
0.103
0.041
0.024
0.059
0.006
-0.004
0.075
-0.014
-0.050
0.002
0.071
0.061
0.026
0.046
0.066
0.097
0.046
0.075
-0.079
-0.042
-0.069
0.136
0.837
-0.062
-1.377
-0.262
0.574
0.757
0.249
-0.089
-0.196
-0.105
-0.101
0.051
-0.009
0.025
0.034
0.136
0.153
0.071
0.005
0.070
0.042
0.047
0.026
-0.025
0.019
0.001
0.018
0.039
0.022
0.011
0.016
0.009
0.016
0.024
-0.015
0.074
0.029
0.007
0.053
-0.037
0.082
0.083
0.037
0.063
-0.008
0.039
0.074
0.002
0.042
0.069
-0.026
0.030
0.014
0.039
0.143
0.051
-0.023
0.037
0.047
0.043
0.038
-0.055
0.016
0.017
0.048
-0.000
-0.026
-0.024
0.006
0.099
0.011
-0.009
0.064
0.129
-0.007
-0.008
0.076
0.031
-0.021
0.011
0.046
0.092
0.049
0.072
0.023
-0.025
-0.031
0.049
0.057
0.064
0.047
0.001
0.031
-0.027
0.012
0.088
0.089
0.068
-0.043
-0.009
0.016
0.042
0.276
1.010
-0.458
-1.704
-0.377
0.714
0.834
0.319
0.002
-0.164
-0.311
-0.178
-0.009
0.046
0.054
0.172
0.122
0.194
0.038
0.038
0.039
0.042
0.044
0.060
-0.007
0.063
0.039
0.000
-0.001
0.020
0.066
0.277
-0.287
-0.196
0.168
0.227
-0.004
-0.213
0.028
0.209
0.081
-0.026
-0.084
0.046
0.031
0.103
0.095
0.055
-0.015
0.040
0.017
0.059
-0.015
0.053
0.046
0.039
-0.021
0.034
0.035
0.120
-0.017
-0.040
0.032
0.078
-0.063
0.109
0.028
-0.037
-0.015
0.097
0.059
0.081
0.022
-0.011
0.028
-0.010
-0.018
0.086
0.079
0.027
-0.046
0.011
0.118
0.148
0.030
-0.044
-0.033
0.067
0.001
0.007
0.049
0.026
-0.006
0.025
0.026
0.036
0.019
0.099
0.047
0.286
0.899
-0.632
-1.232
-0.070
0.517
0.680
0.208
-0.084
-0.125
-0.128
-0.079
0.072
0.012
0.012
0.101
0.109
0.084
0.097
0.068
-0.048
-0.062
-0.014
0.022
0.153
0.014
-0.019
0.081
0.008
-0.009
0.034
-0.031
-0.006
0.058
0.063
0.053
0.066
-0.005
0.014
0.047
0.056
0.037
-0.020
-0.118
-0.026
0.019
0.105
0.060
-0.015
0.053
0.063
-0.003
0.071
0.069
0.016
0.009
0.035
0.003
0.073
0.050
0.192
0.159
-0.251
-0.113
0.188
0.155
-0.051
0.067
0.092
-0.170
-0.017
0.029
0.602
0.623
-1.192
-1.021
0.222
0.636
0.548
0.097
-0.087
-0.053
-0.024
-0.065
-0.072
0.014
0.060
0.125
0.085
0.082
0.082
0.118
0.013
-0.005
0.041
0.009
-0.015
-0.119
-0.003
-0.008
-0.050
0.061
0.110
0.029
0.062
0.049
-0.023
0.026
-0.010
0.035
0.020
0.071
0.074
0.034
-0.001
-0.025
0.033
0.004
0.030
0.063
0.113
0.025
-0.037
-0.047
0.091
0.068
-0.006
0.057
-0.043
0.015
0.076
0.038
0.034
-0.001
-0.012
0.032
0.041
0.000
-0.005
-0.029
0.073
0.134
0.025
-0.113
-0.075
0.051
0.044
0.080
0.017
0.013
0.059
-0.062
-0.007
0.024
0.039
0.193
0.917
-0.443
-1.197
-0.242
0.592
0.645
0.255
-0.042
-0.208
-0.161
0.229
-0.235
-0.156
-0.010
0.251
0.110
-0.074
0.116
0.157
0.024
-0.073
-0.084
0.081
0.009
-0.032
-0.006
0.051
0.028
0.091
0.046
0.079
0.029
0.042
-0.008
0.008
0.014
0.096
0.167
0.063
-0.320
-0.101
0.150
0.164
0.144
0.049
0.083
-0.006
-0.022
-0.022
0.017
0.050
0.012
0.113
0.047
0.003
0.050
0.068
0.050
0.152
-0.012
-0.022
0.025
-0.033
0.037
0.016
-0.011
0.129
-0.026
-0.009
0.025
0.041
0.071
0.048
-0.065
0.128
0.082
0.049
-0.002
0.015
-0.041
0.022
0.117
0.121
0.009
0.050
0.184
0.852
-0.759
-1.231
-0.046
0.586
0.647
0.187
-0.086
-0.120
-0.146
-0.068
0.013
0.050
0.069
0.134
0.093
0.100
0.086
0.041
-0.048
0.104
-0.018
0.060
-0.047
0.026
0.040
0.047
-0.090
-0.084
0.008
0.044
0.030
0.019
0.115
0.086
-0.048
0.044
-0.034
0.029
0.060
0.287
-0.018
-0.392
-0.062
0.282
0.174
-0.054
-0.085
0.192
0.163
-0.019
-0.087
-0.082
-0.047
0.081
0.055
0.087
0.021
0.109
0.130
0.041
0.025
0.032
-0.036
0.082
-0.053
0.037
-0.023
0.108
0.093
-0.007
0.017
0.053
-0.007
0.071
0.003
0.012
0.068
0.223
0.054
-0.183
-0.258
0.137
0.115
0.144
0.101
0.003
0.029
0.064
0.020
-0.030
0.015
0.051
0.012
0.089
0.119
0.887
-0.275
-1.277
-0.260
0.616
0.629
0.254
0.002
-0.166
-0.199
-0.192
-0.007
0.012
0.056
0.116
0.134
0.165
0.073
0.068
0.056
0.063
-0.090
0.015
0.002
-0.034
0.031
0.031
0.039
0.030
0.059
-0.031
-0.031
-0.008
0.041
0.054
0.005
0.085
0.041
0.046
0.030
0.002
0.058
-0.004
0.009
0.012
0.062
-0.001
0.063
0.041
0.034
0.064
0.039
-0.017
0.126
-0.007
0.027
0.046
0.044
0.081
-0.004
0.008
0.048
0.040
0.132
-0.021
0.032
0.019
0.024
0.102
0.013
-0.016
0.059
0.025
0.075
0.032
0.158
0.320
-0.127
-0.287
-0.022
0.197
0.076
-0.046
0.071
0.195
0.079
-0.045
0.020
0.204
0.838
-0.745
-1.166
0.231
0.575
0.390
0.035
0.030
0.072
-0.142
-0.087
-0.054
-0.061
0.085
0.097
0.130
0.143
0.063
0.135
0.029
0.029
0.068
0.050
0.005
-0.005
-0.001
-0.031
0.044
0.047
0.017
0.053
0.044
0.061
-0.063
0.024
0.025
0.017
0.036
0.059
-0.024
-0.019
0.072
0.072
-0.004
0.037
0.020
0.041
0.011
0.026
-0.004
0.017
0.030
0.033
0.033
-0.027
0.064
0.092
0.009
0.009
-0.002
0.013
-0.049
-0.014
0.007
0.030
0.055
0.031
0.006
0.047
0.027
0.089
0.046
0.004
-0.099
0.056
-0.010
0.037
0.117
0.158
-0.013
0.819
-0.025
-1.329
-0.466
0.497
0.781
0.658
-0.124
-0.467
-0.114
0.104
0.026
-0.160
-0.034
0.252
0.186
0.100
-0.020
-0.043
-0.023
0.065
-0.057
0.011
0.059
0.076
-0.007
0.036
-0.001
-0.049
0.026
0.095
0.028
-0.059
0.067
0.031
0.056
0.108
0.009
0.052
0.023
0.054
0.050
0.033
0.024
0.078
-0.036
0.073
0.025
0.003
0.005
0.014
-0.030
0.074
0.069
0.186
0.173
-0.118
-0.196
-0.045
0.081
0.077
0.009
-0.011
-0.041
0.069
0.031
0.067
0.029
0.031
0.025
0.016
0.004
0.022
0.027
0.051
0.025
0.004
0.038
0.054
-0.028
0.072
0.021
-0.000
0.020
0.076
0.024
0.003
0.036
-0.043
0.168
0.929
-0.336
-1.361
-0.248
0.624
0.682
0.261
-0.029
-0.196
-0.256
-0.067
0.013
0.093
0.034
0.051
0.059
0.062
0.048
0.073
-0.057
-0.008
0.026
0.017
-0.009
0.014
0.070
0.043
-0.001
0.022
0.002
0.098
0.060
-0.020
-0.024
0.054
0.068
0.386
-0.195
-0.261
0.032
0.281
0.051
-0.157
0.093
0.122
0.087
0.042
-0.051
0.004
-0.060
0.072
-0.005
0.023
0.070
0.025
0.070
-0.002
0.009
0.048
0.074
0.076
-0.044
0.057
0.002
0.065
0.023
0.089
0.013
0.030
0.019
0.095
0.012
0.037
-0.009
0.022
-0.017
-0.017
0.113
-0.001
0.032
-0.011
0.009
0.089
0.116
0.030
0.061
0.825
-0.036
-1.426
-0.448
0.543
0.697
0.523
0.132
-0.231
-0.417
-0.197
0.142
0.167
0.152
0.150
0.003
0.008
0.027
-0.015
0.075
0.061
0.028
0.018
0.032
0.062
0.087
-0.004
-0.021
-0.012
-0.009
0.091
0.021
0.027
-0.006
-0.073
-0.005
0.144
0.069
0.102
0.033
0.023
-0.046
-0.037
0.038
0.035
-0.031
0.020
0.021
0.009
0.027
0.071
0.011
0.062
0.006
0.073
0.019
0.020
-0.059
0.120
0.012
-0.027
0.047
0.030
-0.010
0.054
0.063
0.026
-0.062
0.067
0.064
0.072
0.028
-0.023
0.058
0.056
0.033
0.049
-0.015
-0.007
0.325
-0.055
-0.362
0.096
0.179
0.045
-0.128
0.056
0.224
0.101
-0.012
-0.052
0.085
-0.009
-0.018
0.038
-0.014
0.012
0.043
0.253
0.845
-0.532
-1.188
-0.107
0.499
0.610
0.257
-0.028
-0.251
-0.235
-0.046
0.118
0.066
0.058
0.048
0.169
0.123
0.124
0.040
0.022
0.099
0.104
-0.020
0.031
0.019
0.060
-0.023
0.018
0.189
0.054
-0.269
-0.094
0.104
0.106
0.110
0.066
0.077
-0.080
-0.038
0.045
-0.024
0.092
0.034
-0.006
0.107
0.161
0.090
0.015
-0.053
0.037
0.044
0.029
-0.009
0.044
-0.058
0.078
0.044
0.005
0.049
-0.011
0.063
0.117
0.073
-0.024
0.048
-0.001
0.034
0.075
0.036
0.027
0.019
0.010
-0.066
0.091
-0.011
-0.014
-0.006
0.017
0.076
0.018
0.597
0.467
-1.152
-0.915
0.290
0.765
0.527
0.048
0.086
-0.167
-0.454
-0.165
0.187
0.117
-0.113
0.109
0.262
0.129
0.042
-0.022
-0.103
0.007
0.044
0.036
-0.035
0.049
0.030
0.101
-0.002
0.050
0.081
0.056
-0.003
0.008
-0.045
-0.023
0.013
0.020
0.032
0.124
0.016
0.126
0.025
0.008
-0.032
0.061
0.082
0.020
-0.032
-0.017
0.043
0.070
0.038
0.112
-0.006
0.066
-0.027
0.030
0.026
-0.011
0.075
0.006
0.016
0.001
0.158
0.244
0.336
-0.569
-0.416
0.279
0.438
0.097
-0.116
0.123
0.062
-0.002
-0.111
-0.032
-0.001
0.060
0.091
0.111
0.305
0.875
-0.612
-1.239
-0.089
0.623
0.766
0.221
-0.137
-0.195
-0.057
0.019
0.047
0.014
-0.074
0.051
0.126
0.090
0.083
0.099
0.073
0.049
0.002
0.109
-0.001
0.049
0.000
0.020
0.016
-0.027
-0.003
0.047
0.018
0.050
0.073
0.064
0.028
0.050
-0.024
0.115
0.020
0.047
-0.001
-0.010
0.027
0.096
0.020
-0.066
0.064
0.049
0.010
-0.002
0.051
0.061
0.095
0.037
-0.098
0.026
0.070
0.013
0.060
0.080
-0.024
0.087
0.021
0.002
-0.070
0.029
0.067
0.079
0.063
0.070
0.066
-0.003
0.017
0.017
0.023
0.052
0.046
0.031
0.043
0.032
0.083
-0.042
-0.022
0.062
0.072
0.061
-0.032
0.000
0.011
0.099
0.123
0.030
-0.025
0.027
0.058
0.102
-0.078
-0.000
0.682
0.286
-1.267
-0.619
0.338
0.713
0.590
0.227
-0.273
-0.517
-0.297
0.102
0.220
0.131
0.061
0.025
0.308
-0.090
-0.208
0.077
0.230
-0.005
-0.161
0.112
0.126
0.078
-0.042
-0.060
0.019
0.007
0.030
0.085
0.015
-0.018
0.026
0.106
-0.038
0.112
-0.035
-0.006
0.020
-0.011
-0.028
0.106
0.034
0.078
-0.033
0.029
-0.020
0.036
-0.012
0.047
0.031
0.048
0.087
-0.016
-0.036
0.082
0.080
0.052
-0.018
-0.012
-0.016
0.017
-0.009
-0.032
0.004
0.067
-0.014
0.109
0.008
0.010
0.061
0.071
0.029
0.023
-0.034
0.020
0.014
-0.011
0.049
0.068
0.008
0.100
0.058
0.095
-0.031
0.011
-0.016
-0.011
-0.023
0.035
-0.022
0.009
0.059
-0.006
0.074
-0.027
0.139
0.869
-0.215
-1.296
-0.336
0.471
0.629
0.348
0.029
-0.098
-0.142
-0.034
0.003
0.017
0.036
0.031
0.186
0.083
-0.007
0.039
0.078
0.074
0.051
0.038
0.003
0.027
0.041
0.021
-0.004
-0.023
-0.014
0.002
-0.041
0.062
0.055
0.069
0.049
0.103
0.052
0.014
-0.015
0.006
0.088
0.031
-0.021
0.104
-0.029
-0.030
0.025
0.008
0.005
0.056
-0.000
0.084
0.021
-0.004
0.055
0.231
-0.019
-0.277
-0.112
0.463
-0.040
-0.145
0.142
0.263
-0.110
-0.204
0.089
0.207
0.027
0.020
-0.044
0.002
0.014
0.052
0.096
0.073
0.067
0.015
0.014
0.102
-0.024
0.011
-0.002
0.005
-0.019
0.030
-0.003
0.089
0.036
0.134
-0.011
-0.038
0.032
0.055
0.058
0.009
0.031
0.053
0.097
0.299
0.842
-0.725
-1.138
-0.070
0.570
0.622
0.386
-0.028
-0.257
-0.162
-0.136
-0.063
-0.013
0.118
0.027
0.158
0.158
0.094
0.055
0.030
0.071
-0.019
-0.071
-0.014
0.029
0.019
0.113
-0.005
0.049
0.031
-0.013
0.035
0.058
0.093
-0.009
-0.033
-0.024
-0.005
0.050
0.015
0.128
0.074
0.079
-0.025
-0.012
0.037
0.048
-0.019
0.019
0.075
-0.012
0.127
0.101
-0.017
0.039
0.005
-0.001
-0.035
-0.013
0.004
0.096
0.021
0.055
-0.004
0.045
0.062
-0.029
-0.051
0.027
0.068
0.074
-0.021
0.067
0.084
-0.037
-0.004
0.036
0.001
-0.009
0.010
0.050
-0.003
0.047
0.133
-0.006
-0.004
0.058
0.027
0.106
0.166
0.077
-0.232
-0.266
0.084
0.202
0.044
-0.016
0.421
0.831
-0.874
-1.144
0.046
0.612
0.549
0.173
-0.057
-0.191
0.040
0.087
-0.392
-0.103
0.161
0.307
0.016
-0.051
0.130
0.103
0.003
-0.046
-0.009
0.000
0.031
0.056
0.020
0.007
-0.023
0.049
0.045
0.052
0.045
0.079
-0.017
-0.009
0.017
0.072
0.012
0.061
0.022
0.050
0.013
0.078
0.114
0.087
-0.045
-0.079
0.012
0.108
-0.029
0.052
0.017
0.038
-0.009
0.033
0.003
-0.001
0.047
0.024
0.054
0.055
0.047
0.028
0.028
-0.001
0.104
0.023
0.069
0.010
-0.038
0.051
0.068
0.025
0.075
0.034
-0.020
-0.071
-0.007
-0.003
0.128
0.062
-0.002
-0.019
0.069
0.110
-0.007
0.014
-0.048
0.019
0.055
0.003
0.038
-0.038
0.054
0.127
0.063
-0.006
-0.010
0.089
0.068
0.035
0.048
0.033
0.042
-0.050
0.027
0.072
0.090
0.061
-0.085
0.040
-0.032
0.093
0.051
0.023
0.087
-0.006
0.110
-0.059
0.015
-0.033
0.026
0.047
0.062
0.438
0.721
-0.854
-1.224
0.065
0.675
0.529
0.251
-0.139
-0.192
-0.090
-0.069
0.070
-0.055
0.095
0.131
0.169
0.048
0.064
0.127
0.078
-0.210
-0.236
0.050
0.150
0.106
0.090
0.045
-0.027
-0.032
-0.043
-0.052
0.057
0.004
-0.008
0.148
0.068
0.051
0.058
0.005
-0.015
0.058
0.023
-0.040
0.016
0.034
0.074
0.106
-0.060
0.124
-0.004
0.048
0.012
0.036
0.023
0.048
0.063
-0.021
0.078
0.009
0.045
0.004
-0.073
0.072
-0.003
0.023
0.058
0.039
0.058
0.066
0.008
-0.018
0.029
0.118
0.024
0.004
0.021
0.010
0.048
-0.001
-0.005
0.087
0.040
0.018
-0.020
-0.020
0.006
0.081
0.005
0.032
-0.058
-0.052
-0.001
0.048
0.095
0.084
0.045
0.056
0.016
0.042
-0.007
0.288
-0.087
-0.299
0.060
0.234
0.143
-0.156
-0.063
0.152
0.102
0.128
-0.006
-0.040
-0.073
0.056
0.149
0.857
-0.558
-1.339
-0.006
0.825
0.595
0.196
-0.069
-0.074
-0.185
-0.038
-0.062
-0.046
0.075
0.096
0.127
0.070
0.084
0.140
0.060
0.064
-0.083
0.023
0.068
-0.019
0.003
-0.033
0.039
-0.030
0.005
0.012
0.067
0.053
0.013
0.056
0.022
0.052
0.143
0.209
-0.006
-0.252
-0.225
0.089
0.238
0.093
0.029
-0.017
-0.026
0.020
0.111
0.005
0.065
-0.001
0.043
0.047
-0.001
-0.022
0.099
0.111
0.066
0.026
0.021
0.017
0.093
0.019
0.061
0.012
0.020
-0.054
0.060
-0.049
0.095
0.069
0.087
-0.070
-0.037
0.001
0.111
-0.038
0.098
-0.019
0.046
0.047
-0.026
-0.134
0.068
0.081
0.045
0.015
0.125
0.012
-0.004
0.005
-0.016
0.032
0.030
0.005
0.060
-0.025
0.042
0.027
0.024
0.049
0.005
0.021
0.061
-0.015
0.033
0.089
0.020
0.021
0.021
-0.057
0.089
-0.008
0.020
0.686
0.256
-1.286
-0.810
0.474
0.792
0.417
0.034
-0.074
-0.163
-0.086
-0.090
-0.006
-0.001
0.001
0.135
0.119
0.118
0.193
0.084
0.028
-0.062
-0.008
0.022
0.011
-0.079
0.032
0.009
-0.003
-0.001
0.037
0.047
0.062
0.037
0.002
-0.016
-0.001
0.061
0.066
0.039
-0.013
-0.006
0.008
-0.019
0.060
0.051
0.042
0.010
0.044
0.016
-0.002
0.049
0.114
0.049
0.013
-0.032
0.006
0.044
0.054
-0.007
0.034
0.037
0.087
-0.009
0.036
0.081
0.284
-0.090
-0.328
-0.189
0.161
0.144
0.189
0.048
-0.053
-0.084
-0.056
0.008
0.086
-0.027
0.027
0.086
0.097
0.026
-0.018
0.033
0.023
0.031
0.037
0.023
0.033
0.059
0.002
0.027
0.112
0.001
-0.006
0.066
0.046
-0.003
0.037
-0.041
0.042
0.102
0.047
0.059
0.033
0.039
0.064
0.080
-0.048
0.023
0.006
0.028
0.015
-0.026
0.121
0.092
0.060
0.074
0.057
0.585
0.455
-1.198
-0.903
0.291
0.776
0.477
0.072
-0.128
-0.095
-0.065
-0.030
0.011
0.043
0.040
0.077
0.128
0.062
0.082
0.002
-0.004
0.055
0.114
0.006
0.016
-0.007
-0.016
0.165
0.070
0.037
-0.002
-0.044
0.021
0.034
-0.061
0.117
0.117
0.078
0.005
-0.032
0.003
-0.019
0.002
0.073
-0.030
0.066
0.011
0.039
-0.021
-0.025
0.005
0.023
0.035
0.026
0.047
0.061
0.080
0.051
0.049
-0.003
0.061
0.056
-0.010
0.022
-0.007
0.051
0.074
-0.026
-0.062
0.048
0.059
0.099
0.218
0.005
-0.263
-0.158
0.128
0.138
0.037
0.037
0.062
-0.031
-0.038
-0.019
-0.064
-0.048
0.068
0.053
0.094
0.170
0.065
-0.022
0.006
-0.019
0.030
-0.012
0.010
0.052
0.056
0.036
0.121
0.038
0.027
0.025
-0.014
0.041
0.027
0.021
0.073
0.036
0.008
0.019
0.051
0.062
0.022
0.042
-0.006
0.061
0.046
0.093
0.005
0.030
0.009
0.096
0.003
0.062
0.017
0.009
0.013
0.027
0.032
0.011
0.025
0.095
0.096
0.002
0.021
0.846
0.057
-1.333
-0.602
0.439
0.705
0.328
-0.005
-0.144
-0.117
-0.017
-0.015
-0.022
0.012
0.104
0.090
0.033
0.041
0.020
0.078
0.095
0.068
-0.029
-0.021
0.015
0.027
0.048
0.019
0.116
-0.096
-0.009
-0.034
-0.031
0.044
0.079
0.019
0.025
0.018
0.047
0.035
0.044
0.039
0.088
-0.014
0.028
0.034
0.011
0.050
-0.037
-0.027
0.101
0.011
0.073
0.000
-0.001
0.100
-0.023
0.001
0.084
0.170
0.095
-0.227
-0.286
-0.028
0.148
0.176
0.079
0.045
-0.046
0.007
-0.018
0.005
0.073
-0.026
0.130
0.090
0.069
0.115
0.034
0.014
-0.007
0.038
0.011
0.085
-0.038
-0.007
0.044
0.020
0.124
0.004
0.043
0.047
0.050
-0.021
0.056
0.062
0.077
0.039
0.049
0.003
0.047
0.012
0.037
0.042
0.077
-0.055
-0.008
-0.029
-0.040
-0.008
0.124
0.067
0.023
0.066
0.013
0.049
0.007
0.045
0.050
0.034
0.020
0.009
0.003
0.008
0.036
0.103
0.048
0.017
0.045
0.004
-0.010
0.069
0.088
0.052
0.014
0.008
0.034
0.060
0.009
0.041
-0.013
0.055
0.021
0.052
0.035
0.090
0.022
0.020
-0.037
-0.002
0.046
0.026
0.037
0.016
-0.051
0.014
0.073
0.053
0.005
0.069
0.051
-0.010
0.049
0.472
0.632
-0.922
-1.046
0.179
0.701
0.539
0.129
0.042
-0.202
-0.190
-0.194
0.002
0.030
0.116
0.098
0.120
0.077
0.009
-0.037
0.014
0.046
0.030
0.099
0.049
-0.002
0.050
0.057
0.123
0.096
-0.121
-0.267
-0.040
0.164
0.173
0.148
0.019
-0.038
-0.012
0.034
0.072
-0.016
0.006
0.037
0.030
0.026
0.090
0.052
0.137
0.024
0.009
-0.018
-0.013
0.018
-0.016
0.083
0.055
0.063
-0.003
-0.043
-0.061
0.108
0.050
0.029
-0.018
0.038
0.102
0.072
0.001
0.033
0.058
0.042
0.073
0.009
0.018
-0.011
0.002
-0.012
0.010
0.070
0.171
0.035
0.008
0.017
-0.006
0.127
-0.001
0.058
0.008
0.037
0.097
-0.012
0.014
0.007
-0.004
0.073
0.079
0.002
0.147
-0.039
0.071
0.067
0.060
-0.016
-0.004
0.066
0.052
0.029
-0.059
0.017
0.016
0.010
0.068
0.057
0.062
0.080
0.055
0.065
0.070
0.001
0.093
-0.054
0.008
0.039
0.100
0.040
0.106
0.004
0.058
-0.089
-0.032
0.045
0.104
0.777
-0.031
-1.287
-0.475
0.461
0.740
0.346
-0.047
-0.160
-0.089
0.003
-0.002
0.019
-0.009
0.151
0.050
0.119
0.055
0.000
0.022
0.028
0.029
0.016
-0.009
0.184
0.107
-0.046
-0.144
-0.437
0.082
0.372
0.203
-0.074
-0.253
0.041
0.098
0.017
-0.100
0.018
0.062
0.078
0.007
0.091
0.113
0.069
0.023
0.093
0.052
0.016
0.012
-0.022
-0.001
-0.002
0.052
0.096
0.081
-0.021
-0.055
0.068
0.035
0.055
0.030
-0.000
0.079
0.010
-0.017
0.029
-0.003
0.005
0.092
0.037
0.007
0.062
0.051
-0.019
-0.027
-0.002
0.055
0.029
0.035
0.025
0.024
0.054
0.143
0.110
0.060
-0.043
0.025
-0.010
0.006
-0.051
-0.025
0.080
0.046
0.057
0.037
0.046
0.059
0.075
-0.026
0.084
0.024
-0.011
0.027
0.053
0.043
-0.069
-0.004
-0.034
0.035
0.098
0.099
0.074
0.010
0.015
0.015
0.037
0.051
-0.022
0.047
0.115
0.048
0.004
0.003
0.061
0.063
-0.003
0.054
0.020
-0.007
-0.040
0.054
0.023
-0.072
0.010
0.020
0.022
0.025
0.032
0.100
0.076
-0.015
0.060
0.056
0.004
0.542
0.438
-1.178
-0.725
0.282
0.741
0.328
0.052
-0.020
0.073
-0.128
-0.323
-0.182
0.141
0.263
0.142
0.134
0.084
0.091
-0.004
-0.025
0.007
0.022
0.040
-0.079
0.101
0.077
0.033
0.107
0.008
0.019
0.031
-0.003
0.001
0.064
-0.008
0.036
0.036
0.082
0.035
0.010
0.022
-0.007
0.054
-0.000
-0.010
0.035
0.017
0.079
0.019
0.011
0.127
0.024
-0.015
-0.007
0.017
0.071
0.130
0.051
-0.118
0.040
0.047
0.015
0.141
0.075
0.057
0.011
0.027
0.028
0.049
0.007
0.053
0.055
-0.024
-0.010
0.006
0.077
0.057
0.061
0.028
0.089
0.042
-0.004
0.006
0.068
0.063
0.033
-0.013
0.029
0.010
-0.013
0.029
-0.014
-0.078
0.040
0.081
0.028
0.030
0.083
0.050
0.070
0.043
-0.048
0.051
0.059
-0.031
0.016
0.034
0.110
0.043
-0.022
-0.007
-0.009
-0.001
0.009
0.055
0.038
0.068
0.044
0.019
-0.021
0.019
0.141
0.142
0.014
-0.072
0.024
0.045
0.043
-0.007
0.034
0.041
0.007
0.029
0.081
0.052
0.055
0.043
0.033
0.000
0.002
-0.088
0.010
0.008
0.017
0.040
0.066
0.082
0.095
0.060
0.043
0.089
-0.024
-0.013
-0.025
0.023
0.079
-0.014
0.017
-0.001
-0.055
0.104
0.219
0.867
-0.383
-1.136
-0.156
0.286
0.303
0.217
0.100
-0.060
-0.094
-0.088
-0.023
0.060
0.017
0.080
0.116
0.110
0.103
0.026
0.085
0.057
0.081
-0.015
0.053
0.009
-0.002
-0.046
0.069
0.036
0.060
0.043
0.053
-0.083
-0.013
0.037
-0.005
0.108
0.042
-0.011
0.045
0.055
0.120
0.065
0.024
-0.015
0.001
0.034
0.068
0.026
-0.012
-0.011
0.054
0.020
0.043
0.027
0.024
0.006
0.037
-0.079
-0.003
0.062
0.011
-0.004
0.198
0.027
-0.223
-0.000
0.236
0.266
-0.179
-0.091
0.206
0.121
0.017
-0.033
-0.054
-0.001
-0.005
0.065
0.091
0.020
0.051
0.027
0.024
0.031
0.061
0.074
-0.007
-0.023
0.049
-0.009
0.005
0.032
0.023
0.074
0.067
0.028
-0.038
0.047
0.023
0.030
0.019
-0.004
0.005
0.031
0.060
0.023
0.057
0.062
0.001
-0.011
0.090
0.022
-0.032
0.093
-0.058
0.059
-0.056
0.051
0.066
-0.005
-0.021
0.114
0.009
0.038
-0.039
-0.019
0.102
-0.011
0.048
0.064
0.148
0.847
-0.295
-1.291
-0.354
0.665
0.634
0.266
0.008
-0.177
-0.058
-0.069
-0.038
-0.058
0.058
0.144
0.097
0.119
0.104
0.057
-0.008
0.039
-0.003
0.076
0.010
0.023
0.001
-0.027
-0.011
0.102
0.088
0.094
0.002
0.054
0.073
-0.040
0.030
0.087
0.223
-0.034
-0.292
-0.097
0.094
0.192
0.140
0.092
0.006
0.009
-0.031
-0.003
-0.057
-0.041
0.073
0.033
0.022
0.053
0.068
0.056
0.053
0.012
0.063
0.044
0.120
0.020
0.007
0.056
0.016
0.009
0.014
0.037
0.009
0.041
0.082
0.033
0.074
0.005
0.004
-0.021
0.031
-0.001
0.042
0.019
0.089
0.032
-0.027
0.061
0.122
0.022
0.035
0.018
0.068
0.032
0.058
-0.024
0.040
-0.089
0.060
0.070
0.019
0.038
0.107
0.028
0.021
-0.058
0.030
0.053
0.031
0.184
0.851
-0.327
-1.394
-0.271
0.585
0.775
0.305
0.033
-0.145
-0.137
-0.107
-0.051
0.023
0.003
0.042
0.162
0.122
0.115
0.083
-0.010
-0.000
0.037
0.080
0.088
-0.003
0.057
0.028
-0.072
-0.007
-0.017
0.076
0.021
0.090
0.038
0.105
0.032
0.058
-0.029
0.072
0.008
0.072
0.027
0.072
-0.016
0.076
0.004
0.007
-0.008
0.101
0.080
0.089
0.077
0.027
0.021
0.011
-0.024
-0.005
-0.041
0.035
0.057
0.116
0.037
0.080
0.018
0.027
0.017
-0.047
0.008
0.020
0.046
0.051
0.035
0.054
0.017
0.202
0.241
-0.110
-0.239
-0.056
0.164
0.147
0.074
-0.006
0.049
-0.072
0.020
0.049
-0.001
0.063
0.106
-0.015
0.088
0.087
0.008
0.038
-0.033
0.024
0.082
0.028
0.023
0.036
0.103
0.025
0.025
0.029
0.048
0.055
0.005
-0.027
0.046
0.010
-0.023
-0.002
0.068
-0.000
0.054
0.042
-0.051
-0.020
-0.012
0.072
0.081
0.019
0.028
-0.027
0.043
0.108
-0.007
0.002
0.082
0.078
0.542
0.508
-1.175
-0.815
0.313
0.757
0.516
0.106
-0.154
-0.257
-0.081
-0.054
0.014
-0.042
0.016
0.142
0.079
0.076
0.048
0.007
0.054
0.016
-0.024
-0.033
-0.013
-0.014
0.083
-0.004
0.142
-0.026
0.029
0.055
0.039
-0.003
0.057
0.073
0.019
-0.001
-0.008
0.012
0.031
0.033
0.078
-0.002
0.039
0.106
-0.022
-0.028
0.037
0.026
0.029
-0.069
-0.024
0.065
0.108
0.047
0.053
0.009
-0.034
0.141
-0.011
0.066
0.024
-0.003
-0.047
0.035
0.028
0.018
-0.003
0.028
0.052
0.062
-0.029
0.115
0.032
-0.030
-0.046
0.008
0.021
0.002
0.016
0.035
-0.008
0.128
-0.010
0.020
0.057
0.047
0.045
0.001
0.063
0.031
0.062
0.064
0.024
-0.021
0.064
0.023
0.008
-0.010
-0.024
0.095
0.261
-0.109
-0.266
-0.028
0.205
0.136
-0.130
-0.111
0.121
0.084
0.008
0.039
0.023
0.029
-0.018
0.003
0.058
0.073
0.055
-0.013
0.074
0.018
0.036
0.026
0.009
0.079
-0.034
-0.064
0.014
-0.008
0.139
-0.004
-0.038
0.079
0.202
0.017
-0.236
-0.162
0.124
0.162
0.085
0.047
-0.003
0.016
0.006
0.052
0.000
0.029
-0.000
0.083
0.184
0.001
0.093
0.075
0.035
0.081
0.103
0.780
-0.411
-1.331
-0.101
0.612
0.607
0.256
-0.108
-0.140
-0.167
-0.113
0.002
0.035
0.066
0.145
-0.003
0.109
0.057
0.051
0.041
0.031
-0.016
0.088
0.022
0.034
0.011
0.003
0.021
0.017
-0.081
0.018
0.052
0.117
0.043
0.111
0.020
0.082
-0.042
0.006
0.022
-0.009
0.050
0.018
-0.005
0.055
0.015
-0.018
0.042
0.035
0.067
0.068
0.042
0.032
0.015
-0.035
-0.013
0.058
0.055
-0.000
0.107
0.003
0.072
0.037
-0.028
0.019
0.037
0.039
0.002
0.061
0.041
-0.043
-0.053
0.072
-0.055
0.024
0.026
0.080
0.018
0.040
0.046
0.032
0.096
0.004
-0.324
-0.110
0.130
0.244
0.099
0.136
-0.009
0.024
0.032
0.097
0.031
0.039
0.039
0.025
-0.035
0.011
0.020
0.114
0.008
0.144
0.016
-0.010
0.020
0.010
-0.042
0.013
-0.044
-0.049
0.011
0.017
0.018
0.072
0.023
0.033
-0.006
0.077
0.023
0.038
0.013
0.104
0.811
-0.047
-1.340
-0.434
0.466
0.790
0.352
0.027
-0.140
-0.117
-0.141
0.035
-0.054
-0.012
-0.000
0.124
0.175
0.096
0.042
0.068
0.056
-0.041
0.083
0.138
-0.440
-0.038
0.133
0.261
-0.033
-0.126
0.058
0.178
0.042
-0.036
-0.062
-0.012
0.117
0.128
-0.019
0.083
-0.017
0.006
-0.008
0.047
0.043
0.021
0.016
0.009
0.104
-0.021
-0.016
-0.035
0.055
0.007
0.137
0.052
0.041
-0.057
0.002
-0.051
0.055
0.016
0.005
0.088
0.021
0.044
0.012
0.045
0.027
0.065
0.046
0.102
0.030
0.092
0.044
0.001
-0.117
0.032
0.030
0.063
0.006
0.033
0.017
0.073
0.015
0.061
0.084
0.056
-0.077
0.027
-0.007
0.079
-0.053
0.026
0.082
0.081
0.036
0.106
-0.067
0.048
-0.007
0.066
0.027
0.075
0.067
0.081
-0.056
0.039
0.057
0.046
0.110
0.181
-0.169
0.044
0.816
-0.622
-1.047
0.018
0.726
0.603
0.163
-0.119
-0.180
-0.142
-0.025
0.010
-0.020
0.110
0.148
0.128
0.077
-0.006
0.089
0.043
0.017
-0.005
0.041
0.059
0.006
-0.033
-0.063
0.003
0.128
0.038
0.034
0.109
-0.073
-0.016
0.028
-0.014
0.032
0.081
0.129
0.125
-0.058
0.035
0.118
0.049
0.010
-0.023
0.046
-0.006
-0.035
0.073
0.061
0.016
0.015
0.248
0.014
-0.322
-0.019
0.200
0.194
-0.025
-0.093
0.139
0.115
0.035
-0.026
-0.027
-0.045
-0.071
0.084
0.154
0.089
0.045
0.002
0.022
0.124
0.026
-0.006
-0.029
-0.031
0.087
0.128
0.020
-0.005
0.048
0.008
0.002
0.121
0.039
-0.007
-0.009
0.010
-0.006
0.029
0.027
0.109
0.104
0.027
-0.057
0.075
-0.009
0.038
0.043
-0.034
0.095
0.003
0.209
0.762
-0.530
-1.110
-0.102
0.600
0.649
0.275
0.021
-0.176
-0.235
-0.097
0.026
-0.044
0.060
0.102
0.098
0.103
0.098
0.069
-0.022
0.004
0.155
0.033
-0.022
-0.034
0.138
0.117
-0.194
-0.103
0.027
0.216
0.112
0.077
-0.001
0.008
0.013
-0.007
-0.012
0.044
0.013
0.062
0.058
0.044
0.030
0.046
0.014
-0.033
0.024
0.010
-0.065
0.002
0.023
0.058
-0.045
0.087
0.016
0.017
0.082
0.095
0.045
-0.051
0.001
0.094
0.010
0.023
0.018
0.033
0.058
0.058
0.002
0.032
-0.096
0.072
0.131
-0.052
-0.009
0.084
0.051
-0.050
0.017
0.054
0.104
0.032
0.003
-0.078
0.028
-0.039
0.061
0.077
-0.010
0.046
0.005
-0.083
-0.000
-0.069
0.061
0.106
0.007
0.017
0.088
0.009
0.039
-0.001
0.490
0.703
-0.987
-1.090
0.368
0.402
0.417
0.305
-0.009
-0.222
-0.279
0.019
0.181
0.054
0.028
0.025
-0.003
0.056
0.031
0.071
0.026
0.110
0.068
-0.015
-0.005
0.058
0.029
0.010
0.013
0.003
0.076
-0.021
0.008
-0.042
0.012
0.016
0.082
-0.028
0.138
-0.069
-0.001
0.058
0.076
0.099
0.009
-0.085
0.042
0.046
0.065
0.072
0.038
0.020
0.018
0.100
0.052
0.064
0.128
0.047
-0.169
-0.279
0.090
0.153
0.096
0.130
-0.004
0.008
0.027
0.121
-0.048
0.049
0.093
0.109
0.078
0.022
-0.052
0.051
0.030
0.018
0.027
-0.027
0.045
0.053
0.011
0.044
0.108
-0.001
0.000
-0.045
-0.043
0.086
0.070
-0.001
0.002
0.012
0.085
0.059
0.034
0.017
0.039
0.068
0.068
-0.009
-0.034
0.048
0.054
0.038
0.003
0.038
-0.015
0.155
0.003
0.022
0.072
-0.048
-0.047
0.028
0.182
0.845
-0.542
-1.210
-0.156
0.473
0.679
0.434
-0.015
-0.235
-0.210
-0.095
-0.061
0.059
0.030
0.046
0.049
0.063
0.054
0.040
0.065
0.052
0.002
0.031
-0.002
-0.011
0.035
0.040
0.053
-0.044
0.044
0.070
0.051
0.083
-0.030
-0.047
-0.021
0.036
0.111
0.089
0.018
-0.023
-0.019
0.052
0.017
0.124
-0.038
0.035
0.033
0.111
-0.023
-0.024
-0.027
-0.007
0.047
0.019
0.041
0.030
0.053
0.101
0.069
-0.002
-0.016
-0.031
0.001
0.013
0.039
0.064
0.034
-0.001
0.020
0.113
-0.039
0.019
-0.002
-0.037
0.061
0.524
-0.190
-0.456
-0.068
0.355
0.239
-0.036
0.035
0.143
0.036
0.053
-0.028
0.009
-0.040
0.036
-0.012
0.030
0.154
0.022
0.016
0.092
-0.026
0.046
0.080
0.010
0.028
0.013
0.014
0.053
0.005
0.122
0.074
0.030
0.007
-0.015
0.090
0.079
-0.022
-0.030
0.007
0.037
0.353
0.737
-0.819
-1.151
-0.026
0.645
0.680
0.200
-0.147
-0.160
-0.102
-0.103
0.110
-0.054
0.106
0.149
0.046
0.092
0.062
0.086
0.019
0.009
0.045
0.085
0.048
0.008
0.063
-0.015
0.028
0.045
0.032
0.038
0.022
0.012
-0.042
0.035
0.019
0.072
0.081
-0.033
0.001
0.084
0.132
0.070
-0.023
-0.086
0.007
-0.004
0.022
0.030
0.050
0.110
-0.016
0.031
0.056
0.070
0.096
-0.143
0.018
0.043
0.076
0.037
0.008
0.052
0.072
-0.085
-0.017
-0.007
0.091
-0.007
0.054
0.021
-0.062
0.026
0.176
0.131
-0.123
-0.265
0.104
0.167
0.133
0.061
0.035
0.004
-0.044
0.061
0.042
-0.023
0.102
0.034
0.011
0.008
0.051
-0.007
0.042
0.091
0.029
0.070
-0.001
-0.036
-0.045
0.018
0.053
-0.011
0.000
-0.054
0.057
0.089
0.032
0.120
0.072
-0.033
-0.084
-0.004
-0.046
0.045
0.112
0.074
-0.038
-0.008
-0.034
0.019
0.022
-0.012
0.106
0.093
0.035
-0.005
0.023
0.049
0.081
0.084
0.048
0.025
0.234
0.884
-0.492
-1.379
-0.192
0.597
0.661
0.312
-0.119
-0.093
-0.143
-0.106
0.016
0.009
0.018
0.168
0.139
0.051
0.130
0.056
0.021
0.001
-0.002
0.085
0.009
-0.023
-0.064
0.125
0.007
-0.008
-0.031
0.100
0.243
-0.252
-0.122
0.125
0.239
0.063
-0.165
0.003
0.143
0.212
-0.033
-0.088
-0.017
0.070
-0.044
0.025
0.011
0.009
0.050
0.094
0.021
-0.010
0.050
0.048
0.093
0.006
0.041
0.031
0.003
0.118
0.016
0.009
-0.000
0.040
0.034
0.094
-0.042
0.046
0.020
0.000
-0.004
0.107
0.021
-0.053
-0.061
0.011
0.060
0.122
0.075
0.010
-0.008
0.029
-0.073
0.054
0.159
0.156
0.085
-0.079
-0.339
-0.176
0.171
0.166
0.094
0.068
-0.023
0.021
0.075
0.019
-0.063
-0.004
-0.034
0.097
0.129
0.062
0.057
0.166
-0.021
0.001
0.025
0.021
0.065
0.028
0.019
0.027
0.028
0.018
-0.017
0.053
0.054
0.045
-0.006
0.044
0.033
0.018
0.057
-0.047
-0.022
0.020
0.075
0.076
0.016
0.050
-0.007
0.073
0.053
0.040
-0.011
0.041
-0.006
0.042
0.033
0.014
0.603
0.504
-1.198
-0.853
0.329
0.709
0.474
0.106
-0.165
-0.225
-0.119
-0.064
0.030
0.011
0.064
0.140
0.110
0.025
0.128
0.065
0.050
0.079
0.006
0.062
0.028
-0.069
0.045
0.074
0.040
0.042
-0.008
0.117
0.054
0.027
0.028
-0.003
-0.001
-0.068
0.034
0.063
-0.003
-0.015
0.016
0.092
-0.006
0.033
0.044
0.014
0.022
-0.023
0.013
0.052
-0.061
-0.001
0.005
0.014
0.126
0.119
0.041
-0.031
0.031
0.123
-0.031
0.119
-0.031
0.010
0.022
-0.012
0.035
0.115
0.071
0.297
-0.268
-0.206
0.109
0.266
0.140
-0.097
-0.271
-0.023
0.239
0.177
0.010
0.089
0.083
0.010
0.032
-0.007
0.013
0.014
0.039
0.073
0.105
0.100
0.004
-0.039
0.007
-0.010
0.102
0.032
0.000
0.040
0.021
0.005
0.104
-0.040
0.026
0.034
0.091
0.073
0.019
0.008
-0.025
0.047
0.117
0.007
0.056
-0.003
0.021
0.065
-0.004
0.260
0.828
-0.720
-1.162
-0.014
0.597
0.594
0.210
-0.061
-0.163
-0.112
-0.011
0.000
0.029
0.138
0.091
0.145
0.107
0.041
0.050
0.052
0.136
0.045
-0.002
-0.025
-0.004
0.040
-0.036
0.064
-0.001
0.020
0.018
-0.010
0.017
0.077
0.113
-0.006
-0.028
-0.008
0.030
-0.026
0.046
0.066
0.039
0.001
0.040
0.044
0.061
0.068
0.037
-0.023
-0.014
-0.014
0.058
0.008
0.036
0.104
0.012
-0.030
0.104
0.032
0.012
0.029
0.034
0.062
0.050
0.028
-0.017
-0.031
0.029
0.067
0.054
0.028
0.078
-0.029
0.043
-0.059
0.049
0.159
0.135
-0.231
-0.208
-0.047
0.152
0.087
0.125
0.053
0.028
-0.063
-0.030
0.064
0.059
-0.051
0.014
-0.026
0.076
0.069
0.003
-0.023
0.085
0.054
0.033
0.003
0.020
0.078
0.041
-0.059
0.061
0.507
0.479
-1.142
-0.793
0.226
0.678
0.541
0.084
-0.124
-0.108
-0.059
-0.165
-0.063
0.097
0.090
0.062
0.085
0.056
0.053
0.220
0.096
-0.267
-0.094
0.197
0.125
-0.150
-0.133
0.174
0.226
0.028
-0.127
-0.049
-0.036
-0.016
0.046
0.070
0.120
0.071
0.058
0.017
0.013
0.016
0.075
0.036
0.024
0.023
0.004
-0.006
0.034
0.085
0.059
0.103
0.053
0.032
0.054
0.043
0.025
0.053
0.019
0.020
-0.028
0.003
0.024
0.104
0.050
0.075
-0.035
0.002
-0.001
0.078
-0.036
0.009
0.076
0.039
-0.016
0.035
0.033
0.084
0.007
0.080
0.029
-0.019
0.004
-0.052
0.051
0.066
0.055
0.055
0.041
0.078
0.084
0.018
0.022
0.032
0.022
0.053
0.035
0.011
-0.066
0.032
0.055
0.052
0.094
0.047
0.056
0.079
-0.013
0.010
-0.024
-0.014
0.018
0.004
-0.025
0.060
0.068
-0.002
0.016
0.059
0.291
0.040
0.456
-0.046
-1.216
-0.529
0.511
0.792
0.406
-0.030
-0.286
-0.220
-0.050
0.059
0.062
0.078
0.107
0.041
0.062
0.009
0.080
0.012
0.009
0.091
0.097
0.022
-0.009
0.033
0.019
0.093
0.013
-0.043
-0.064
0.032
0.037
0.057
0.054
0.025
0.110
0.069
-0.006
-0.012
0.013
0.062
-0.016
-0.003
0.112
0.007
0.076
0.042
0.030
-0.006
0.067
-0.002
-0.018
0.068
0.073
0.022
0.022
-0.025
0.027
-0.023
0.064
0.035
0.098
-0.003
0.118
0.051
0.049
0.089
0.047
-0.032
0.003
0.050
0.028
0.033
0.055
0.010
0.106
-0.008
0.017
0.050
0.104
0.198
-0.272
-0.133
0.146
0.239
-0.074
-0.065
0.136
0.128
0.062
-0.073
-0.007
0.019
-0.043
-0.039
0.063
0.082
0.039
0.028
0.086
-0.013
0.148
0.045
0.217
0.830
-0.463
-1.311
-0.132
0.543
0.657
0.320
-0.100
-0.209
-0.098
0.005
0.044
0.092
0.012
-0.245
-0.061
0.191
0.326
0.133
0.038
-0.012
-0.073
0.023
0.056
-0.044
0.048
0.007
0.037
0.045
0.085
-0.060
0.044
0.046
0.010
0.042
-0.009
-0.005
0.065
0.066
0.093
-0.034
0.000
-0.048
-0.013
0.116
0.003
0.026
0.040
0.030
0.047
0.033
0.095
0.028
-0.005
-0.041
0.007
0.046
0.057
-0.020
0.014
0.052
0.075
0.010
0.047
0.086
0.060
-0.033
0.018
0.138
0.011
-0.054
0.056
0.113
0.020
-0.018
0.075
-0.040
0.082
0.034
0.033
0.062
0.013
0.015
0.093
0.061
-0.012
-0.035
0.074
0.053
0.062
-0.055
-0.006
0.112
0.049
0.024
-0.009
-0.065
-0.004
0.032
0.017
0.026
0.076
0.015
0.104
0.001
0.115
0.026
0.013
-0.053
0.044
0.072
-0.069
0.002
0.043
0.621
0.380
-1.227
-0.632
0.325
0.704
0.527
0.066
-0.175
-0.183
-0.135
-0.040
0.038
0.142
0.034
0.096
0.042
0.127
0.059
0.042
0.112
0.024
-0.027
0.044
0.060
-0.015
-0.073
0.042
0.062
0.051
-0.004
-0.011
0.005
-0.007
0.048
0.080
0.035
0.082
-0.032
-0.029
0.053
0.154
-0.032
0.084
0.005
0.008
0.283
0.308
-0.456
-0.353
0.083
0.321
-0.064
-0.101
0.106
0.181
0.044
-0.137
-0.030
0.016
0.069
0.074
0.041
0.107
0.111
0.020
0.107
0.090
0.057
0.044
0.009
0.006
0.012
-0.020
0.089
0.106
0.010
-0.026
-0.012
0.079
0.051
0.080
-0.013
-0.024
-0.037
0.057
0.074
0.094
0.005
0.009
-0.012
-0.024
0.015
0.019
0.178
0.032
-0.015
0.011
0.070
0.013
0.011
0.047
0.064
0.040
-0.024
-0.017
0.023
0.090
0.040
0.000
0.000
0.025
0.049
0.034
0.009
0.021
-0.001
0.079
0.067
-0.003
-0.045
0.093
0.061
0.037
-0.091
-0.034
0.010
0.046
0.055
0.034
0.064
0.768
0.175
-1.409
-0.656
0.441
0.836
0.437
-0.007
-0.140
-0.113
-0.127
-0.019
0.002
0.053
0.008
0.091
0.083
0.061
0.054
0.125
0.076
-0.032
-0.008
-0.019
-0.033
0.025
0.059
-0.001
-0.050
0.043
-0.001
-0.008
0.094
0.005
-0.010
0.073
0.016
0.034
0.036
0.017
0.034
-0.026
0.124
0.054
-0.044
0.025
0.033
-0.001
0.026
0.052
-0.018
0.012
0.037
0.076
0.033
0.055
0.033
0.036
-0.046
0.029
0.053
0.045
-0.004
-0.001
0.039
0.039
0.036
0.026
0.048
0.015
0.158
0.217
-0.136
-0.284
-0.024
0.210
0.131
0.081
-0.029
-0.045
0.074
0.034
0.011
-0.002
0.024
0.023
0.075
0.040
0.032
0.003
0.044
0.002
0.037
-0.023
0.056
-0.039
0.074
0.021
-0.020
0.004
0.032
0.064
0.102
0.081
0.044
0.006
0.040
-0.011
0.066
-0.034
-0.057
0.050
0.049
0.030
0.019
-0.051
0.043
0.040
0.031
-0.003
0.083
0.741
0.102
-1.313
-0.515
0.463
0.758
0.342
-0.039
-0.221
-0.196
-0.055
-0.003
0.025
0.017
0.113
0.094
0.048
0.038
0.101
0.123
0.050
0.045
-0.051
0.052
-0.015
0.001
0.013
-0.046
0.040
0.080
0.020
0.011
0.045
0.101
-0.039
0.007
0.030
0.013
-0.018
0.123
0.015
0.097
0.024
-0.018
0.017
0.042
-0.052
-0.000
0.048
0.022
-0.000
0.052
0.018
0.073
-0.033
0.006
0.103
0.059
-0.012
0.041
0.013
0.035
0.039
0.051
0.013
0.081
-0.014
0.058
-0.001
0.046
0.030
0.042
-0.017
-0.040
0.032
0.078
0.045
0.073
-0.068
-0.015
0.087
0.049
0.027
0.053
0.002
0.050
-0.037
0.032
0.022
0.119
0.212
-0.015
-0.254
-0.147
0.369
-0.127
-0.102
0.184
0.172
0.057
-0.274
-0.092
0.149
0.249
0.825
-0.382
-1.273
-0.152
0.598
0.573
0.232
-0.013
-0.190
-0.080
-0.029
-0.021
-0.048
0.025
0.138
0.124
-0.003
0.140
0.094
0.037
0.018
0.011
-0.002
-0.012
0.026
0.008
0.057
0.037
0.067
0.013
0.052
-0.044
-0.051
0.034
-0.052
0.044
0.039
0.029
0.047
-0.011
0.006
0.098
0.052
0.058
0.017
0.060
0.085
0.019
-0.057
0.000
0.065
0.063
0.062
0.045
0.049
0.092
0.009
0.042
-0.016
0.027
0.028
0.146
0.016
0.017
0.004
0.052
0.011
0.060
-0.005
0.074
0.073
0.073
-0.004
0.039
-0.026
0.069
0.070
0.031
-0.044
0.047
0.072
0.028
0.001
0.062
0.035
0.066
-0.006
0.007
-0.022
-0.014
0.003
0.084
0.098
0.009
0.119
0.027
-0.025
0.001
0.048
0.020
0.049
0.046
0.033
0.064
0.162
0.196
-0.271
-0.243
0.033
0.241
1.019
-0.094
-1.385
-0.377
0.450
0.685
0.384
0.033
-0.203
-0.180
-0.119
-0.046
0.059
0.074
0.063
0.143
0.086
0.076
0.086
-0.000
0.036
0.004
0.007
0.052
0.067
-0.029
-0.029
-0.005
0.094
0.032
-0.036
0.065
-0.007
0.016
0.046
0.032
0.033
0.079
-0.011
0.004
0.036
0.057
-0.022
0.004
0.057
0.049
-0.008
0.054
0.034
0.073
0.076
-0.047
-0.005
0.003
-0.035
0.024
0.115
0.066
0.113
-0.031
-0.043
-0.022
0.089
0.043
-0.032
-0.044
0.010
0.044
0.015
-0.003
0.100
0.100
0.037
0.028
0.082
0.043
0.004
-0.049
0.070
-0.003
0.020
0.088
0.063
0.003
0.061
0.014
0.030
0.032
-0.012
0.047
0.072
0.025
-0.028
-0.027
0.079
0.120
0.013
-0.023
-0.003
0.043
0.029
0.072
0.011
0.144
0.159
-0.146
-0.294
-0.057
0.172
0.119
0.146
0.019
-0.066
-0.009
-0.030
-0.019
0.044
0.108
0.053
0.096
0.022
0.066
0.049
-0.043
-0.035
0.027
0.005
0.049
0.445
0.845
-0.788
-1.219
0.073
0.749
0.585
0.129
-0.142
-0.227
-0.154
-0.025
0.022
-0.003
0.144
0.102
0.109
0.017
0.103
0.052
0.047
0.063
0.005
-0.039
-0.040
-0.008
-0.015
0.116
0.093
-0.079
-0.030
0.029
0.047
0.042
-0.004
-0.004
0.046
0.105
0.048
0.065
-0.036
0.081
-0.020
-0.034
0.080
0.068
0.044
0.020
0.043
0.018
-0.029
0.003
0.091
0.294
-0.136
-0.249
0.074
0.282
0.050
-0.200
-0.075
0.161
0.092
0.002
-0.081
0.020
0.090
0.133
-0.015
0.043
0.048
0.153
0.076
-0.029
-0.090
0.017
0.027
0.011
0.036
0.086
0.037
0.042
0.010
0.005
0.082
0.036
0.015
-0.014
-0.008
-0.005
0.045
-0.049
0.259
0.077
-0.174
-0.172
0.138
0.174
-0.010
0.044
0.033
-0.079
-0.035
-0.018
0.010
0.669
0.430
-1.187
-0.794
0.447
0.771
0.480
0.103
-0.113
-0.215
-0.103
-0.074
0.021
0.037
0.142
0.101
0.070
0.019
-0.009
0.043
0.075
0.016
0.008
-0.007
-0.003
0.073
0.038
-0.054
-0.083
0.082
-0.028
0.045
0.026
-0.020
0.036
0.068
0.054
-0.024
0.072
0.054
-0.007
-0.005
-0.063
0.013
0.052
0.050
0.035
0.044
0.049
0.068
-0.063
-0.033
0.037
0.109
0.055
0.102
-0.088
0.079
0.023
0.027
0.043
0.053
0.026
0.058
0.021
0.042
0.125
0.017
-0.078
-0.058
-0.015
0.050
0.086
0.044
0.006
0.022
0.033
0.094
-0.011
-0.024
0.015
0.007
-0.073
0.050
0.079
0.013
0.048
0.160
0.036
0.022
0.074
0.060
-0.026
0.088
0.008
0.025
-0.015
0.028
0.013
0.165
0.143
-0.100
-0.202
0.071
0.152
0.089
0.099
-0.060
0.015
0.074
-0.058
0.047
0.030
0.023
0.091
-0.023
0.022
-0.023
0.071
0.100
0.030
0.070
0.001
0.092
0.849
-0.136
-1.330
-0.382
0.459
0.671
0.376
0.003
-0.136
-0.129
-0.091
-0.034
0.113
-0.012
0.058
0.115
0.188
0.095
0.081
-0.041
0.036
-0.044
-0.020
0.047
0.023
0.012
-0.001
0.008
0.030
-0.012
-0.042
0.074
0.034
-0.019
0.010
-0.006
0.070
0.090
0.050
0.014
0.119
0.040
-0.034
-0.104
-0.018
-0.004
0.111
0.023
0.004
0.054
0.057
0.011
0.062
0.054
-0.028
0.031
0.065
-0.015
0.058
0.053
0.025
-0.012
0.014
-0.001
0.125
0.080
0.007
0.009
0.000
0.024
0.069
-0.100
0.079
0.287
-0.241
-0.095
0.185
0.230
-0.077
-0.265
0.077
0.184
0.192
-0.023
-0.011
-0.010
-0.024
-0.067
0.646
0.348
-1.180
-0.729
0.360
0.886
0.464
0.021
-0.032
-0.091
-0.343
-0.198
0.064
0.148
0.157
0.159
0.109
0.082
-0.003
0.057
0.017
-0.015
-0.014
0.080
0.031
-0.005
0.035
0.027
0.034
0.049
0.043
-0.002
0.091
0.068
0.026
-0.003
0.039
0.041
0.050
-0.028
0.060
0.004
0.022
0.081
0.012
-0.024
0.024
0.109
0.059
-0.008
-0.050
0.053
0.054
0.057
0.084
-0.014
-0.004
0.061
0.071
0.053
-0.051
-0.027
0.067
0.142
0.040
-0.002
0.017
0.042
0.099
0.072
-0.085
0.009
0.032
0.064
-0.009
0.016
0.088
-0.002
-0.008
-0.022
-0.041
0.068
0.066
0.014
0.004
-0.010
0.061
0.047
0.003
0.029
0.044
0.034
-0.005
-0.067
0.152
0.041
0.017
-0.030
0.003
0.031
0.028
0.127
0.065
0.045
0.005
0.046
-0.016
0.057
0.024
0.050
0.024
0.030
0.011
0.085
0.005
0.084
0.067
-0.006
0.040
-0.009
0.016
0.048
0.001
-0.025
-0.034
0.119
0.028
0.045
0.023
0.051
-0.017
0.016
0.039
0.156
0.187
-0.113
-0.287
-0.043
0.106
0.109
0.089
0.132
0.001
-0.076
0.048
0.908
-0.310
-1.280
-0.126
0.572
0.648
0.292
-0.008
-0.040
-0.074
-0.032
-0.091
-0.116
0.013
0.099
0.165
0.115
0.129
0.028
0.069
0.082
0.047
0.002
-0.014
0.078
0.073
-0.010
0.052
0.025
-0.027
0.019
0.093
0.032
0.098
-0.027
0.038
-0.005
0.071
-0.009
-0.008
0.034
0.129
0.037
-0.024
-0.034
0.029
0.111
0.041
-0.025
-0.004
0.063
0.061
0.127
0.027
-0.063
0.039
0.028
0.089
0.005
0.045
0.044
0.024
0.107
0.287
-0.307
-0.124
0.111
0.169
0.100
-0.109
-0.003
0.182
0.076
-0.008
-0.080
0.032
0.077
0.098
0.033
0.105
0.092
0.015
-0.018
0.089
0.020
-0.041
0.045
0.049
0.038
0.022
0.069
-0.095
0.063
0.096
0.109
0.169
0.141
-0.076
-0.187
-0.213
0.073
0.198
0.110
0.205
0.075
-0.105
-0.012
0.144
0.804
-0.555
-1.245
-0.095
0.625
0.599
0.209
-0.042
-0.121
-0.128
0.013
0.036
-0.039
-0.045
0.104
0.116
0.061
0.106
0.040
0.004
0.052
0.030
0.062
0.025
0.045
0.018
-0.029
-0.013
-0.058
0.096
0.068
0.050
0.038
0.014
0.006
0.045
-0.055
0.058
-0.022
0.008
0.077
0.010
0.013
0.052
0.037
-0.019
0.037
0.087
-0.046
0.021
-0.036
-0.075
0.098
0.123
-0.051
0.042
-0.040
0.093
0.074
0.040
-0.017
0.011
0.028
-0.046
0.008
0.047
-0.005
0.036
0.039
0.142
0.037
0.108
0.034
0.014
0.010
0.039
-0.034
-0.005
0.051
-0.035
0.008
0.022
-0.005
-0.045
0.013
0.053
-0.006
0.077
0.060
-0.062
-0.027
-0.026
-0.002
0.041
0.076
0.092
0.084
0.067
-0.038
0.039
0.071
0.009
0.106
0.150
0.208
-0.170
-0.230
0.034
0.203
0.078
0.020
-0.006
0.073
-0.015
-0.054
-0.058
0.087
0.019
0.097
0.021
0.078
0.025
0.017
0.085
0.039
-0.019
0.028
-0.011
0.034
0.046
0.861
-0.034
-1.293
-0.433
0.497
0.690
0.386
0.034
-0.190
-0.135
-0.078
0.012
0.018
-0.031
0.105
0.165
0.070
0.095
0.053
0.056
-0.015
0.137
-0.016
-0.020
-0.013
0.055
0.046
-0.086
-0.068
0.011
0.107
0.124
0.049
0.056
-0.017
0.112
-0.014
0.088
-0.058
0.032
0.066
0.056
0.016
0.057
0.010
0.123
0.042
0.005
0.041
0.083
0.032
0.026
-0.073
0.059
0.052
0.120
-0.030
0.009
0.036
-0.001
0.079
0.088
0.011
-0.036
0.005
0.081
0.090
0.050
0.042
0.043
-0.059
-0.004
0.038
0.072
0.143
-0.039
0.104
0.017
0.078
-0.005
0.016
0.039
0.098
-0.021
-0.055
0.068
0.020
0.047
0.047
0.031
0.006
0.011
0.014
0.008
-0.031
0.144
0.209
-0.014
-0.247
-0.213
0.131
0.148
0.157
0.059
0.027
0.049
0.007
0.022
-0.027
0.012
0.021
-0.004
0.092
0.061
0.069
0.093
0.139
0.064
-0.027
-0.003
0.024
0.036
0.019
0.004
0.041
-0.012
-0.051
0.067
0.010
0.046
0.064
0.139
0.033
0.050
0.045
-0.020
-0.049
-0.013
0.016
0.095
0.002
0.094
0.022
-0.078
0.062
0.056
0.068
0.757
0.182
-1.381
-0.581
0.413
0.766
0.350
0.044
-0.048
-0.159
-0.126
-0.073
0.083
0.043
0.009
0.196
0.109
0.109
0.021
0.057
0.020
0.018
0.058
0.016
-0.022
-0.051
0.002
0.118
0.063
0.022
-0.008
0.023
0.044
0.061
0.044
0.013
0.032
0.089
0.012
0.002
0.042
0.049
0.000
-0.034
0.033
0.274
-0.144
-0.293
0.056
0.294
0.170
-0.123
-0.056
0.126
0.122
0.045
-0.062
-0.071
-0.042
0.137
0.069
0.098
0.018
0.087
0.100
0.031
0.171
0.131
-0.271
-0.208
-0.007
0.121
0.153
0.024
0.043
0.035
0.001
-0.001
0.003
0.008
0.038
0.022
0.046
0.063
0.043
0.054
-0.008
-0.048
0.006
0.101
0.016
0.048
-0.056
0.002
0.069
0.097
0.097
0.036
0.047
-0.070
-0.009
0.026
0.041
0.110
0.054
-0.007
-0.052
0.006
0.050
0.056
0.016
-0.022
0.041
0.066
0.057
0.002
0.066
-0.034
-0.004
-0.025
0.110
-0.042
0.031
0.006
0.046
0.033
-0.030
0.006
0.046
0.048
0.005
0.107
0.067
-0.027
-0.013
-0.030
0.010
0.008
-0.002
-0.007
-0.029
0.032
0.150
-0.009
-0.002
0.081
0.001
-0.065
0.011
-0.057
0.131
0.074
0.144
0.475
0.621
-1.081
-0.891
0.219
0.700
0.459
0.114
-0.116
-0.141
-0.055
-0.054
-0.017
0.063
0.053
0.097
0.085
0.040
0.076
0.035
0.027
-0.028
-0.014
0.082
0.059
0.039
0.068
-0.011
0.145
0.069
-0.154
-0.241
0.017
0.152
0.203
-0.005
0.030
0.043
-0.095
-0.012
0.094
0.006
0.037
0.030
0.083
0.138
0.005
0.080
-0.019
0.054
0.097
0.042
-0.076
0.027
0.054
0.021
0.043
0.083
0.018
0.062
0.028
0.041
-0.013
-0.041
-0.069
0.041
0.124
-0.045
0.063
0.000
-0.008
0.058
0.049
0.037
-0.029
0.083
-0.042
0.029
0.030
0.041
0.096
0.024
-0.036
0.032
0.037
0.122
-0.014
0.011
0.001
0.041
0.070
0.074
0.054
-0.002
-0.027
0.004
-0.046
-0.027
0.009
0.069
0.084
0.030
0.068
0.030
0.080
-0.017
0.022
0.041
-0.008
0.018
-0.003
0.001
0.090
-0.022
0.038
0.019
0.091
0.016
0.014
0.102
0.050
0.027
0.017
-0.044
0.065
-0.074
-0.027
0.034
0.119
0.107
0.038
-0.060
-0.063
0.001
0.120
0.100
0.049
-0.053
0.055
0.219
0.160
-0.194
-0.186
0.033
0.234
0.112
0.039
0.014
0.028
-0.004
0.017
0.009
0.047
0.011
0.047
-0.015
0.071
0.010
0.110
0.880
-0.232
-1.365
-0.325
0.610
0.639
0.341
-0.117
-0.149
-0.057
-0.067
-0.059
0.085
0.057
0.124
0.038
0.005
0.048
0.097
0.109
0.065
0.021
-0.074
-0.014
-0.019
-0.074
0.068
0.054
0.083
-0.006
0.042
-0.001
0.170
0.120
-0.019
-0.041
0.034
-0.025
0.000
0.023
0.074
0.051
-0.034
0.032
0.116
-0.012
-0.046
0.023
0.046
0.061
-0.012
-0.046
0.040
0.110
0.043
0.018
0.031
0.004
-0.036
-0.009
0.041
0.071
0.081
0.026
0.028
-0.019
0.047
-0.040
0.041
-0.006
0.062
0.033
0.061
0.009
0.015
-0.020
0.019
0.018
-0.024
0.050
-0.001
0.008
0.075
0.107
0.018
0.013
0.061
0.085
0.034
0.024
0.080
0.048
0.064
-0.034
0.045
-0.038
-0.055
0.014
0.039
-0.011
-0.038
-0.026
0.040
0.041
0.085
0.018
0.011
0.045
-0.047
0.047
0.087
0.122
-0.040
-0.198
0.022
0.199
0.080
0.054
-0.002
-0.054
0.055
-0.028
0.065
0.031
0.116
0.101
0.035
0.123
0.845
-0.119
-1.271
-0.427
0.571
0.686
0.321
-0.023
-0.215
-0.098
-0.020
0.013
-0.034
0.083
0.092
0.056
0.105
0.080
0.063
0.024
0.091
0.049
0.028
0.065
-0.054
-0.029
-0.023
0.029
0.047
0.008
0.056
0.024
-0.037
0.046
0.048
0.040
-0.012
-0.016
-0.044
0.087
0.025
0.052
0.030
0.062
0.014
0.043
0.080
0.047
0.034
0.023
0.007
0.084
0.010
0.044
0.030
-0.022
-0.018
0.122
-0.060
0.065
-0.011
0.213
-0.172
-0.178
0.093
0.219
0.040
-0.231
0.013
0.160
0.120
-0.049
0.026
-0.062
0.002
0.011
0.073
0.004
0.057
0.048
0.019
0.068
0.131
0.028
0.019
-0.039
0.043
0.055
0.040
-0.007
0.022
-0.013
0.118
-0.004
0.037
-0.030
0.055
-0.003
0.047
0.002
-0.034
0.030
0.049
0.148
0.236
-0.157
-0.167
-0.054
0.196
0.190
0.061
0.045
-0.115
0.004
0.050
0.020
0.007
0.121
-0.023
0.075
0.000
0.061
0.076
0.080
0.703
0.330
-1.241
-0.705
0.414
0.636
0.506
0.068
-0.179
-0.161
-0.044
0.016
0.014
0.088
0.078
0.093
0.088
0.090
0.075
0.018
-0.026
0.069
0.004
-0.006
-0.010
0.011
0.089
0.091
-0.027
-0.027
0.074
0.062
0.009
0.008
0.107
0.028
-0.030
-0.009
0.101
-0.024
0.012
0.036
-0.040
0.013
0.029
-0.020
0.043
-0.006
-0.015
0.088
0.050
0.092
0.082
-0.019
0.074
-0.001
0.088
-0.050
0.017
0.038
0.070
-0.005
0.116
0.064
0.056
0.020
-0.010
-0.019
0.078
-0.050
0.047
0.011
-0.022
0.004
0.111
0.088
0.023
0.032
0.135
-0.021
0.049
-0.042
0.015
0.076
0.032
0.046
0.027
0.050
0.067
0.052
0.082
-0.066
0.053
-0.061
0.007
0.059
0.102
0.044
0.042
0.014
-0.034
0.037
0.114
0.084
0.067
0.069
-0.024
0.032
0.107
0.069
0.001
0.245
0.101
-0.289
-0.118
0.134
0.163
0.135
0.047
-0.014
-0.030
-0.099
0.083
0.045
0.019
0.053
0.150
-0.004
0.062
0.051
0.036
0.014
0.076
0.087
-0.035
0.055
0.019
0.105
0.030
0.048
0.072
0.009
0.011
0.006
-0.043
0.155
0.807
-0.575
-1.193
-0.047
0.565
0.694
0.238
-0.003
-0.312
-0.144
-0.097
0.065
0.006
0.084
0.062
0.138
0.114
0.023
-0.013
0.076
0.100
-0.001
-0.022
0.149
-0.064
0.009
0.012
-0.014
0.043
0.042
0.034
0.060
0.053
0.041
0.053
-0.015
-0.007
-0.002
-0.006
0.079
0.050
0.036
0.071
0.070
-0.031
-0.008
0.046
0.070
0.036
-0.039
0.025
0.030
-0.013
0.038
0.018
0.052
-0.047
0.000
0.050
0.106
0.037
0.021
-0.043
-0.031
0.057
0.074
0.056
0.065
0.056
-0.026
0.030
0.073
0.012
0.037
0.141
0.116
-0.195
-0.149
0.068
0.176
0.151
0.096
0.058
0.020
0.030
-0.035
-0.006
-0.028
0.008
0.066
0.027
0.098
0.134
0.067
-0.008
0.043
0.047
-0.022
-0.031
-0.025
0.053
0.074
0.095
-0.022
-0.003
0.033
-0.010
-0.017
0.049
-0.027
0.033
0.038
0.003
0.065
0.023
0.040
0.098
0.025
-0.001
0.084
-0.008
-0.040
0.081
0.028
0.053
0.090
0.041
-0.027
0.025
0.016
0.073
0.054
0.083
0.011
-0.015
0.020
0.004
0.037
0.027
0.021
0.105
0.101
0.022
-0.000
-0.041
0.042
0.686
0.290
-1.220
-0.665
0.327
0.728
0.448
0.039
-0.097
-0.157
-0.159
-0.052
-0.020
-0.034
0.070
0.090
0.381
-0.125
-0.139
0.184
0.246
-0.006
-0.155
-0.090
0.135
0.106
0.265
-0.008
-0.259
-0.203
0.117
0.339
0.078
-0.095
-0.070
0.025
0.018
0.057
0.016
0.093
0.025
-0.044
0.024
0.074
0.061
0.025
0.011
0.049
0.011
-0.027
-0.031
0.062
0.049
0.014
0.018
0.173
0.092
0.044
0.019
0.082
-0.017
0.047
-0.004
0.040
-0.000
0.012
0.045
0.034
-0.011
-0.008
0.041
0.023
-0.004
-0.088
0.062
0.037
0.086
-0.047
0.000
0.023
0.067
0.060
0.062
0.001
0.120
-0.006
-0.009
0.026
0.083
0.046
0.100
0.083
0.030
-0.038
0.003
0.062
-0.020
0.003
-0.046
0.071
0.050
0.070
0.094
0.031
-0.025
0.003
-0.033
0.029
0.052
0.029
0.115
-0.017
0.054
0.083
0.015
0.012
-0.051
0.037
0.015
0.040
0.066
-0.012
-0.001
0.060
0.109
0.896
-0.244
-1.195
-0.327
0.567
0.622
0.244
0.008
-0.067
-0.145
-0.251
-0.125
0.121
0.151
0.186
0.111
0.133
0.080
0.040
0.007
-0.037
-0.072
-0.014
0.046
0.138
0.048
-0.003
0.020
-0.026
0.034
0.031
0.045
0.031
0.035
-0.029
0.044
0.078
0.052
0.043
0.039
0.053
0.046
-0.111
0.003
0.042
0.029
-0.007
0.012
-0.000
0.075
0.057
0.078
0.031
-0.013
-0.010
0.084
0.116
0.047
0.043
0.162
0.021
0.031
-0.044
0.004
0.040
0.039
0.012
-0.004
0.005
0.037
-0.013
0.064
0.017
0.146
-0.024
0.014
0.000
0.075
-0.009
0.080
0.056
0.060
-0.037
0.072
0.058
-0.004
-0.040
0.065
0.052
-0.026
0.039
0.004
0.032
0.102
-0.033
0.008
0.022
0.037
0.117
0.043
0.051
-0.066
0.053
0.111
0.034
-0.029
0.024
-0.004
0.038
0.064
0.023
0.089
0.062
0.066
0.081
-0.042
0.044
0.065
0.077
0.020
0.064
0.286
-0.008
-0.007
0.675
-0.557
-1.123
-0.210
0.512
0.833
0.421
-0.110
-0.247
-0.187
-0.065
-0.011
0.035
-0.046
0.100
0.044
0.138
0.094
0.139
0.096
0.040
0.062
-0.013
0.004
0.010
-0.026
-0.034
-0.023
-0.014
0.089
0.083
0.021
-0.032
0.076
0.023
-0.015
-0.015
-0.018
0.028
0.009
-0.022
0.020
0.079
0.044
0.035
0.113
0.075
0.009
-0.015
0.091
-0.031
0.040
0.070
-0.016
0.044
0.050
0.037
0.032
0.002
0.012
0.044
0.029
-0.022
-0.004
-0.048
0.082
0.050
0.068
-0.001
0.050
0.079
0.035
0.042
0.018
-0.021
0.018
0.029
0.005
0.097
0.026
0.122
0.023
-0.020
0.024
0.033
0.023
0.018
0.043
0.019
-0.058
0.017
0.056
0.114
0.045
0.019
-0.028
0.187
0.014
-0.230
-0.120
0.161
0.186
0.141
0.027
0.070
0.016
0.007
-0.048
-0.023
0.074
0.003
0.008
0.030
-0.049
0.172
0.105
0.101
0.411
0.670
-0.981
-1.039
0.190
0.639
0.434
0.131
-0.125
-0.136
-0.023
0.033
0.008
-0.069
0.010
0.098
0.084
0.044
0.048
0.100
0.095
0.096
0.025
-0.009
0.023
0.022
0.018
0.024
-0.030
0.029
0.073
0.052
0.044
0.027
0.042
0.037
0.034
-0.016
0.237
-0.266
-0.147
0.127
0.204
-0.030
-0.153
0.077
0.176
0.103
-0.032
-0.084
0.001
-0.019
0.007
0.032
0.068
0.050
0.027
0.098
0.035
-0.013
0.004
0.003
0.080
0.048
0.066
0.040
-0.017
0.028
0.021
0.050
0.075
0.033
-0.033
0.036
0.034
0.026
0.008
0.004
0.005
0.143
0.088
0.101
-0.020
-0.021
-0.062
0.114
0.188
-0.105
-0.228
-0.049
0.100
0.131
0.021
0.006
0.041
0.041
-0.084
-0.008
0.121
0.027
0.039
0.046
0.031
0.082
0.103
0.047
0.038
-0.073
-0.075
0.003
0.040
0.069
0.047
-0.002
0.024
0.004
-0.003
0.059
0.017
0.012
0.013
-0.008
0.013
-0.029
0.022
0.040
0.031
0.109
0.018
0.035
0.617
0.381
-1.119
-0.868
0.357
0.818
0.416
0.065
-0.132
-0.178
-0.174
-0.037
0.062
0.005
0.046
0.053
0.052
0.171
0.071
0.021
-0.014
0.021
-0.002
0.024
-0.066
0.055
0.112
0.061
-0.011
0.001
0.052
0.062
0.047
0.027
-0.001
0.029
0.010
0.013
0.040
-0.019
0.070
-0.005
0.042
0.035
0.007
0.000
0.096
0.050
0.013
-0.003
0.031
-0.004
0.042
-0.019
0.041
0.011
0.146
0.037
0.132
0.147
-0.102
-0.273
-0.080
0.136
0.238
0.125
0.093
0.031
-0.019
-0.018
0.030
-0.055
0.019
0.025
0.016
0.049
0.163
0.037
0.079
0.006
-0.046
0.036
0.047
0.098
0.031
-0.024
-0.047
0.059
-0.001
0.067
0.014
0.045
-0.036
0.026
0.017
0.069
0.098
0.047
-0.030
0.041
0.045
0.009
-0.032
0.032
0.069
0.055
-0.007
0.009
0.013
0.078
0.084
0.093
-0.013
0.046
-0.003
-0.008
0.041
-0.000
0.129
0.049
0.049
0.086
-0.313
-0.162
0.180
0.229
0.006
-0.238
0.067
0.153
0.057
-0.012
-0.017
0.009
0.076
0.080
0.052
-0.018
-0.039
0.126
-0.033
0.059
-0.013
0.023
0.053
0.006
0.058
0.608
0.362
-1.231
-0.698
0.458
0.703
0.537
-0.019
-0.198
-0.204
-0.036
0.034
0.165
-0.049
-0.171
-0.098
0.154
0.201
0.147
0.058
0.007
0.059
-0.044
-0.011
-0.054
-0.006
0.094
-0.001
0.024
0.002
0.125
0.107
0.062
-0.078
0.030
-0.023
-0.013
0.111
0.021
0.050
0.061
0.033
-0.028
0.030
0.089
0.094
-0.073
-0.054
-0.001
0.058
0.125
0.081
0.054
0.074
0.059
0.003
-0.040
-0.002
0.092
0.049
0.116
0.045
-0.016
0.101
-0.030
0.022
0.025
-0.057
0.010
0.052
0.057
-0.005
-0.021
-0.014
0.104
0.072
0.049
-0.048
-0.035
0.029
-0.007
0.057
0.004
0.029
0.043
0.049
0.146
0.017
-0.001
0.055
0.028
0.059
0.003
-0.053
0.020
0.072
-0.063
0.050
0.028
0.056
-0.000
0.039
0.069
-0.044
0.044
0.097
0.167
0.023
-0.235
-0.139
0.031
0.126
0.036
0.055
0.027
0.033
0.011
-0.031
0.012
0.046
0.043
0.112
-0.002
0.099
0.033
0.019
-0.041
-0.011
0.040
-0.037
-0.009
0.023
0.039
0.042
0.003
-0.014
0.066
0.115
-0.007
-0.022
-0.056
0.019
0.039
0.029
0.055
0.080
-0.009
-0.020
0.053
0.014
0.054
-0.032
0.082
0.024
0.053
-0.022
0.076
0.047
0.073
-0.018
0.030
0.523
0.476
-1.182
-0.851
0.284
0.867
0.423
0.064
-0.073
-0.066
-0.086
-0.014
-0.131
-0.040
-0.023
0.160
0.127
0.219
0.047
0.010
-0.045
0.030
0.016
0.012
0.008
0.003
0.077
0.008
0.018
0.051
0.033
0.057
0.039
0.008
0.071
0.113
0.015
0.054
0.023
-0.038
0.077
0.037
0.071
0.048
-0.039
0.023
0.001
0.049
0.014
0.002
0.060
0.195
0.162
-0.106
-0.198
-0.021
0.136
0.139
0.118
0.030
0.021
-0.056
-0.030
-0.004
0.028
0.066
0.068
0.082
0.084
0.000
0.117
0.070
-0.005
0.090
-0.046
0.060
0.053
-0.024
0.115
0.011
-0.033
0.004
0.061
0.022
-0.038
0.013
0.095
0.041
0.016
0.027
0.019
-0.001
0.006
0.042
-0.043
0.014
0.062
-0.003
0.060
0.048
0.055
0.036
0.003
0.055
-0.018
-0.011
0.025
0.057
0.049
0.015
0.064
0.064
0.020
0.018
0.015
0.001
-0.040
0.065
0.067
0.047
0.001
-0.069
0.043
0.025
0.090
0.021
0.069
0.703
-0.081
-1.310
-0.506
0.513
0.746
0.407
-0.013
-0.193
-0.123
-0.078
0.017
0.051
-0.026
0.133
0.091
0.125
0.079
0.115
0.017
0.023
-0.060
0.027
0.017
0.016
0.087
0.158
-0.160
-0.165
0.103
0.219
-0.225
0.009
0.183
0.160
-0.117
-0.186
0.061
0.174
0.110
0.051
-0.054
-0.051
-0.004
0.107
0.053
0.053
0.040
0.105
0.065
0.043
-0.032
0.051
0.017
0.010
0.060
0.031
0.007
0.040
0.074
0.028
0.039
0.072
0.079
-0.027
-0.021
-0.011
0.095
0.051
0.006
0.042
0.043
0.001
0.061
-0.008
0.037
-0.016
-0.005
0.006
0.059
-0.008
0.038
0.119
-0.007
0.035
0.005
0.122
-0.017
0.127
0.023
0.031
0.023
0.004
0.043
0.037
0.016
-0.010
-0.036
-0.047
0.009
-0.025
0.087
0.075
-0.016
0.023
-0.013
0.011
0.012
0.060
0.033
0.100
0.104
0.005
-0.045
-0.027
-0.022
0.086
0.053
0.035
-0.014
0.091
0.080
0.112
0.009
-0.005
-0.035
-0.074
-0.031
0.125
0.864
-0.373
-1.224
-0.163
0.496
0.667
0.392
-0.065
-0.442
-0.349
-0.002
0.150
0.123
0.077
0.095
0.113
0.006
0.073
0.041
0.015
-0.038
0.064
0.016
0.020
0.087
0.022
0.112
-0.029
0.042
-0.030
0.025
-0.023
0.027
0.011
0.056
-0.015
0.009
-0.034
0.027
0.046
-0.045
0.063
0.030
0.081
0.091
0.038
-0.010
-0.021
-0.002
-0.000
0.033
0.030
-0.002
0.155
0.006
-0.004
0.025
0.047
0.041
0.097
-0.003
0.030
-0.025
0.055
0.050
0.092
0.018
0.315
-0.273
-0.232
0.175
0.249
0.107
-0.215
-0.074
0.123
0.105
0.045
-0.040
0.055
0.109
0.081
0.019
-0.031
0.024
0.053
-0.018
-0.019
0.054
-0.011
0.052
-0.026
0.002
0.030
0.001
0.132
0.031
-0.009
0.033
0.040
-0.006
0.096
0.004
0.088
0.078
0.024
0.033
0.012
-0.006
-0.053
0.044
0.045
-0.004
0.094
0.064
0.144
0.196
0.360
0.214
-1.192
-0.749
0.424
0.816
0.589
0.050
-0.238
-0.169
-0.145
-0.040
-0.021
-0.013
0.070
0.101
0.145
0.181
0.081
-0.016
0.042
0.025
-0.035
-0.029
-0.116
-0.027
0.116
0.072
0.024
-0.031
0.088
-0.013
-0.044
0.001
0.002
-0.047
0.072
0.121
0.020
0.073
0.017
-0.025
-0.001
0.070
0.047
-0.072
0.106
0.111
-0.019
-0.066
-0.106
0.040
0.174
0.035
0.083
-0.011
-0.063
-0.026
0.084
0.044
-0.028
-0.002
-0.052
0.023
0.019
0.032
0.008
0.049
0.001
0.123
0.077
0.004
0.050
0.075
-0.008
0.007
0.056
0.025
-0.047
0.037
0.010
-0.028
0.056
0.054
0.035
-0.029
0.057
-0.058
0.010
0.034
0.052
0.001
0.008
-0.008
0.033
-0.057
0.199
0.218
-0.171
-0.284
-0.059
0.351
0.131
-0.164
0.017
0.087
0.147
-0.061
-0.016
0.126
0.131
-0.036
-0.050
0.030
0.006
0.142
0.145
-0.030
0.009
0.014
0.033
0.007
-0.047
-0.043
0.025
0.005
0.835
-0.030
-1.394
-0.400
0.522
0.813
0.300
-0.046
-0.169
-0.136
-0.110
-0.016
0.034
0.133
0.110
0.098
0.040
0.038
-0.014
0.028
0.044
0.004
0.073
-0.031
0.062
-0.025
-0.042
-0.040
0.039
0.034
0.054
0.069
0.090
0.006
0.027
0.056
0.023
-0.059
0.006
-0.077
-0.032
0.126
0.129
0.014
-0.045
-0.054
-0.006
-0.004
0.066
0.035
0.083
0.027
-0.055
0.072
0.127
0.137
-0.182
-0.262
0.127
0.202
0.079
0.050
-0.055
-0.042
0.072
-0.001
0.066
0.085
0.008
0.072
0.022
0.018
0.061
0.028
-0.009
0.039
0.042
0.054
0.011
0.047
0.021
-0.083
0.019
0.076
0.059
0.111
0.040
-0.004
-0.048
0.027
-0.024
0.086
0.006
0.082
-0.012
0.035
-0.023
0.045
0.248
0.852
-0.663
-1.196
-0.100
0.590
0.645
0.162
-0.026
-0.081
-0.176
-0.032
-0.033
-0.003
0.070
0.125
0.085
0.098
0.057
0.033
0.110
0.076
0.035
-0.011
-0.088
-0.068
0.039
0.058
0.013
0.107
0.189
0.108
-0.352
-0.068
0.179
0.226
-0.069
-0.154
0.108
0.126
0.046
0.004
0.085
-0.002
0.049
0.001
0.095
-0.064
0.085
0.068
-0.046
0.041
0.048
0.027
-0.007
0.074
0.207
0.089
-0.327
-0.213
0.067
0.189
0.112
0.028
-0.015
0.007
0.041
0.023
0.044
0.020
0.033
-0.014
0.031
-0.013
0.084
0.146
0.135
0.087
-0.022
-0.043
-0.074
0.048
0.103
0.046
0.049
0.051
0.065
0.013
-0.013
0.028
-0.009
-0.007
0.007
0.017
0.102
0.014
0.037
0.013
0.017
0.074
0.107
0.088
0.025
0.003
0.026
0.049
0.052
0.013
0.026
0.072
0.016
0.021
0.010
-0.042
0.085
0.025
-0.032
-0.011
0.033
0.157
0.050
0.055
0.087
-0.012
-0.054
-0.010
0.667
0.394
-1.215
-0.747
0.460
0.772
0.408
0.019
-0.162
-0.144
-0.124
-0.029
-0.019
0.090
0.123
0.022
0.072
-0.004
0.090
0.102
0.124
-0.031
-0.005
0.085
0.015
-0.004
0.093
0.002
0.053
0.032
-0.024
0.093
0.043
-0.063
-0.013
0.018
0.094
0.122
0.060
0.189
0.046
-0.222
-0.122
0.091
0.118
0.122
0.050
0.022
-0.056
-0.029
-0.010
0.034
0.089
0.004
-0.038
0.095
0.161
0.101
0.021
-0.014
-0.046
-0.037
0.092
0.050
0.082
0.073
-0.031
-0.038
-0.006
0.044
0.028
0.095
0.048
0.014
0.071
0.003
0.060
0.027
0.014
0.035
0.015
0.026
0.064
0.011
0.051
-0.039
0.064
0.073
0.048
-0.046
-0.053
0.105
0.053
0.121
0.055
-0.028
0.013
-0.040
0.088
0.100
0.054
0.013
0.057
0.038
0.095
0.017
-0.023
-0.036
0.031
0.075
0.023
-0.012
0.058
0.058
-0.025
0.115
0.033
-0.015
0.022
0.007
0.083
0.025
0.031
0.060
0.006
0.593
0.413
-1.131
-0.764
0.298
0.726
0.432
0.080
-0.234
-0.216
-0.078
0.020
0.089
-0.009
0.059
0.099
0.142
0.057
0.093
0.054
0.022
0.058
0.027
0.008
0.009
0.165
0.113
-0.297
-0.192
0.032
0.182
0.186
0.185
0.123
-0.053
-0.024
-0.012
0.086
0.026
-0.022
0.149
0.087
0.069
0.002
0.019
-0.009
0.102
0.049
-0.094
-0.004
0.064
-0.036
0.007
-0.055
0.020
0.081
-0.022
-0.020
0.049
0.040
-0.000
0.040
0.033
0.027
0.044
0.166
0.022
0.079
-0.039
0.030
0.087
0.007
-0.031
-0.017
0.124
0.166
0.057
-0.036
-0.148
-0.007
0.110
0.024
-0.017
0.019
-0.021
0.084
0.092
0.013
0.049
-0.091
0.010
0.004
0.071
-0.041
0.038
0.141
-0.033
0.013
0.046
0.025
0.037
0.002
0.082
-0.000
0.061
0.054
-0.028
0.010
-0.001
-0.029
0.086
0.050
0.061
0.009
-0.010
0.121
0.037
0.066
0.047
-0.091
0.084
-0.023
0.169
0.876
-0.622
-1.247
0.035
0.643
0.676
0.151
-0.188
-0.224
-0.117
-0.049
0.038
0.238
0.174
-0.158
-0.215
0.085
0.107
0.262
0.097
-0.008
0.053
-0.010
0.011
0.043
0.029
0.036
0.041
-0.019
0.008
0.017
0.058
-0.011
0.076
0.013
0.043
0.065
0.038
0.017
0.041
0.050
0.028
-0.030
-0.034
0.061
0.066
0.080
0.037
0.022
0.061
-0.010
-0.008
0.093
0.150
0.066
-0.044
-0.046
0.007
0.071
0.015
0.120
0.055
0.007
0.040
0.036
0.014
0.021
-0.024
0.064
0.084
0.063
-0.052
0.054
0.001
0.034
0.033
0.033
0.014
0.089
0.037
0.000
0.083
0.031
0.009
0.035
-0.056
-0.002
0.130
0.067
-0.015
-0.040
0.085
0.070
0.119
0.090
-0.025
-0.056
0.035
0.062
0.050
0.022
0.071
-0.034
0.101
0.085
0.039
-0.004
-0.035
0.042
0.058
0.103
0.042
0.020
0.037
0.056
0.039
0.006
0.057
0.074
0.106
0.075
-0.036
0.035
-0.004
0.005
0.203
0.043
-0.183
-0.294
0.067
0.166
0.175
0.127
0.046
-0.085
-0.011
-0.022
0.026
-0.023
0.030
0.072
0.077
0.117
0.114
0.069
0.002
0.050
0.081
-0.016
0.004
-0.075
0.084
-0.017
0.110
0.014
0.019
0.017
0.083
0.037
0.197
0.732
-0.630
-1.258
-0.098
0.673
0.703
0.199
-0.129
-0.228
-0.189
-0.016
0.109
-0.001
0.028
0.064
0.051
0.025
-0.015
0.129
0.078
-0.019
0.068
0.005
-0.025
0.031
0.020
0.054
0.032
0.016
-0.019
-0.002
0.093
0.072
-0.018
0.065
0.008
0.032
-0.027
0.117
-0.012
0.001
0.013
0.113
0.006
-0.015
0.080
0.023
-0.080
-0.039
-0.003
0.028
0.001
0.044
0.022
0.113
0.014
0.024
0.066
-0.011
0.052
0.023
-0.056
0.062
0.130
-0.001
0.066
0.017
-0.071
0.030
0.079
0.077
-0.104
0.018
0.037
0.212
0.190
-0.124
-0.258
-0.087
0.163
0.209
0.116
0.024
-0.016
-0.000
0.007
-0.039
-0.001
0.026
0.108
0.015
0.044
0.081
0.042
-0.022
0.029
0.026
0.110
-0.034
-0.004
0.079
0.009
0.032
-0.063
0.093
0.010
0.042
0.048
0.033
0.013
0.088
0.016
0.058
-0.003
0.080
0.048
-0.012
-0.011
0.015
0.084
0.066
-0.009
0.017
0.069
-0.003
0.064
0.068
-0.033
-0.001
0.042
0.066
0.068
0.051
0.135
-0.034
-0.025
-0.035
0.011
-0.004
0.060
0.028
0.009
0.049
0.008
0.006
0.002
-0.020
0.040
0.021
0.052
0.104
0.037
0.102
0.055
-0.012
0.073
0.126
-0.043
0.044
0.020
0.057
0.022
0.126
0.038
0.004
-0.007
0.157
0.142
0.126
-0.193
-0.069
0.739
-0.442
-1.095
0.074
0.561
0.586
0.214
-0.083
-0.266
-0.153
-0.089
-0.023
0.086
0.081
0.141
0.077
0.075
0.077
0.037
0.020
0.034
0.060
0.030
-0.071
0.009
0.065
0.059
0.008
0.044
0.097
-0.009
-0.017
0.037
-0.013
0.027
0.047
0.064
0.060
-0.007
0.019
0.005
0.105
0.017
0.042
0.043
0.015
0.024
0.007
0.108
0.056
-0.011
0.034
0.007
-0.015
0.049
0.009
0.108
0.051
-0.100
0.066
-0.008
0.034
0.178
0.070
0.044
-0.028
-0.025
-0.030
-0.009
-0.030
0.007
0.086
0.088
-0.017
0.050
-0.021
0.049
0.015
0.023
0.076
0.064
0.091
0.046
0.024
0.014
0.074
0.031
0.040
-0.011
0.012
0.103
0.043
-0.059
0.017
0.068
0.269
-0.066
-0.272
-0.093
0.120
0.135
0.146
0.054
-0.041
-0.009
-0.027
0.018
0.024
0.046
0.037
0.061
-0.016
0.044
0.058
0.185
-0.017
0.043
0.023
-0.068
0.045
0.051
-0.015
0.068
0.047
0.015
-0.033
0.008
0.069
0.023
-0.052
-0.078
0.029
0.118
0.050
0.129
0.007
-0.002
-0.032
0.051
0.029
-0.034
0.023
0.031
0.060
0.371
0.552
-0.505
-1.177
0.067
0.645
0.414
0.231
0.111
-0.117
-0.152
-0.087
-0.036
0.021
-0.024
0.119
0.102
0.207
0.011
0.045
0.026
-0.006
0.122
-0.029
-0.118
-0.025
-0.023
0.130
0.076
0.038
-0.013
0.032
0.000
0.002
-0.001
0.018
0.076
0.055
0.178
0.123
-0.262
-0.219
0.108
0.138
0.138
0.031
0.066
0.022
-0.020
0.038
0.030
-0.054
0.055
0.070
0.021
0.122
0.030
0.007
-0.007
-0.049
0.098
0.077
0.011
-0.091
0.136
0.014
0.001
0.073
0.014
0.147
0.020
-0.040
-0.125
0.175
0.158
-0.028
-0.050
0.019
-0.014
0.024
0.056
0.042
0.012
-0.055
0.044
0.106
0.070
-0.024
-0.064
-0.012
0.042
0.038
0.049
-0.043
0.082
0.042
0.030
0.035
-0.055
-0.022
0.114
0.100
0.029
0.026
-0.036
0.017
0.065
-0.037
-0.019
0.036
0.061
0.058
0.170
-0.025
-0.004
-0.039
0.027
0.024
0.032
-0.028
0.081
0.013
0.168
0.846
-0.453
-1.305
-0.199
0.688
0.682
0.232
-0.169
-0.151
0.049
-0.165
-0.185
-0.087
0.156
0.214
0.146
0.081
0.063
0.008
-0.065
-0.021
0.050
0.016
0.068
-0.039
0.063
0.087
0.030
0.037
0.012
0.015
-0.010
0.021
-0.031
0.116
0.014
0.117
0.002
0.017
-0.042
0.063
0.014
-0.020
-0.067
0.061
0.051
0.061
-0.028
0.018
0.035
0.101
0.101
0.075
0.052
-0.019
-0.021
0.022
0.048
0.036
0.001
-0.031
0.035
-0.076
0.063
-0.006
0.009
0.104
0.048
-0.040
0.017
0.037
0.024
0.090
0.045
0.037
0.033
0.039
0.090
-0.040
-0.038
-0.086
0.087
0.073
0.154
0.038
0.051
-0.042
0.015
-0.029
0.037
0.073
0.087
0.064
0.016
-0.002
0.014
0.018
0.063
0.050
-0.015
0.041
0.087
-0.039
0.005
0.138
0.144
-0.154
-0.190
0.015
0.114
0.098
0.060
0.035
-0.105
-0.047
0.049
0.064
0.025
0.026
0.037
0.081
0.018
-0.038
-0.041
0.020
0.069
0.024
0.059
0.071
0.097
-0.037
0.047
-0.022
0.039
0.011
0.016
0.018
0.066
0.150
0.040
0.097
-0.010
0.029
-0.012
-0.061
0.006
-0.027
0.072
0.000
0.022
0.044
-0.004
-0.011
0.008
0.040
0.063
-0.010
0.028
0.031
0.076
-0.027
0.069
0.005
0.017
0.006
-0.062
0.068
-0.010
-0.004
0.065
0.077
0.092
0.070
0.100
0.825
-0.272
-1.378
-0.172
0.528
0.666
0.259
0.003
-0.153
-0.152
-0.023
0.025
0.049
-0.044
0.000
0.104
0.263
0.037
-0.071
-0.064
0.013
-0.007
0.039
0.188
0.095
-0.336
-0.174
0.075
0.184
0.198
0.085
0.047
-0.084
0.047
-0.011
0.039
0.040
0.106
0.044
0.064
0.045
0.067
-0.017
0.096
0.019
0.032
0.004
0.106
-0.025
-0.004
-0.050
0.026
0.080
0.067
-0.040
0.017
0.081
0.013
-0.022
0.032
0.024
0.019
0.054
0.035
0.057
0.000
0.016
0.011
0.036
0.044
0.014
0.028
-0.015
0.023
0.030
0.045
0.043
0.068
-0.003
0.026
0.015
0.068
0.077
0.078
-0.002
-0.041
-0.035
0.062
0.053
-0.010
0.052
0.015
-0.019
0.055
-0.019
0.074
0.000
0.012
0.004
-0.001
0.102
0.009
0.037
0.012
-0.010
0.043
0.092
0.029
-0.019
0.035
0.079
-0.019
0.041
-0.005
0.068
0.025
-0.016
0.066
0.035
0.027
0.069
-0.008
-0.021
0.059
0.035
0.648
0.689
-1.203
-1.160
0.108
0.795
0.619
0.138
-0.118
-0.083
-0.164
-0.061
0.056
-0.018
0.126
0.082
0.101
0.103
0.086
0.019
0.068
0.023
0.054
-0.047
0.030
0.046
0.004
-0.028
0.066
0.073
-0.008
-0.010
0.058
0.051
0.016
0.047
0.114
0.010
-0.001
-0.064
0.054
0.060
0.077
-0.022
0.147
0.001
-0.001
-0.026
0.133
0.084
0.043
0.021
0.040
-0.013
-0.099
0.026
0.057
0.111
0.008
-0.088
0.044
0.030
0.103
0.006
0.064
0.056
0.017
0.008
-0.005
0.048
0.055
0.024
0.074
0.059
0.031
0.017
0.050
0.008
0.030
0.034
-0.019
-0.005
0.030
-0.011
0.053
