-0.094
-0.089
-0.138
-0.001
0.107
0.059
0.112
0.078
0.069
-0.020
0.027
0.021
0.038
-0.110
-0.013
-0.024
0.080
0.093
0.053
-0.067
-0.070
-0.030
-0.005
0.063
0.185
0.006
-0.023
0.024
-0.015
0.031
-0.016
0.005
-0.050
0.068
0.024
0.027
0.007
0.278
1.124
-0.940
-1.588
-0.033
0.667
0.813
0.231
0.007
-0.164
-0.175
-0.132
-0.067
-0.035
0.036
0.187
0.354
0.597
-0.254
-0.606
-0.242
0.180
0.242
0.319
0.204
-0.072
-0.096
-0.168
-0.180
0.016
0.066
0.088
0.052
0.060
0.125
0.121
0.037
0.002
0.002
0.085
0.092
0.071
-0.031
0.021
0.033
-0.034
-0.036
-0.024
0.054
0.019
0.027
0.052
0.061
0.208
0.029
-0.053
0.059
0.090
-0.043
-0.020
0.073
0.174
-0.439
-0.092
0.326
0.156
0.172
0.072
0.059
-0.005
-0.042
0.011
-0.011
0.703
0.661
-1.421
-1.000
0.272
0.665
0.578
0.102
-0.086
-0.187
-0.110
-0.332
-0.187
0.105
0.297
0.280
0.110
-0.020
0.007
0.014
0.105
0.189
0.160
0.017
-0.023
0.022
0.033
0.008
0.069
-0.030
-0.041
0.003
-0.036
-0.011
0.072
0.105
-0.049
0.041
0.081
0.067
-0.005
-0.031
0.152
0.218
0.054
0.005
-0.028
-0.028
-0.043
0.024
0.006
0.095
0.149
-0.047
0.050
0.104
0.078
0.055
-0.010
0.005
0.025
0.009
0.034
0.004
-0.139
-0.053
0.209
0.345
0.118
-0.043
-0.074
0.445
0.177
-0.666
-0.478
0.130
0.325
0.270
0.193
0.132
-0.024
-0.172
-0.100
0.076
1.406
-0.478
-2.133
-0.208
0.887
1.037
0.573
0.007
0.031
-0.139
-0.249
-0.623
-0.500
0.107
0.481
0.526
0.221
0.032
-0.115
-0.143
-0.100
-0.014
0.062
0.128
0.058
0.079
0.083
0.042
0.004
-0.058
-0.090
0.071
0.217
0.226
0.033
-0.098
-0.101
-0.011
-0.073
0.003
0.231
0.064
0.045
0.009
-0.042
-0.065
0.017
-0.119
-0.017
0.054
0.071
-0.001
-0.028
0.052
-0.011
0.002
0.112
0.158
0.077
-0.044
-0.148
0.041
0.037
0.109
0.070
0.011
-0.043
0.064
0.061
-0.014
0.115
-0.061
-0.062
0.011
0.061
0.026
0.103
0.679
0.687
-1.446
-0.922
0.325
0.603
0.518
0.252
-0.104
-0.172
-0.089
-0.178
-0.077
0.086
0.094
0.111
-0.306
0.046
0.326
0.352
0.148
-0.079
-0.038
0.063
-0.035
0.074
-0.025
0.008
-0.018
0.048
0.032
0.054
0.069
-0.012
-0.041
-0.052
0.060
0.093
0.126
0.066
-0.015
-0.024
0.186
0.538
-0.275
-0.782
-0.158
0.280
0.233
0.285
0.205
-0.013
-0.128
-0.212
-0.015
0.100
0.246
0.063
-0.002
0.004
-0.030
0.040
0.129
0.056
0.066
0.094
0.050
0.016
-0.028
0.031
0.045
0.031
-0.001
0.005
0.056
0.061
0.099
1.196
-0.188
-1.666
-0.523
0.438
0.694
0.445
0.085
-0.032
-0.075
-0.081
-0.186
-0.169
-0.036
0.231
0.222
0.060
0.069
0.000
0.067
0.075
-0.036
0.072
-0.007
-0.028
0.003
0.165
0.275
-0.024
-0.136
-0.098
-0.146
0.171
0.322
0.136
-0.152
-0.451
-0.242
0.154
0.357
0.200
0.194
-0.175
-0.415
0.057
0.292
0.205
-0.015
-0.103
-0.030
0.025
0.068
0.095
0.001
0.095
0.083
0.053
0.040
0.007
-0.023
-0.091
0.020
0.008
0.021
-0.060
-0.073
0.009
0.113
0.099
-0.004
0.103
0.197
-0.063
-0.050
0.041
0.076
0.033
0.112
0.032
0.016
-0.013
-0.005
0.066
0.017
0.021
-0.017
0.049
1.157
-0.148
-1.716
-0.454
0.522
0.769
0.442
0.063
-0.135
-0.111
-0.151
-0.166
-0.058
0.068
0.058
0.109
0.088
0.101
0.132
0.032
-0.003
0.088
-0.047
0.049
-0.053
-0.153
0.142
0.206
0.048
0.050
-0.116
-0.066
0.058
0.070
0.079
0.031
0.151
-0.029
-0.004
-0.046
0.066
0.103
0.022
-0.110
-0.071
0.093
0.015
0.018
0.060
0.072
0.171
0.165
0.041
0.519
-0.313
-0.839
-0.206
0.477
0.359
0.124
0.010
0.038
-0.048
-0.061
-0.073
-0.009
0.042
0.099
-0.039
0.055
0.064
0.065
-0.005
-0.012
0.056
0.038
0.062
0.036
-0.012
0.038
0.044
0.097
0.047
0.025
0.092
1.139
-0.139
-1.718
-0.560
0.366
0.780
0.537
0.095
-0.011
-0.154
-0.200
-0.171
-0.043
0.124
0.090
0.100
0.001
0.098
0.146
0.021
0.080
0.024
0.031
-0.001
-0.008
-0.014
-0.027
0.041
-0.042
-0.100
0.032
0.211
0.193
0.086
-0.022
-0.063
-0.058
0.042
0.040
0.144
0.157
0.065
0.010
0.024
-0.079
0.064
-0.072
-0.090
0.024
0.113
0.094
-0.058
-0.043
0.120
0.088
0.043
0.019
0.008
0.030
-0.010
0.092
0.069
0.017
0.048
0.105
0.004
0.069
0.217
-0.103
-0.337
0.078
0.412
0.367
-0.015
-0.160
-0.010
-0.042
0.890
0.100
-1.751
-0.619
0.576
1.023
0.664
0.115
-0.301
-0.290
-0.258
-0.164
0.022
0.115
0.164
-0.006
0.095
0.230
0.200
0.067
-0.071
-0.043
-0.005
0.047
0.052
0.063
0.048
0.051
0.039
-0.071
0.069
0.621
-0.060
-0.773
-0.325
0.284
0.223
0.258
0.214
0.090
-0.070
-0.109
-0.072
-0.081
0.025
0.080
0.088
0.117
0.030
-0.027
0.165
0.146
0.001
0.083
0.064
0.017
0.020
0.026
0.014
-0.003
-0.010
-0.011
0.138
-0.002
0.017
0.094
-0.033
0.123
0.001
0.019
0.140
-0.361
-0.216
0.292
0.393
1.087
0.276
-1.629
-1.110
0.186
0.813
0.627
0.214
0.242
-0.582
-0.798
0.194
0.501
0.286
0.105
0.152
0.106
-0.226
-0.552
-0.130
0.270
0.436
0.356
0.167
0.056
-0.087
-0.114
-0.033
-0.024
-0.007
-0.018
0.016
0.070
0.151
0.054
-0.046
-0.049
0.067
0.050
0.011
-0.025
0.033
0.148
0.044
-0.106
-0.074
0.087
0.003
0.063
0.055
0.034
0.001
0.062
0.037
0.034
-0.159
0.023
0.106
0.162
0.072
-0.023
-0.038
-0.109
-0.011
0.100
0.094
0.125
0.059
-0.022
-0.037
0.090
0.092
0.035
0.048
-0.073
-0.005
0.057
0.045
0.082
0.282
0.477
-0.405
0.466
-0.062
-1.577
-0.765
0.663
1.171
0.831
-0.041
-0.383
-0.374
-0.320
-0.164
0.026
0.025
0.144
0.250
0.315
0.010
0.075
0.289
0.164
0.112
-0.117
-0.154
-0.044
-0.028
0.008
0.108
0.116
0.018
0.056
0.066
0.006
0.013
-0.019
0.009
-0.008
0.030
0.155
0.000
-0.020
0.011
0.024
0.071
0.061
-0.050
0.015
0.037
0.050
0.045
0.047
0.038
0.103
0.099
0.012
-0.017
0.009
0.054
-0.008
0.097
0.036
0.102
-0.002
-0.045
-0.069
0.034
0.154
0.068
0.070
0.002
-0.040
-0.049
0.088
0.165
0.051
0.042
0.188
1.230
-0.277
-1.770
-0.338
0.439
0.745
0.445
0.059
-0.072
-0.113
-0.161
-0.227
-0.072
-0.004
0.038
0.134
0.125
0.055
0.055
0.142
-0.149
-0.281
0.304
0.321
0.234
-0.082
-0.282
-0.293
0.020
0.227
0.249
0.126
-0.077
0.058
0.547
0.110
-0.859
-0.493
0.247
0.281
0.388
0.108
-0.053
-0.052
-0.150
-0.050
-0.060
0.042
0.094
-0.008
0.030
0.049
0.092
0.050
0.054
0.139
0.001
-0.141
0.016
0.092
0.146
0.091
0.015
-0.026
-0.042
0.015
-0.071
0.124
0.104
0.107
-0.001
0.031
0.035
0.039
-0.035
-0.015
-0.087
0.031
0.012
0.044
0.230
1.256
-0.248
-1.738
-0.484
0.380
0.721
0.522
0.081
-0.110
-0.082
-0.183
-0.075
-0.034
0.077
0.096
0.075
0.075
0.102
0.120
0.061
0.068
0.126
-0.065
-0.070
-0.091
0.031
0.084
-0.333
0.074
0.330
0.358
0.126
-0.164
-0.189
-0.031
0.042
0.098
0.033
0.125
0.065
-0.016
-0.027
-0.072
0.031
-0.007
-0.151
0.077
0.153
0.202
0.061
-0.039
-0.099
-0.042
0.090
0.006
0.061
0.018
0.035
0.014
0.079
-0.126
0.016
0.148
0.266
0.136
-0.058
-0.045
-0.036
-0.068
-0.011
0.017
0.091
0.059
0.115
0.051
-0.041
0.037
0.067
-0.113
-0.041
-0.037
0.004
0.036
0.063
0.028
0.038
0.097
1.160
-0.114
-1.781
-0.492
0.516
0.728
0.452
0.071
-0.105
-0.019
0.030
0.407
-0.233
-0.801
-0.277
0.211
0.375
0.349
0.349
0.053
-0.065
-0.195
-0.024
0.017
0.133
-0.039
-0.013
0.102
0.126
-0.347
-0.144
0.226
0.396
0.325
0.041
-0.052
-0.199
-0.040
-0.117
-0.031
0.036
0.078
0.156
0.031
0.080
-0.033
-0.059
-0.045
-0.022
0.046
0.019
0.018
0.062
0.056
0.017
0.076
-0.048
0.063
0.063
0.057
0.067
-0.073
0.003
-0.045
0.048
0.095
0.130
0.143
-0.025
-0.027
-0.034
0.030
0.081
0.006
-0.020
-0.006
0.054
0.049
0.499
1.225
-1.055
-1.441
0.002
0.581
0.778
0.295
-0.036
-0.133
-0.140
-0.164
-0.176
0.015
0.046
0.088
0.153
0.114
0.069
0.030
-0.060
0.010
0.256
0.237
0.087
-0.081
-0.067
0.004
-0.018
-0.050
0.005
0.163
-0.006
0.033
0.036
-0.010
0.082
0.059
-0.045
-0.021
0.008
-0.086
-0.008
0.044
0.014
0.083
0.136
0.137
-0.329
-0.122
0.408
0.272
0.131
-0.112
-0.080
-0.005
0.005
0.044
0.025
0.088
0.115
-0.002
0.094
0.000
-0.042
-0.027
0.167
0.082
-0.031
-0.010
0.044
-0.099
-0.166
0.047
0.196
0.238
0.111
-0.019
-0.084
-0.205
0.067
0.082
0.093
0.051
0.052
-0.011
-0.017
-0.017
0.023
0.042
0.028
1.063
0.679
-1.240
-1.369
-0.325
0.695
0.751
0.272
0.174
-0.085
-0.129
-0.171
-0.298
-0.036
0.083
0.128
0.113
0.131
0.138
0.091
0.108
0.086
0.066
0.065
0.033
-0.107
-0.056
-0.069
-0.082
0.002
0.088
0.177
0.114
0.130
-0.002
-0.115
-0.072
-0.031
0.063
0.107
0.071
-0.004
0.041
-0.011
-0.117
0.015
0.088
0.105
0.162
-0.490
-0.122
0.432
0.386
0.272
-0.108
-0.202
-0.151
-0.090
0.095
0.077
0.188
0.911
0.708
-1.501
-1.001
0.534
0.295
-0.252
0.352
0.488
0.167
-0.167
-0.217
-0.103
-0.130
-0.196
0.068
0.273
0.471
0.407
0.140
-0.307
-0.487
-0.102
0.258
0.374
0.117
-0.142
-0.162
-0.026
0.094
-0.069
0.030
0.056
0.071
0.067
0.083
0.127
0.038
-0.024
0.031
0.032
-0.026
0.006
0.059
0.092
-0.047
0.013
0.022
-0.039
0.019
-0.018
0.115
0.123
0.084
0.049
-0.007
-0.000
-0.009
-0.028
0.075
0.108
0.016
-0.003
-0.016
-0.160
0.048
0.189
0.217
0.446
0.385
-0.602
-0.747
-0.090
0.273
0.232
0.226
0.246
0.072
-0.566
-0.151
0.269
0.233
0.092
0.000
-0.026
-0.030
0.112
0.259
1.273
-0.268
-1.661
-0.555
0.333
0.796
0.563
-0.019
-0.135
-0.260
-0.148
-0.102
-0.045
-0.001
0.159
0.122
0.081
0.094
0.197
0.080
-0.009
0.072
-0.076
-0.138
-0.032
0.124
0.247
0.126
0.043
-0.056
-0.111
-0.041
0.053
0.058
0.052
0.055
0.124
0.018
-0.122
-0.065
0.127
0.216
0.194
-0.056
-0.150
0.024
-0.010
0.040
0.171
0.075
0.018
-0.090
-0.034
0.104
0.034
0.042
0.027
-0.013
-0.043
-0.036
0.103
0.131
0.018
0.087
0.002
0.137
0.050
0.021
0.050
0.044
0.032
0.009
-0.070
0.109
1.245
-0.095
-1.666
-0.567
0.514
0.784
0.420
0.036
0.065
-0.222
-0.587
-0.006
0.232
0.297
0.209
-0.031
-0.018
0.050
0.149
0.080
0.003
0.114
-0.039
0.368
0.530
-0.528
-0.758
-0.139
0.266
0.189
0.184
0.142
0.016
-0.052
-0.130
-0.045
0.074
0.164
0.015
0.044
0.018
0.105
0.036
-0.045
0.025
0.107
0.070
0.017
0.015
-0.213
-0.046
0.073
0.183
0.196
0.071
-0.105
-0.057
-0.020
0.081
0.107
0.100
0.052
0.093
0.021
-0.053
0.005
0.043
0.074
0.016
-0.097
0.007
-0.038
0.071
1.038
-0.107
-1.524
-0.304
0.510
0.637
0.307
0.040
-0.058
-0.013
-0.189
-0.220
0.040
0.021
0.101
0.122
0.107
0.122
-0.004
-0.062
0.109
0.157
0.123
0.123
-0.220
-0.436
0.049
0.356
0.251
0.054
-0.006
-0.116
0.029
0.069
-0.144
-0.017
0.076
0.029
0.107
0.155
0.043
0.029
-0.012
-0.023
0.006
-0.098
0.038
-0.011
0.028
0.097
0.023
0.076
0.124
0.019
0.032
0.059
-0.104
0.010
0.053
0.098
0.006
0.040
0.046
0.066
0.030
-0.017
0.017
0.008
0.055
0.023
0.032
0.062
0.006
0.053
0.056
0.084
-0.027
0.084
0.082
0.027
-0.016
0.374
1.185
-0.660
-1.708
-0.269
0.639
0.724
0.541
0.669
-0.281
-1.033
-0.409
0.020
0.115
0.252
0.309
0.150
0.075
0.018
0.056
-0.050
-0.008
-0.026
0.087
0.076
0.184
0.006
-0.171
0.068
0.146
0.263
0.137
-0.277
-0.380
0.187
0.329
0.218
0.023
-0.128
-0.048
-0.040
-0.035
0.011
0.109
0.020
0.075
0.074
-0.003
-0.016
0.158
0.007
0.034
0.005
0.024
0.125
0.063
-0.075
0.002
-0.016
0.132
0.120
0.147
0.053
-0.007
0.007
-0.028
-0.019
-0.007
0.024
0.040
0.073
0.047
-0.015
0.065
-0.048
-0.064
0.072
0.252
-0.004
-0.001
-0.057
-0.001
-0.044
-0.128
-0.036
0.125
0.997
0.834
-1.471
-1.098
0.023
0.652
0.591
0.181
0.026
-0.126
-0.119
-0.171
-0.085
0.096
0.067
0.093
0.032
0.080
0.095
0.039
0.122
0.156
-0.040
-0.024
-0.031
0.031
0.077
0.026
-0.046
-0.003
0.069
-0.051
-0.015
0.116
0.038
-0.045
-0.069
0.048
0.070
-0.009
0.048
0.193
0.149
-0.415
-0.117
0.360
0.323
0.074
-0.133
0.036
0.724
-0.101
-0.961
-0.659
0.025
0.460
0.538
0.454
0.091
-0.153
-0.061
-0.187
-0.113
0.003
0.035
0.143
0.090
0.064
0.131
0.048
0.030
-0.003
-0.003
0.028
-0.056
-0.031
0.020
0.461
1.019
-1.002
-1.376
0.088
0.548
0.704
0.264
0.031
-0.149
-0.047
-0.084
-0.168
-0.142
0.116
0.157
0.175
0.143
0.180
0.043
0.000
-0.062
-0.006
-0.001
0.021
0.044
0.027
-0.036
-0.039
0.061
0.042
0.161
0.097
0.116
0.018
-0.050
0.068
-0.005
0.055
0.040
-0.055
-0.031
0.013
0.042
0.109
-0.024
0.047
0.051
0.033
-0.387
-0.046
0.341
0.244
0.218
0.014
-0.095
-0.104
-0.053
-0.027
0.070
0.084
0.111
0.124
0.079
0.021
-0.046
-0.255
-0.080
0.214
0.191
0.139
-0.092
-0.163
-0.253
0.066
0.152
0.387
1.419
-0.204
-1.848
-0.522
0.472
0.774
0.596
0.118
-0.094
-0.237
-0.279
-0.105
-0.017
0.106
0.018
0.106
0.045
0.038
0.026
0.122
0.063
0.089
0.039
-0.023
-0.032
0.023
-0.022
0.032
0.005
0.080
-0.011
-0.011
0.077
0.732
0.087
-0.742
-0.487
0.001
0.134
0.350
0.286
0.178
-0.120
-0.196
-0.174
-0.000
0.063
-0.085
0.051
0.087
0.169
0.176
0.058
0.134
0.046
0.006
0.024
-0.024
-0.026
-0.003
0.055
0.148
-0.363
-0.247
0.229
0.306
0.194
-0.026
-0.113
-0.067
-0.033
0.026
0.145
0.040
0.033
0.084
0.079
0.032
0.104
-0.001
-0.088
-0.025
-0.047
0.034
0.031
0.740
0.858
-1.327
-1.296
0.006
0.529
0.825
0.364
-0.036
-0.158
0.127
0.077
-0.338
-0.587
-0.217
0.399
0.469
0.363
0.205
0.074
-0.091
-0.025
0.032
0.000
-0.056
-0.106
-0.060
0.081
0.027
-0.018
0.049
-0.034
0.118
0.030
0.035
-0.011
0.085
0.019
-0.014
0.086
0.017
0.033
0.002
0.013
0.065
0.093
0.001
0.072
0.047
-0.009
0.010
0.178
0.382
-0.762
-0.471
0.485
0.588
0.255
-0.032
-0.097
0.006
0.529
-0.258
-0.853
-0.266
0.318
0.348
0.325
0.194
0.064
-0.100
-0.068
-0.205
-0.064
-0.314
-0.073
0.442
0.489
0.642
0.814
-1.397
-1.387
0.075
0.745
0.662
0.325
0.069
-0.152
-0.124
-0.160
-0.176
-0.059
-0.035
-0.006
0.109
0.092
0.105
0.017
0.041
0.103
-0.049
-0.006
0.174
0.104
0.022
-0.032
0.016
-0.082
0.031
0.087
-0.094
0.024
-0.045
-0.017
0.226
0.186
0.093
-0.077
-0.079
0.015
-0.041
0.059
0.053
0.011
0.079
0.132
0.068
-0.006
-0.015
-0.056
-0.006
0.010
0.017
0.035
0.079
0.005
0.016
0.005
0.060
-0.002
0.017
-0.089
0.015
0.048
0.012
0.012
-0.060
-0.121
0.119
0.303
0.292
-0.025
-0.522
-0.299
0.200
0.466
1.266
0.234
-1.661
-0.884
0.167
0.714
0.530
0.107
0.028
-0.119
-0.027
-0.012
-0.574
-0.109
0.332
0.492
0.270
-0.063
-0.081
-0.029
0.034
0.066
0.032
0.012
0.005
0.085
0.032
0.016
-0.050
0.000
0.015
-0.008
0.027
-0.038
-0.039
0.004
0.038
0.001
0.030
0.021
0.025
0.033
0.127
0.063
-0.028
-0.064
0.008
0.077
0.084
0.141
0.032
-0.122
0.024
0.026
0.117
0.606
0.196
-0.710
-0.580
0.045
0.273
0.341
0.141
-0.181
-0.001
0.183
0.185
-0.059
-0.118
-0.035
0.015
0.025
0.139
0.072
0.022
0.119
0.104
0.094
-0.004
-0.130
-0.103
0.032
0.172
0.255
-0.019
-0.463
0.688
0.857
-1.263
-1.006
0.134
0.671
0.589
0.167
0.027
-0.077
-0.148
-0.115
-0.040
0.032
-0.007
0.119
0.066
0.112
0.026
0.061
0.104
0.060
-0.021
0.032
0.012
0.018
0.123
0.073
-0.007
-0.271
-0.054
0.146
0.198
0.128
-0.031
-0.068
0.020
0.029
0.014
0.085
0.090
-0.070
-0.024
0.046
0.142
0.256
0.171
-0.086
-0.518
-0.383
0.026
0.367
0.305
0.116
0.012
-0.099
-0.102
-0.072
0.029
0.028
0.037
0.134
0.128
0.162
0.138
0.048
0.058
-0.064
-0.160
0.020
0.084
0.703
0.892
-1.300
-1.341
0.041
0.670
0.632
0.305
0.020
-0.047
0.043
-0.839
0.149
0.497
-0.588
-0.219
0.503
0.363
0.321
0.087
-0.042
-0.124
-0.049
-0.038
-0.067
-0.018
0.049
0.144
0.178
0.039
-0.081
-0.091
-0.022
-0.070
0.146
0.044
0.066
0.043
0.049
0.100
0.026
0.053
0.057
-0.040
0.027
0.004
0.000
0.087
0.022
0.107
0.090
0.015
-0.073
-0.138
0.099
0.093
0.165
0.100
0.054
-0.054
-0.118
0.018
0.085
0.061
0.147
0.061
0.053
-0.026
-0.014
0.045
-0.028
0.028
0.068
0.022
0.000
0.020
0.024
-0.044
0.043
0.110
0.074
0.024
0.628
0.868
-1.314
-1.217
0.145
0.527
0.685
0.224
0.015
-0.018
-0.087
-0.104
-0.223
-0.105
0.078
0.117
0.344
0.107
-0.029
0.252
0.100
-0.205
-0.188
0.127
0.230
0.017
-0.090
-0.092
-0.121
-0.019
0.077
0.095
0.182
0.013
0.008
0.006
0.025
-0.070
0.043
0.284
0.181
0.136
-0.144
-0.134
-0.141
-0.021
0.062
0.014
0.112
0.147
0.057
0.014
0.044
-0.031
0.054
-0.033
0.032
-0.076
0.030
0.034
0.018
0.068
0.037
-0.005
0.068
-0.067
-0.039
0.037
0.132
0.110
0.013
0.015
0.016
-0.014
0.053
0.089
0.665
-0.135
-0.669
-0.258
0.223
0.204
0.139
0.467
1.326
-0.808
-1.877
-0.433
0.518
0.777
0.409
0.117
-0.024
-0.134
-0.179
-0.085
-0.004
0.031
0.168
0.107
0.122
0.135
0.020
0.082
0.020
-0.009
0.118
0.259
-0.212
-0.301
0.140
0.217
0.136
-0.058
-0.155
-0.064
0.043
-0.012
-0.003
0.043
0.013
0.044
0.050
0.035
0.014
0.086
0.054
0.006
0.050
-0.126
-0.033
-0.016
0.124
0.096
-0.026
-0.013
-0.040
0.023
0.097
0.105
0.068
0.019
0.021
0.065
0.046
-0.042
0.007
0.006
-0.038
0.009
0.022
0.049
-0.064
0.083
0.131
0.122
0.116
0.044
0.041
-0.074
0.043
1.077
0.090
-1.677
-0.696
0.419
0.799
0.381
0.024
-0.093
0.007
-0.058
-0.181
-0.104
0.018
0.094
0.119
0.161
0.121
0.031
0.090
0.050
0.023
0.067
-0.149
0.005
0.050
0.119
0.063
0.050
-0.027
0.184
0.038
-0.224
-0.364
-0.085
0.256
0.456
0.151
0.109
0.130
0.294
-0.269
-0.975
-0.469
0.496
0.929
-0.081
-0.340
0.264
0.251
0.131
0.033
-0.082
-0.136
0.048
0.026
0.070
0.085
0.190
-0.011
-0.001
-0.005
0.000
0.018
-0.057
-0.043
-0.017
0.010
0.042
0.044
0.076
-0.052
0.016
0.007
0.111
0.068
0.106
0.074
0.335
1.116
-0.891
-1.544
-0.076
0.563
0.743
0.377
0.079
-0.102
-0.199
-0.162
-0.126
0.041
0.011
0.006
0.129
0.106
0.125
0.193
0.095
0.093
0.008
-0.104
-0.189
-0.120
0.145
0.180
0.124
-0.025
-0.058
-0.142
-0.062
0.099
0.113
0.117
0.079
0.090
-0.056
0.007
-0.070
0.021
0.021
-0.395
0.034
0.275
0.339
0.119
-0.034
-0.078
-0.187
-0.119
0.039
0.215
0.201
0.153
0.083
0.113
0.011
-0.054
-0.091
0.023
0.087
-0.026
0.066
0.048
0.103
0.055
-0.067
0.033
0.045
0.014
0.036
0.005
-0.006
0.005
0.136
0.373
1.050
-0.064
-2.106
-0.888
0.452
1.094
0.775
0.154
-0.134
-0.259
-0.422
-0.227
0.150
0.168
0.155
0.068
-0.043
0.114
0.217
0.281
0.062
-0.062
-0.036
-0.035
0.063
0.054
0.017
0.592
0.168
-0.887
-0.669
0.097
0.267
0.253
0.170
0.107
0.034
-0.018
0.032
-0.060
-0.094
0.074
0.075
0.034
0.144
0.170
0.023
-0.042
0.018
0.067
0.082
0.104
-0.036
-0.034
-0.009
0.049
0.031
0.028
-0.016
0.107
-0.031
-0.045
0.018
0.000
0.029
-0.085
-0.067
0.144
0.325
-0.033
-0.237
0.205
0.284
0.145
-0.017
-0.205
-0.089
0.001
0.153
-0.084
-0.032
0.029
0.216
1.333
-0.220
-1.721
-0.605
0.352
0.743
0.386
0.005
-0.025
-0.098
-0.077
-0.087
-0.049
0.051
0.089
0.102
0.073
0.149
0.003
0.107
0.132
-0.021
-0.011
0.029
-0.011
0.092
-0.027
0.015
-0.030
0.050
-0.002
0.052
0.040
0.074
0.081
0.024
0.035
0.030
-0.010
-0.032
0.163
0.025
-0.019
-0.036
0.038
0.054
0.027
-0.038
0.062
0.074
-0.007
0.009
0.028
0.042
0.017
-0.057
0.031
-0.037
0.037
0.072
0.030
0.068
0.053
-0.009
0.074
0.179
0.554
0.100
-0.642
-0.703
-0.282
0.538
1.509
0.383
-1.506
-0.664
0.272
0.474
0.386
0.083
-0.051
-0.122
-0.073
-0.010
0.088
0.233
-0.024
-0.260
0.210
0.382
0.270
0.067
-0.237
-0.118
0.151
0.055
-0.049
-0.068
-0.100
-0.005
0.095
0.248
0.207
-0.010
-0.040
-0.171
-0.119
0.052
0.014
-0.015
0.035
0.133
0.130
0.069
0.018
-0.004
0.008
-0.063
0.066
0.035
-0.035
-0.024
0.048
0.102
0.086
0.088
0.048
-0.032
-0.032
0.006
-0.043
0.087
0.071
0.098
0.119
0.019
0.048
-0.023
-0.004
0.034
-0.062
-0.009
0.068
-0.005
0.024
-0.111
0.116
0.104
1.131
0.299
-1.615
-0.908
0.458
0.730
0.496
0.124
-0.083
-0.166
-0.117
-0.101
-0.128
-0.044
0.163
0.133
0.092
0.069
0.086
0.118
0.013
-0.065
0.051
-0.062
-0.013
0.052
0.072
0.023
-0.014
-0.054
0.022
0.046
0.040
0.029
0.059
-0.102
-0.305
0.140
0.369
0.198
0.116
-0.135
-0.156
0.060
0.145
0.219
0.171
0.064
-0.302
-0.441
0.445
0.485
-0.388
-0.383
-0.012
0.034
0.132
0.133
0.078
-0.001
-0.019
0.012
0.020
0.085
0.113
0.005
0.080
0.140
0.222
0.166
0.046
-0.118
-0.093
-0.072
0.017
0.138
-0.120
-0.062
0.178
0.234
0.102
-0.036
-0.087
-0.108
-0.026
0.094
-0.049
0.055
0.032
-0.018
0.428
1.115
-0.958
-1.603
0.006
0.638
0.721
0.319
0.025
-0.121
-0.157
-0.117
-0.098
-0.046
0.038
0.084
0.115
0.189
0.130
0.090
0.098
0.088
0.046
0.038
0.078
-0.116
-0.115
0.070
0.057
-0.130
0.000
0.137
0.194
0.027
0.046
0.070
-0.025
0.156
-0.261
-0.184
0.328
0.395
0.077
-0.253
-0.135
-0.026
0.092
0.209
0.035
-0.007
-0.102
0.022
0.032
0.029
0.093
0.122
0.079
-0.046
-0.087
-0.089
0.097
0.055
-0.003
0.108
0.013
-0.128
0.008
0.025
0.101
0.141
0.013
0.179
1.116
0.669
-1.878
-1.683
0.382
1.366
1.054
0.710
-0.395
-1.096
-0.593
-0.206
0.219
0.461
0.469
0.313
-0.060
-0.169
-0.072
0.165
0.330
0.096
-0.274
-0.432
-0.140
0.262
0.375
0.290
0.040
-0.082
-0.055
-0.178
-0.184
-0.046
0.213
0.219
0.163
-0.103
-0.053
0.043
0.014
0.040
0.181
0.064
0.025
0.050
0.104
-0.055
-0.080
0.065
0.020
0.034
-0.006
-0.072
0.073
0.072
0.052
0.046
-0.005
0.021
0.093
0.029
0.053
0.059
0.031
0.184
-0.119
-0.298
0.116
0.366
0.236
0.130
-0.098
-0.113
-0.044
0.066
0.094
0.023
0.051
0.022
0.093
0.099
-0.055
0.033
0.106
0.080
1.129
-0.050
-1.807
-0.664
0.283
0.790
0.462
0.131
0.058
-0.188
-0.134
-0.127
-0.047
0.079
0.057
0.122
0.098
0.141
0.097
0.100
0.015
-0.062
0.079
0.119
0.064
-0.055
-0.025
0.028
0.063
-0.008
-0.016
-0.072
0.045
0.005
0.042
0.026
0.063
-0.005
0.063
0.007
0.022
0.035
0.027
0.017
0.036
0.092
0.109
-0.021
0.083
0.153
0.649
0.040
-0.959
-0.594
0.268
0.418
0.433
0.115
-0.084
-0.156
-0.146
-0.068
-0.004
0.056
0.107
0.018
0.066
0.075
0.019
0.109
0.143
-0.429
-0.150
0.314
0.301
0.150
-0.090
-0.058
-0.049
0.134
1.220
-0.518
-1.469
-0.138
0.625
0.639
0.233
0.050
-0.135
-0.273
-0.268
0.018
0.074
0.180
0.151
0.129
-0.006
0.018
0.087
0.107
0.107
0.091
0.134
-0.159
-0.164
-0.056
0.098
-0.014
0.050
0.118
-0.019
0.023
0.001
0.052
0.084
-0.015
0.076
0.049
0.078
0.212
0.266
-0.139
-0.460
-0.247
0.077
0.313
0.308
0.152
-0.010
-0.111
-0.083
0.002
-0.021
0.057
0.086
0.059
0.058
0.039
0.029
-0.023
0.048
0.149
0.053
0.011
-0.016
0.020
0.067
0.011
0.046
0.079
0.021
0.048
-0.058
0.055
-0.072
-0.078
0.083
-0.001
0.093
0.076
1.058
0.352
-1.139
-0.969
-0.311
0.525
0.701
0.231
0.163
0.274
-0.180
-1.215
-0.319
0.729
0.744
0.201
-0.114
-0.079
-0.081
-0.209
0.105
0.269
0.327
0.278
0.000
-0.125
-0.145
-0.148
-0.058
0.001
0.013
-0.002
0.035
0.052
0.041
-0.002
0.045
0.044
0.109
0.086
0.009
-0.132
-0.134
0.066
0.086
0.121
0.076
-0.008
0.012
0.016
-0.006
-0.039
0.039
0.092
0.033
0.063
0.080
0.015
0.047
-0.007
0.031
-0.020
0.003
0.147
0.063
0.038
-0.056
-0.012
-0.008
0.081
0.136
0.093
0.039
-0.021
0.761
0.745
-1.596
-1.203
0.254
0.806
0.592
0.170
-0.049
-0.163
-0.077
-0.106
-0.081
-0.037
-0.124
0.128
0.276
0.331
0.205
-0.077
-0.075
0.024
0.005
0.097
0.019
0.025
-0.030
-0.030
0.042
0.016
0.012
-0.028
-0.021
0.095
-0.029
0.059
0.066
0.027
0.029
0.181
-0.364
-0.194
0.357
0.499
0.159
-0.068
-0.115
-0.125
-0.046
0.039
-0.007
0.009
0.042
-0.017
0.095
0.066
0.116
0.101
0.044
0.511
0.024
-0.762
-0.358
0.232
0.470
0.283
-0.151
-0.181
-0.085
0.175
0.115
0.069
-0.036
-0.081
-0.044
-0.019
0.023
-0.024
0.165
0.168
0.230
0.163
0.122
1.124
-0.591
-1.756
-0.254
0.423
0.755
0.352
0.091
-0.046
-0.175
-0.090
-0.135
-0.031
0.056
0.057
0.168
0.081
0.039
0.041
0.098
0.046
0.046
0.001
-0.001
-0.045
-0.016
0.050
0.017
-0.014
0.019
-0.022
0.120
0.026
-0.020
0.071
-0.012
-0.374
0.122
0.399
0.293
-0.006
-0.080
-0.087
-0.055
0.012
0.048
0.153
0.156
-0.006
0.289
-0.692
-0.567
0.509
0.549
0.278
-0.078
-0.201
-0.194
-0.149
0.052
0.209
0.159
0.064
0.032
-0.014
0.006
0.001
-0.056
0.100
0.088
-0.034
-0.035
0.045
0.012
0.047
0.037
-0.040
-0.068
0.182
1.200
-0.503
-1.708
-0.311
0.597
0.957
0.482
-0.072
-0.256
-0.235
-0.012
-0.151
-0.027
0.160
0.134
0.151
0.169
0.111
0.024
0.123
0.155
-0.492
-0.361
0.265
0.132
0.229
0.063
-0.004
-0.132
0.031
-0.058
0.053
0.070
0.070
0.044
-0.045
0.026
0.008
0.040
0.146
0.061
0.079
0.067
-0.034
0.030
-0.070
0.001
-0.039
0.007
0.064
0.058
0.065
0.152
0.117
-0.382
-0.243
0.267
0.312
0.204
-0.031
-0.094
-0.011
-0.040
0.043
0.029
0.087
0.024
0.029
0.142
0.185
0.135
-0.162
-0.433
-0.265
1.295
0.414
-1.444
-0.460
0.375
0.602
0.392
0.048
-0.157
-0.185
-0.155
-0.086
0.019
0.155
0.083
0.163
0.129
-0.021
0.023
0.053
-0.025
0.017
0.043
0.110
0.097
0.022
-0.158
-0.152
0.003
0.092
0.100
0.108
0.041
0.099
0.018
-0.011
0.043
-0.013
0.060
-0.057
-0.033
-0.083
-0.033
0.199
0.277
0.273
0.110
-0.034
-0.274
-0.235
0.071
0.865
0.494
-0.722
-0.694
0.058
0.154
0.276
0.210
0.110
-0.068
-0.123
-0.031
0.011
-0.042
-0.032
-0.011
0.141
0.360
0.138
0.033
-0.073
0.145
-0.350
-0.212
0.278
0.357
0.342
1.137
-0.533
-1.828
-0.471
0.517
0.882
0.464
0.023
-0.105
-0.091
-0.090
-0.195
-0.140
0.065
0.033
0.048
0.543
-0.172
-0.623
0.272
0.687
0.386
-0.001
-0.131
-0.205
-0.165
-0.056
0.072
0.064
0.079
0.049
0.032
0.098
0.020
-0.006
0.008
-0.007
0.019
-0.010
-0.047
-0.070
-0.011
0.095
0.063
0.039
-0.023
0.021
0.065
-0.027
0.017
0.018
-0.033
0.112
0.026
-0.009
0.040
0.063
0.142
0.017
-0.066
0.005
-0.026
0.079
0.161
0.051
-0.007
0.038
-0.086
-0.025
0.037
0.101
0.091
0.086
-0.012
-0.009
0.001
0.077
0.627
0.818
-1.344
-1.179
0.179
0.599
0.631
0.224
0.009
0.016
-0.269
-0.540
0.026
0.480
0.513
0.030
-0.564
-0.427
0.102
1.012
0.399
-0.609
-0.422
0.018
0.121
0.392
0.248
0.016
-0.096
-0.255
-0.167
-0.069
0.088
0.265
0.168
0.113
0.008
-0.036
-0.181
-0.025
0.258
0.182
0.140
-0.066
-0.104
-0.083
-0.069
0.046
0.017
0.022
0.080
0.009
0.052
-0.038
0.038
0.047
-0.018
0.120
0.032
-0.001
0.059
0.025
0.031
-0.044
0.020
-0.040
0.068
0.144
0.043
0.053
0.013
0.093
0.056
-0.016
-0.029
0.069
0.023
0.037
-0.065
0.225
1.343
-0.720
-1.610
-0.148
0.474
0.701
0.362
0.033
-0.129
-0.089
-0.086
-0.073
-0.069
0.020
0.068
0.116
0.136
0.188
0.040
0.195
-0.150
-0.131
0.272
0.303
0.058
-0.164
-0.108
0.002
0.039
0.088
-0.009
0.030
0.075
-0.030
0.110
0.574
-0.184
-0.666
-0.213
0.200
0.214
0.327
0.187
-0.041
-0.015
0.045
0.206
-0.794
-0.622
0.488
0.699
0.409
0.179
-0.078
-0.106
-0.106
-0.068
0.034
0.135
0.179
0.065
-0.042
-0.029
-0.011
0.172
0.154
-0.084
-0.522
-0.461
0.040
0.348
0.311
0.368
1.327
-0.651
-1.982
-0.333
0.536
0.834
0.455
0.108
-0.043
-0.207
-0.149
-0.032
-0.014
0.026
0.104
0.027
0.041
0.130
0.117
0.054
0.020
0.084
0.071
-0.206
-0.114
0.085
0.188
0.206
-0.033
-0.075
-0.021
0.062
0.071
0.103
-0.391
-0.055
0.326
0.238
0.055
-0.115
-0.089
-0.023
0.041
0.021
0.026
0.048
0.082
0.103
0.042
-0.103
0.072
0.072
0.005
0.030
-0.015
-0.013
0.089
0.151
0.139
0.001
-0.087
-0.016
0.036
0.067
0.070
0.093
0.099
0.330
0.578
-0.477
-0.781
-0.135
0.230
0.267
0.262
0.181
0.053
0.485
0.963
-1.290
-1.546
-0.023
0.705
0.589
0.275
0.230
0.125
-0.057
-0.103
-0.160
-0.096
-0.108
0.114
0.333
0.094
0.005
-0.125
-0.013
0.069
0.098
-0.024
-0.065
0.050
0.109
0.011
-0.090
-0.041
0.076
0.103
0.036
0.044
0.031
0.081
0.006
-0.007
-0.014
0.024
-0.094
0.010
0.076
0.111
-0.033
0.084
0.046
-0.386
0.136
0.317
0.229
0.100
-0.124
-0.083
-0.113
0.031
0.048
0.045
0.045
0.024
0.002
0.181
0.039
-0.042
-0.015
0.150
0.201
-0.040
-0.121
0.057
-0.005
-0.042
0.020
0.062
0.216
0.056
-0.000
0.111
0.006
0.054
0.061
0.155
0.084
-0.108
-0.270
0.847
-0.444
-1.256
-0.055
0.567
0.738
0.287
-0.108
-0.144
-0.185
-0.110
-0.110
0.600
0.032
-0.723
-0.173
0.551
0.814
-0.140
-0.626
0.282
0.425
0.068
-0.013
-0.125
-0.337
-0.118
0.158
0.309
0.142
-0.022
0.029
0.002
0.121
0.041
0.154
-0.195
-0.218
0.167
0.418
0.355
-0.065
-0.308
-0.333
-0.213
-0.040
0.139
0.175
0.135
0.040
0.033
-0.046
-0.028
-0.024
-0.040
0.079
-0.007
-0.010
0.071
0.049
0.099
0.112
0.066
0.060
0.032
-0.028
-0.042
-0.025
0.098
0.043
1.076
0.291
-1.758
-0.854
0.322
0.669
0.520
0.181
0.092
-0.135
-0.184
-0.208
-0.088
0.142
0.401
0.454
-0.114
-0.563
-0.297
0.240
0.573
0.333
0.080
-0.059
-0.142
-0.189
-0.137
-0.044
0.068
0.125
0.662
0.234
-0.634
-0.521
0.077
0.217
0.252
0.253
0.101
-0.109
-0.122
-0.019
0.014
-0.055
-0.084
0.053
0.037
0.063
0.173
0.077
0.007
-0.142
-0.042
0.239
0.207
0.187
-0.022
-0.117
-0.033
-0.102
0.066
0.217
0.020
-0.275
0.061
0.188
0.174
0.116
0.029
0.076
-0.072
-0.187
-0.050
-0.059
0.317
1.273
-0.774
-1.552
-0.040
0.480
0.622
0.270
0.180
-0.016
-0.205
-0.150
-0.240
-0.084
0.075
0.174
0.072
0.098
0.186
0.075
0.096
0.058
-0.066
0.103
0.023
-0.009
-0.038
0.003
0.145
0.061
-0.184
-0.164
-0.091
0.112
0.150
0.129
0.027
0.006
-0.005
-0.072
0.060
0.152
0.003
-0.163
0.010
0.120
0.141
0.018
-0.021
0.080
0.131
0.267
0.111
-0.273
-0.628
-0.193
0.236
0.425
0.357
0.340
0.295
-0.270
-0.967
-0.817
0.340
0.854
0.910
1.340
-0.933
-1.632
-0.186
0.001
0.321
0.630
0.364
0.143
-0.257
-0.266
-0.093
-0.020
0.063
0.098
0.123
0.167
0.075
0.032
0.040
0.034
0.050
0.047
-0.053
-0.073
0.035
-0.009
-0.045
0.005
0.093
0.023
0.026
-0.001
0.061
0.065
0.040
-0.043
-0.013
0.154
0.059
0.076
-0.042
-0.100
-0.042
-0.083
0.125
0.260
0.184
0.130
-0.087
-0.062
-0.144
-0.042
0.074
0.010
-0.025
0.043
0.052
-0.011
-0.064
-0.020
0.159
-0.003
0.004
-0.052
-0.098
0.094
-0.105
0.064
0.162
0.157
0.004
-0.077
-0.009
0.241
0.167
0.756
0.238
-1.524
-0.775
0.335
0.778
0.523
0.125
-0.177
-0.073
-0.159
-0.618
-0.110
0.405
0.346
0.198
-0.013
-0.074
0.009
0.141
0.280
0.606
-0.115
-0.913
-0.281
0.309
0.173
0.260
0.115
-0.049
-0.094
-0.119
-0.015
-0.006
-0.055
-0.044
0.202
0.345
0.024
-0.317
-0.328
0.035
0.297
0.293
0.007
-0.019
-0.118
-0.028
-0.046
-0.017
0.059
0.095
0.170
0.111
0.102
0.057
0.021
0.028
-0.042
0.000
-0.026
0.075
0.162
0.030
-0.045
-0.023
0.059
0.056
-0.011
0.095
0.072
-0.019
0.035
0.083
0.002
-0.079
-0.018
0.674
0.751
-1.363
-1.137
0.289
0.726
0.549
0.165
-0.026
-0.087
-0.153
-0.179
0.001
0.002
-0.099
0.107
0.318
0.283
0.122
-0.009
-0.005
0.007
0.047
0.014
0.058
0.004
0.026
0.049
-0.032
-0.049
-0.027
0.161
-0.060
-0.292
0.079
0.282
0.287
0.055
-0.043
-0.115
-0.028
-0.072
-0.121
0.007
0.155
0.084
0.108
0.011
0.094
0.010
-0.067
0.005
-0.022
0.043
0.025
-0.011
0.027
0.089
0.008
-0.009
-0.047
0.008
0.118
0.083
0.078
-0.052
-0.037
0.052
0.118
0.249
0.135
0.049
-0.153
0.118
0.476
-0.350
-0.743
-0.008
0.336
1.432
0.196
-1.603
-0.679
0.237
0.604
0.277
-0.024
-0.084
-0.141
-0.110
-0.055
0.050
0.140
0.156
0.218
0.522
-0.570
-0.563
0.386
0.583
0.260
-0.094
-0.093
0.073
0.084
-0.133
-0.511
-0.215
0.088
0.382
0.306
0.133
0.058
-0.033
-0.246
-0.211
-0.115
0.072
0.139
0.213
0.283
0.124
0.029
-0.017
0.096
0.128
0.143
-0.380
-0.201
0.136
0.298
0.220
-0.044
-0.134
-0.011
-0.040
0.066
0.079
0.131
-0.019
-0.129
0.090
0.235
0.083
0.186
-0.121
-0.111
-0.053
0.012
0.043
-0.002
0.082
0.023
0.082
0.107
-0.000
0.020
-0.041
-0.104
0.034
0.043
-0.005
0.786
0.879
-1.455
-1.163
0.103
0.750
0.636
0.175
-0.023
-0.080
-0.103
-0.124
-0.112
-0.008
0.011
0.090
0.132
0.183
0.201
0.060
0.058
0.031
-0.010
-0.001
-0.198
-0.068
0.186
0.136
0.055
-0.035
-0.060
-0.010
0.260
0.601
-0.392
-0.674
-0.059
0.253
0.270
0.187
0.201
-0.030
-0.179
-0.167
0.034
0.102
0.093
-0.019
0.005
0.107
0.037
0.078
0.053
0.113
0.042
-0.433
0.049
0.379
0.313
0.070
-0.284
-0.103
0.281
0.231
-0.115
-0.498
-0.382
0.279
0.493
0.389
0.070
-0.107
-0.147
-0.119
-0.051
0.100
1.155
0.034
-1.764
-0.499
0.564
0.794
0.524
0.220
-0.131
-0.191
-0.188
-0.136
-0.024
0.046
0.026
-0.086
0.132
0.303
0.254
0.135
0.126
0.005
-0.165
-0.013
0.034
0.019
0.023
0.020
0.126
-0.011
-0.066
-0.106
0.016
0.102
-0.019
0.048
0.006
0.094
0.109
-0.104
-0.178
-0.141
0.062
0.225
0.151
0.080
0.042
-0.068
0.067
0.017
0.034
0.092
-0.064
-0.019
0.044
0.111
0.084
0.053
0.034
0.002
-0.044
0.061
0.018
0.040
0.058
0.003
0.008
0.040
0.017
-0.405
-0.123
0.389
0.771
0.525
-0.670
-0.727
-0.094
0.169
0.219
0.315
0.323
1.230
-0.507
-1.733
-0.380
0.373
0.660
0.480
0.120
-0.068
-0.060
-0.010
-0.205
-0.180
0.033
0.191
0.203
0.255
0.036
-0.103
-0.083
0.006
0.113
0.097
0.037
-0.097
0.025
0.148
0.002
-0.062
0.026
0.232
0.302
0.073
-0.272
-0.585
-0.221
0.198
0.405
0.289
0.108
0.040
-0.084
-0.198
-0.117
-0.031
0.074
0.158
0.071
0.094
0.043
0.129
0.188
0.172
-0.205
-0.202
-0.064
0.270
0.265
0.142
-0.056
-0.088
-0.086
-0.019
0.039
0.074
0.030
0.075
-0.080
0.328
-0.247
-0.818
0.108
0.544
0.413
0.208
1.189
-0.872
-1.846
-0.108
0.293
0.465
0.675
0.410
0.125
-0.242
-0.368
-0.209
-0.079
0.067
0.182
0.133
0.106
0.149
0.115
0.031
0.004
0.051
-0.013
0.034
0.013
-0.011
0.037
-0.096
0.010
0.324
0.487
-0.417
-0.700
-0.063
0.205
0.226
0.220
0.251
0.058
-0.099
-0.157
-0.185
0.049
0.233
0.044
-0.069
0.023
0.054
0.159
0.036
0.022
0.018
0.070
1.108
0.201
-1.714
-0.658
0.272
0.768
0.543
0.133
-0.116
-0.195
-0.050
0.085
0.121
-0.043
-0.293
-0.321
0.049
0.473
0.428
0.244
0.071
-0.122
-0.195
-0.068
0.030
-0.009
0.029
0.042
0.036
0.105
0.035
0.055
0.028
0.118
-0.037
0.055
0.013
0.010
0.012
-0.034
0.002
0.049
0.038
0.049
-0.041
0.050
0.003
0.014
0.074
0.021
0.049
-0.299
-0.065
0.459
0.352
0.025
-0.168
-0.173
-0.072
0.058
0.092
0.119
0.118
0.008
-0.024
-0.097
-0.027
0.145
0.137
-0.019
-0.076
-0.113
-0.044
0.069
0.000
-0.017
0.376
0.508
-0.428
-0.564
0.240
1.305
-0.402
-1.509
-0.005
0.490
0.657
0.178
-0.062
-0.165
-0.183
-0.167
0.006
0.096
0.081
0.208
0.168
0.022
0.046
0.010
0.089
0.145
-0.028
-0.018
-0.055
-0.028
0.034
0.005
0.078
0.059
-0.025
-0.037
0.001
0.034
0.066
0.122
0.088
-0.028
-0.036
0.037
0.103
0.080
0.027
-0.137
-0.079
0.035
0.170
0.533
-0.327
-0.456
0.285
0.094
-0.245
-0.177
0.309
0.232
0.109
0.019
0.020
0.023
-0.136
-0.101
0.042
0.077
0.117
0.082
0.077
0.054
0.022
-0.035
0.092
1.086
0.491
-2.028
-1.073
0.528
1.085
0.704
0.078
-0.208
-0.271
-0.241
-0.122
-0.026
0.116
0.110
0.082
0.019
-0.058
0.090
0.304
0.253
0.064
-0.090
-0.023
-0.087
-0.057
-0.013
-0.003
0.152
0.685
0.007
-0.744
-0.338
0.110
0.162
0.226
0.215
0.007
-0.030
0.011
-0.075
-0.026
0.013
-0.052
0.099
0.073
0.078
0.052
0.107
0.075
0.033
0.097
0.089
-0.133
-0.113
0.075
-0.051
0.036
0.176
0.217
0.170
-0.008
-0.120
-0.157
-0.035
0.094
0.102
0.140
0.102
0.077
0.076
-0.112
0.001
0.031
-0.030
0.054
-0.005
0.887
0.511
-1.541
-0.857
0.232
0.705
0.509
0.093
0.097
0.055
0.120
-0.164
-0.605
-0.470
0.031
0.441
0.466
0.251
0.107
-0.019
-0.046
-0.423
0.030
0.297
0.236
0.026
-0.241
-0.108
0.044
-0.099
0.040
0.214
0.185
0.139
-0.032
-0.088
-0.083
0.016
0.053
0.060
0.183
0.076
0.065
-0.035
-0.010
0.288
0.426
-0.525
-0.613
-0.145
0.206
0.255
0.145
0.159
0.125
0.308
-0.698
-0.376
0.360
0.299
0.114
-0.005
0.708
0.883
-1.332
-1.275
0.082
0.697
0.722
0.448
0.045
-0.200
-0.187
-0.112
-0.085
-0.030
-0.026
0.115
0.062
0.209
0.073
0.074
-0.001
0.016
0.001
0.069
-0.063
-0.136
0.049
0.153
0.217
0.064
-0.023
0.007
0.029
0.027
0.004
0.060
0.111
-0.033
-0.061
0.093
0.065
0.010
0.028
-0.062
0.049
0.040
0.097
0.192
0.029
0.009
0.199
0.196
-0.126
-0.485
-0.274
0.183
0.443
0.345
0.071
-0.109
0.091
-0.174
-0.424
0.083
0.398
0.290
0.008
-0.091
-0.045
-0.010
0.013
0.100
0.176
1.371
-0.421
-1.610
-0.332
0.414
0.727
0.373
-0.003
-0.077
-0.167
-0.091
-0.171
-0.063
0.448
0.445
-0.625
-0.452
0.041
0.348
0.362
0.278
0.095
-0.008
-0.016
-0.103
-0.118
-0.107
0.030
0.070
0.085
0.086
0.131
0.056
0.070
0.034
-0.044
0.082
0.071
0.112
0.049
0.015
-0.172
-0.107
0.092
0.062
0.016
-0.034
0.045
0.070
-0.048
-0.074
0.117
0.245
0.232
0.169
-0.047
-0.072
-0.054
-0.059
-0.046
0.112
0.112
0.065
0.082
-0.006
0.008
-0.003
0.014
0.107
1.103
0.037
-1.662
-0.730
0.403
0.931
0.566
0.175
0.165
-1.041
-0.794
0.553
0.726
0.113
0.171
0.023
-0.326
-0.347
-0.060
0.283
0.419
0.319
0.158
-0.053
-0.189
-0.117
-0.102
0.018
-0.007
0.061
0.115
0.141
-0.008
0.019
-0.018
-0.036
0.078
0.068
0.490
0.323
-0.700
-0.596
-0.037
0.139
0.361
0.223
0.158
0.022
-0.116
-0.111
-0.046
-0.006
0.051
0.106
0.067
0.086
0.035
0.055
0.026
0.106
0.010
-0.010
0.101
0.070
0.021
0.040
-0.032
-0.011
-0.062
0.048
0.010
-0.048
0.028
0.045
0.064
-0.027
-0.046
-0.010
0.846
0.865
-1.343
-1.241
0.140
0.665
0.597
0.230
0.060
-0.144
-0.186
-0.190
-0.161
0.053
0.180
0.149
0.219
0.032
-0.005
0.071
0.070
0.075
0.087
-0.036
0.023
-0.030
0.012
-0.026
0.054
-0.090
-0.001
0.163
0.125
-0.038
-0.001
-0.037
0.060
0.055
-0.072
-0.046
0.268
0.333
0.302
-0.432
-0.225
0.121
0.249
0.072
0.102
0.105
0.195
-0.060
-0.526
-0.256
0.151
0.372
0.333
0.107
-0.083
-0.185
-0.142
-0.008
0.026
0.106
0.034
0.026
0.031
0.106
0.144
0.134
0.031
-0.010
0.014
-0.036
0.010
0.854
0.578
-1.559
-1.028
0.274
0.700
0.568
0.131
0.008
-0.061
-0.084
0.361
0.246
-0.523
-0.551
0.058
0.240
0.240
0.302
0.300
0.171
0.050
-0.147
-0.170
-0.125
-0.034
0.093
0.138
0.056
0.117
0.102
0.030
-0.008
0.004
-0.018
-0.030
-0.018
-0.014
0.041
-0.083
0.024
0.061
0.057
0.094
-0.086
-0.192
0.027
0.343
0.223
0.080
0.166
0.106
-0.977
-0.466
0.624
0.721
0.235
-0.036
-0.103
-0.158
-0.087
-0.040
0.031
0.137
0.138
-0.024
-0.154
-0.087
0.059
0.144
0.159
-0.205
-0.278
0.815
1.091
-1.030
-1.345
-0.049
0.607
0.732
0.299
0.057
-0.059
-0.264
-0.308
-0.012
0.224
0.264
0.166
-0.015
-0.047
0.026
0.058
0.093
0.046
0.024
0.037
0.013
-0.009
0.007
0.049
0.048
0.137
0.104
-0.274
-0.560
-0.333
0.174
0.418
0.367
0.111
0.008
-0.015
-0.117
0.189
0.529
-0.233
-0.690
-0.066
0.310
0.255
0.278
0.154
0.057
-0.041
-0.123
-0.049
0.026
0.014
0.008
-0.002
0.111
0.079
0.069
0.086
0.052
0.062
0.034
0.014
0.030
-0.014
0.001
-0.017
0.073
0.088
-0.014
0.043
0.151
-0.009
-0.066
0.557
1.023
-1.031
-1.209
-0.121
0.531
0.686
0.228
0.020
-0.203
-0.213
-0.118
-0.002
0.281
-0.302
-0.236
0.258
0.383
0.196
-0.097
-0.055
0.051
0.100
0.101
-0.014
0.043
0.155
-0.063
-0.024
0.034
0.015
-0.007
0.055
0.046
0.095
-0.050
-0.097
-0.090
-0.035
0.114
0.053
-0.017
0.032
0.092
0.068
0.032
-0.018
0.045
0.040
-0.065
0.136
0.055
-0.012
0.026
-0.149
-0.092
-0.076
0.136
0.190
0.197
0.130
-0.074
-0.057
-0.137
-0.000
0.056
0.039
0.170
0.160
0.074
0.007
0.010
-0.034
-0.004
0.193
-0.006
-0.148
-0.452
0.665
1.861
-1.208
-1.988
-0.248
0.697
0.695
0.351
0.239
-0.124
-0.181
-0.288
-0.118
0.025
0.060
0.223
0.324
-0.271
0.012
0.390
0.333
0.141
-0.130
-0.185
-0.117
-0.018
0.046
-0.018
-0.029
0.012
0.014
0.026
0.052
0.072
0.153
0.002
-0.102
-0.106
0.113
0.129
0.086
0.008
0.002
0.075
-0.008
-0.005
-0.062
0.071
0.159
0.047
0.059
0.001
0.079
-0.013
-0.013
0.043
0.039
0.024
0.082
-0.033
0.042
0.034
0.036
0.039
0.052
0.110
0.019
0.003
-0.039
0.013
-0.020
0.014
0.012
0.048
0.118
0.071
-0.009
-0.015
-0.022
0.050
1.006
0.197
-1.783
-0.763
0.516
0.998
0.614
0.011
-0.122
-0.165
-0.135
-0.129
0.057
0.059
0.107
0.172
0.086
0.139
0.135
0.096
0.039
-0.048
-0.054
-0.020
-0.026
-0.093
-0.141
0.002
0.117
0.228
0.464
0.557
-0.489
-0.818
-0.164
0.402
0.140
-0.033
0.334
0.353
0.194
-0.135
-0.256
-0.129
0.079
0.207
-0.054
-0.416
-0.186
0.288
0.425
0.257
0.085
-0.026
-0.014
-0.050
-0.065
-0.067
-0.088
-0.054
0.099
0.131
0.069
0.164
-0.002
0.123
0.066
0.023
0.044
-0.054
-0.019
-0.023
-0.088
0.059
0.065
0.025
0.058
-0.010
-0.049
-0.001
0.023
0.088
0.555
1.118
-1.290
-1.324
0.091
0.655
0.620
0.269
0.026
-0.122
-0.177
-0.219
-0.185
-0.089
0.034
0.290
0.292
0.111
0.053
0.080
-0.041
0.107
0.049
0.004
-0.017
-0.002
0.124
-0.083
-0.025
0.063
0.074
-0.015
-0.021
-0.042
-0.026
0.014
0.036
0.050
0.046
0.009
0.112
0.233
0.008
-0.250
-0.164
0.060
0.398
0.554
-0.346
-0.712
-0.019
0.388
0.155
0.122
0.008
0.353
-0.534
-0.570
0.477
0.701
0.292
-0.078
-0.412
-0.239
0.999
-0.529
-1.132
0.183
0.748
0.567
0.193
-0.102
-0.243
-0.254
-0.276
-0.092
0.058
0.043
0.271
0.264
0.221
0.074
-0.014
0.002
-0.029
0.000
0.050
0.076
0.083
0.001
-0.017
0.092
-0.029
-0.065
-0.040
0.019
0.027
0.025
0.052
0.024
0.062
0.058
0.002
0.035
0.009
-0.105
0.082
0.140
0.136
0.059
0.044
0.044
-0.028
0.004
0.018
0.023
0.069
0.037
0.007
0.010
0.015
0.053
0.010
0.084
0.045
0.005
0.015
0.037
-0.025
0.041
0.073
0.036
-0.025
0.003
0.120
0.065
0.061
0.037
0.045
0.152
-0.339
-0.204
0.274
0.414
0.159
0.005
1.069
-0.059
-1.613
-0.573
0.258
0.774
0.548
0.133
0.001
-0.212
-0.161
-0.169
-0.093
0.081
0.081
-0.032
0.073
0.119
0.106
0.196
0.145
0.078
-0.016
-0.025
0.098
0.609
-0.081
-0.799
-0.263
0.171
0.182
0.236
0.235
0.115
-0.031
-0.013
-0.044
-0.064
-0.031
-0.050
-0.004
0.072
0.243
0.218
0.088
-0.052
-0.083
0.046
0.231
0.176
-0.136
-0.577
-0.507
-0.002
0.579
0.662
0.305
-0.103
-0.273
-0.319
-0.195
0.049
0.120
0.229
0.113
0.139
0.193
0.086
0.008
-0.015
-0.023
-0.112
-0.035
0.015
0.017
0.007
0.037
0.708
0.821
-1.345
-1.114
0.089
0.715
0.607
0.197
-0.024
0.022
-0.489
-0.375
0.164
0.402
0.288
0.046
-0.115
-0.087
0.063
0.071
0.114
0.048
0.040
0.051
0.037
-0.035
-0.011
-0.042
0.009
0.009
0.017
0.051
0.024
-0.002
0.015
-0.048
0.035
0.046
0.117
0.082
-0.086
-0.022
0.022
0.034
0.179
-0.061
0.024
0.031
-0.047
0.128
0.620
-0.019
-0.718
-0.357
0.220
0.268
0.278
0.135
0.061
-0.065
-0.155
-0.056
-0.007
-0.004
0.030
0.048
0.045
0.056
0.216
1.062
0.491
-1.505
-0.894
0.283
0.535
0.414
0.264
0.190
-0.185
-0.607
-0.238
0.134
-0.385
0.246
0.754
0.423
-0.046
-0.135
0.005
-0.202
-0.095
0.222
0.233
0.068
0.031
-0.089
0.006
0.204
0.114
-0.008
-0.131
-0.048
0.009
0.066
-0.012
-0.015
-0.112
-0.035
0.164
0.234
0.157
-0.050
-0.042
-0.008
0.012
0.043
0.074
0.047
0.190
-0.083
-0.311
0.202
0.281
0.191
-0.053
-0.091
-0.118
-0.238
-0.069
0.110
0.174
0.193
0.231
1.268
-0.566
-1.661
-0.383
0.479
0.771
0.343
0.066
-0.044
-0.097
-0.116
-0.102
-0.030
-0.005
0.035
0.152
0.236
0.200
0.079
-0.019
-0.032
0.073
0.595
-0.189
-0.731
-0.266
0.209
0.132
0.220
0.086
0.072
0.046
-0.079
-0.135
-0.078
-0.019
-0.019
0.181
0.343
0.224
-0.310
-0.483
-0.195
0.315
0.438
0.326
0.053
-0.099
-0.144
-0.136
-0.109
0.048
0.015
0.089
0.072
0.121
0.045
0.053
0.075
-0.003
0.098
0.113
-0.022
-0.084
-0.036
0.018
0.006
0.044
0.074
0.105
1.053
0.181
-1.626
-0.668
0.359
0.966
-0.033
-0.164
0.250
0.361
0.153
-0.195
-0.313
-0.096
0.001
0.118
0.075
0.205
0.267
0.103
0.217
0.190
-0.037
-0.299
-0.265
-0.144
0.004
0.196
0.121
0.138
-0.082
-0.063
-0.182
-0.040
0.255
0.330
0.162
0.077
-0.039
-0.092
-0.004
0.026
0.050
-0.001
0.022
0.510
-0.235
-0.808
0.241
0.559
0.280
0.033
-0.114
-0.172
-0.081
0.319
0.476
-0.308
-0.628
-0.022
0.268
0.170
0.328
0.133
-0.011
-0.049
-0.035
-0.059
-0.146
-0.017
0.009
0.044
0.145
0.156
-0.015
0.048
0.039
0.111
0.482
1.191
-1.082
-1.570
-0.186
0.521
0.676
0.395
0.037
-0.108
-0.153
-0.104
-0.105
-0.036
-0.039
0.219
0.462
-0.157
-0.352
-0.195
0.248
0.376
0.272
0.090
-0.024
-0.116
-0.079
-0.116
-0.075
-0.010
0.120
0.142
0.076
0.077
0.133
0.055
0.028
0.056
-0.007
-0.082
-0.035
0.007
0.017
0.014
0.041
0.032
0.036
0.085
0.068
-0.043
-0.068
0.033
0.017
0.038
0.055
-0.035
-0.018
0.191
0.127
-0.025
-0.122
-0.056
0.104
0.119
0.069
-0.005
-0.023
0.060
-0.014
0.034
0.527
1.155
-1.049
-1.613
-0.046
0.649
0.708
0.298
0.526
-0.015
-0.972
-0.711
-0.063
0.224
0.479
0.550
0.306
0.011
-0.112
-0.188
-0.103
0.116
0.155
0.032
-0.057
0.060
0.128
0.050
0.030
-0.001
0.149
0.011
-0.087
-0.112
-0.002
0.015
0.052
0.067
0.059
0.127
0.086
-0.285
-0.224
0.243
0.338
0.238
0.078
0.203
0.046
-0.311
-0.441
-0.162
0.209
0.391
0.256
0.101
0.038
-0.125
-0.151
-0.071
0.062
0.042
0.064
0.056
0.163
0.026
0.006
0.008
0.055
0.036
-0.022
0.001
0.118
0.047
0.271
0.229
-0.052
0.519
-0.895
-0.652
0.310
0.528
0.518
0.090
-0.007
-0.193
-0.243
-0.118
0.001
0.121
0.228
0.184
0.019
-0.033
0.086
0.109
0.007
0.079
0.010
0.005
-0.013
0.003
0.014
0.029
0.068
0.495
0.302
-0.656
-0.504
0.124
0.206
0.252
0.269
-0.009
-0.015
-0.064
-0.106
-0.028
-0.031
0.064
0.086
0.011
0.133
0.075
0.090
-0.006
0.007
0.050
0.081
0.003
-0.073
-0.182
0.067
0.178
0.173
0.007
-0.142
0.128
-0.057
-0.317
0.134
0.421
0.098
0.028
-0.055
0.041
-0.009
0.078
-0.064
-0.011
0.142
0.189
0.724
1.195
-1.420
-2.045
-0.168
0.878
1.014
0.535
0.042
-0.344
-0.260
-0.217
-0.177
-0.041
0.051
0.060
0.234
0.360
0.390
0.291
-0.072
-0.298
-0.268
-0.051
0.089
0.111
0.185
0.140
0.083
-0.106
-0.215
-0.124
0.016
0.167
0.136
0.123
0.050
0.125
-0.021
-0.103
0.026
-0.054
0.054
0.102
0.114
0.051
-0.029
0.012
-0.032
0.033
0.466
0.565
-0.406
-0.733
-0.103
0.165
0.186
0.218
0.350
0.031
-0.146
-0.015
1.156
-0.262
-1.726
-0.488
0.429
0.824
0.522
0.177
0.257
-0.089
-1.009
-0.299
0.376
0.350
0.179
0.049
0.076
-0.055
-0.006
0.107
0.113
0.184
-0.363
-0.061
0.338
0.305
0.052
-0.178
-0.153
-0.009
-0.019
-0.025
0.090
0.103
0.014
0.047
0.070
0.045
0.004
-0.022
-0.004
0.105
0.248
0.036
-0.347
-0.629
-0.095
0.453
0.610
0.210
-0.064
-0.107
-0.167
-0.116
0.077
-0.019
0.097
0.033
0.158
0.068
0.091
0.089
-0.001
-0.092
0.085
0.107
-0.165
-0.112
0.256
1.364
-0.576
-1.615
-0.234
0.473
0.677
0.374
0.136
-0.077
-0.189
-0.073
-0.113
-0.056
0.061
0.091
0.122
0.540
0.357
-0.585
-0.556
0.067
0.219
0.224
0.324
0.190
-0.150
-0.301
-0.202
0.068
0.143
0.182
0.087
-0.045
0.021
-0.009
0.086
0.043
0.060
0.172
0.041
0.016
0.035
-0.078
0.053
0.044
0.065
0.008
-0.040
0.022
-0.020
0.057
0.061
-0.009
-0.093
0.073
0.045
-0.280
0.149
0.320
0.242
0.147
0.103
0.048
-0.294
-0.603
-0.138
0.165
0.510
0.338
0.154
-0.072
-0.096
0.150
1.090
-0.825
-1.637
-0.174
0.665
0.877
0.246
0.067
-0.082
-0.236
-0.165
-0.133
0.022
0.062
0.088
0.135
0.131
0.153
-0.033
0.030
-0.068
0.098
0.134
0.209
0.058
-0.027
-0.226
-0.120
0.129
0.036
0.145
0.083
0.019
0.032
-0.049
0.045
-0.006
-0.063
0.029
0.064
0.039
-0.108
0.006
0.045
0.084
-0.096
-0.031
0.098
0.239
0.182
0.013
-0.049
0.041
0.488
-0.049
-0.731
-0.342
0.053
0.273
0.441
0.365
0.129
-0.110
-0.179
-0.197
-0.019
0.006
0.115
0.110
0.210
-0.176
-0.175
0.312
0.307
0.220
0.875
0.135
-1.763
-0.857
0.265
0.802
0.518
0.183
0.061
-0.141
-0.164
-0.115
-0.057
0.043
-0.058
0.066
0.183
0.109
0.215
-0.008
-0.021
-0.071
0.067
0.049
0.065
0.016
0.264
0.415
-0.824
-1.117
0.197
0.730
0.643
0.196
-0.004
-0.049
-0.124
-0.237
-0.163
0.017
0.242
0.131
0.145
0.122
0.096
-0.020
-0.080
0.034
0.089
-0.086
-0.122
0.040
-0.021
0.017
0.015
0.092
0.033
-0.029
-0.010
-0.009
0.011
0.019
0.305
1.131
-0.879
-1.460
0.000
0.599
0.707
0.606
0.453
-0.491
-0.898
-0.331
0.006
0.181
0.240
0.265
0.154
0.056
0.203
-0.168
-0.538
0.069
0.352
0.367
0.140
-0.153
-0.068
-0.026
0.008
0.146
0.124
-0.003
0.038
0.007
-0.016
-0.008
0.005
0.122
0.075
0.005
-0.206
-0.160
0.137
0.207
0.106
-0.001
-0.081
0.002
-0.006
0.045
0.042
-0.009
0.031
0.065
0.051
-0.009
0.051
0.009
-0.123
0.085
0.302
0.235
0.111
-0.074
-0.125
0.034
0.195
1.263
0.274
-2.154
-1.219
0.291
1.152
0.974
0.321
-0.114
-0.337
-0.384
-0.277
-0.070
0.095
0.098
0.141
0.261
0.237
0.070
0.127
0.003
0.024
-0.065
0.033
0.078
0.144
-0.016
-0.192
-0.120
-0.006
0.112
0.064
0.146
0.072
0.056
0.049
-0.057
0.026
-0.007
0.047
0.219
0.085
-0.036
-0.062
0.059
0.191
-0.299
-0.257
0.198
0.312
0.187
0.008
0.105
0.484
-0.367
-0.788
-0.058
0.226
0.256
0.264
0.166
0.062
-0.130
-0.123
-0.082
-0.042
0.018
0.024
0.102
0.044
0.054
0.147
0.053
0.091
0.037
-0.011
0.080
-0.052
0.237
1.201
-0.496
-1.664
-0.387
0.459
0.770
0.413
0.224
-0.066
-0.127
0.039
-1.053
-0.603
0.660
0.933
0.577
-0.009
-0.461
-0.515
-0.175
0.341
0.401
0.275
0.002
-0.015
-0.084
-0.124
-0.095
0.013
0.083
-0.087
0.018
0.112
0.116
0.145
-0.041
-0.154
0.061
0.061
-0.067
-0.110
0.153
0.218
0.155
0.112
0.074
-0.112
-0.007
-0.018
0.082
0.101
0.085
-0.031
-0.002
-0.020
-0.123
-0.067
0.106
0.114
0.302
1.126
-0.368
-1.790
-0.362
1.224
0.638
-0.403
-0.304
0.064
0.020
0.122
0.082
0.061
-0.039
-0.018
0.046
-0.007
0.093
0.048
0.106
0.070
0.040
0.016
0.077
0.048
0.002
0.067
-0.055
-0.078
-0.040
0.041
0.234
0.093
-0.019
-0.026
-0.108
-0.030
0.138
0.002
0.065
0.111
0.010
0.054
0.016
-0.001
0.075
-0.083
0.050
-0.067
-0.021
0.057
0.122
0.008
0.072
0.037
0.009
0.026
0.070
0.085
0.094
0.133
0.251
0.033
-0.374
-0.550
-0.084
0.154
0.328
0.229
0.043
-0.001
-0.028
-0.104
-0.055
-0.042
0.048
0.042
0.097
0.129
0.433
1.303
-0.722
-1.596
-0.252
0.533
0.761
0.431
0.061
-0.221
-0.189
-0.042
-0.031
0.053
0.104
0.045
0.159
0.640
-0.281
-0.942
-0.021
0.883
0.274
-0.577
0.045
0.443
0.199
-0.326
-0.231
-0.008
0.107
0.106
0.094
0.090
0.043
0.095
0.141
0.059
-0.014
-0.105
-0.137
0.110
0.142
0.143
0.067
-0.061
-0.013
-0.068
-0.014
-0.022
0.029
0.179
0.116
0.030
0.022
0.032
-0.091
-0.079
-0.019
0.079
0.070
-0.049
0.829
0.799
-1.459
-0.968
0.439
0.690
0.178
-0.224
-0.057
0.153
0.152
-0.022
-0.109
-0.217
-0.048
0.020
0.116
0.146
0.140
0.096
0.062
0.155
0.166
0.153
0.065
-0.079
-0.092
0.050
-0.018
-0.004
-0.101
-0.031
0.130
0.190
0.108
0.008
-0.125
-0.007
-0.149
0.035
0.020
-0.040
0.082
0.094
0.081
0.011
0.020
-0.031
-0.004
-0.023
-0.011
0.117
-0.317
-0.098
0.671
0.684
-0.369
-0.699
-0.203
0.151
0.298
0.284
0.223
-0.011
-0.074
-0.053
-0.085
-0.075
0.019
0.228
1.244
-0.545
-1.611
-0.201
0.599
0.704
0.408
-0.010
-0.109
-0.156
-0.108
-0.178
0.047
0.099
-0.009
0.121
0.003
0.088
0.256
0.179
0.054
-0.050
-0.056
0.046
0.153
0.308
0.026
-0.370
-0.537
-0.138
0.328
0.404
0.217
-0.012
-0.033
-0.092
-0.206
-0.083
0.392
-0.368
-0.899
0.327
0.765
0.604
0.201
-0.109
-0.268
-0.259
-0.245
-0.014
0.205
0.213
0.141
0.108
0.021
-0.094
-0.017
0.032
0.728
0.674
-1.584
-1.126
0.238
0.748
0.659
0.341
-0.061
-0.503
-0.158
0.154
0.199
-0.053
-0.005
0.032
0.056
0.142
0.221
0.214
0.125
-0.012
-0.083
-0.005
-0.037
0.002
-0.026
-0.024
-0.000
0.054
-0.000
-0.018
0.141
0.002
0.093
0.557
-0.131
-0.776
-0.345
0.195
0.250
0.323
0.216
-0.038
-0.240
0.006
0.157
0.132
0.076
0.053
-0.067
-0.060
0.038
0.162
0.141
0.179
0.079
0.188
-0.024
-0.377
-0.362
-0.057
0.204
0.376
0.200
-0.041
-0.113
-0.066
-0.095
-0.018
0.047
0.605
1.213
-1.033
-1.564
-0.082
0.676
0.771
0.401
0.021
-0.208
-0.424
-0.202
-0.010
0.093
0.115
0.013
-0.001
0.103
0.236
0.177
0.087
0.159
-0.286
-0.149
0.363
0.276
0.132
-0.187
-0.212
-0.151
-0.044
0.095
0.071
0.049
0.033
0.064
0.022
-0.099
-0.001
-0.021
-0.029
0.037
0.036
0.061
0.105
0.030
0.066
-0.008
0.034
0.050
-0.026
-0.015
0.024
0.091
0.032
-0.042
-0.036
0.035
0.058
0.020
0.123
0.561
0.319
-0.719
-0.613
0.130
0.167
0.195
0.221
0.422
-0.154
-0.393
0.976
-0.549
-1.089
0.030
0.687
1.000
0.238
-0.546
-0.712
-0.208
0.309
0.307
0.230
0.075
0.032
-0.043
-0.088
0.059
0.025
0.062
-0.043
0.088
0.090
-0.052
0.091
0.042
-0.005
-0.022
-0.041
0.028
0.250
0.145
-0.082
-0.116
0.002
0.037
0.138
0.075
-0.372
-0.033
0.400
0.241
-0.035
-0.071
-0.037
0.047
-0.047
0.003
0.101
-0.008
0.098
0.119
-0.014
-0.217
-0.196
0.102
0.346
1.398
-0.028
-1.856
-0.577
0.429
0.693
0.403
0.133
0.028
-0.171
-0.134
-0.071
0.025
0.116
0.584
-0.070
-0.668
-0.310
0.032
0.387
0.476
0.279
0.093
0.064
0.002
-0.162
-0.446
-0.545
-0.075
0.377
0.500
0.352
0.183
0.022
-0.185
-0.180
-0.082
-0.006
0.132
0.032
0.033
-0.046
0.067
0.053
0.125
0.087
0.050
-0.026
0.074
-0.001
0.009
-0.098
0.059
0.063
0.023
0.032
0.083
0.034
0.076
0.001
0.052
0.022
0.046
-0.003
-0.029
0.015
0.024
0.026
-0.017
-0.055
0.063
0.039
0.079
0.027
0.142
1.228
-0.173
-1.703
-0.921
0.480
1.086
0.780
0.194
-0.228
-0.380
-0.254
-0.138
-0.076
0.111
0.141
0.217
0.101
0.139
0.110
-0.026
-0.037
-0.021
0.011
0.010
0.004
0.293
-0.468
-0.644
0.464
0.629
0.324
-0.116
-0.160
-0.125
-0.032
0.077
0.087
0.074
0.154
0.259
0.326
0.071
-0.084
-0.799
-0.830
0.220
0.594
0.182
0.074
0.068
0.037
-0.150
-0.319
-0.057
0.114
0.246
0.214
0.054
0.093
0.051
0.462
1.193
-1.035
-1.395
0.087
0.541
0.550
0.226
-0.011
-0.182
-0.178
-0.112
-0.109
-0.058
0.024
0.205
0.148
0.105
0.102
0.044
0.011
0.093
-0.040
0.062
0.020
0.032
0.034
0.003
0.047
-0.043
0.022
0.048
0.015
0.143
-0.229
-0.116
0.330
0.301
0.090
-0.144
-0.177
-0.023
0.014
0.052
0.091
0.024
0.099
0.007
0.039
-0.047
-0.026
0.108
0.049
0.053
-0.027
-0.039
-0.090
0.009
0.088
0.254
0.323
-0.052
-0.511
-0.393
0.071
0.712
1.431
-0.761
-1.567
-0.156
0.461
0.598
0.427
0.113
-0.074
-0.200
-0.053
-0.040
0.002
-0.055
0.089
0.741
0.251
-0.665
-0.373
0.159
0.136
0.175
0.157
0.116
-0.089
-0.151
-0.119
-0.039
-0.131
0.068
0.193
0.314
0.134
0.006
-0.062
-0.084
0.009
-0.026
0.064
0.131
0.136
0.120
-0.009
-0.211
-0.198
-0.071
0.035
0.290
-0.082
-0.181
0.318
0.183
-0.220
-0.126
0.264
0.239
0.205
0.009
-0.140
-0.091
0.055
0.109
0.229
0.086
-0.001
0.034
0.182
0.025
-0.818
-0.290
0.539
0.350
0.111
0.006
-0.108
0.327
1.072
-0.922
-1.447
-0.010
0.689
0.775
0.285
-0.025
-0.200
-0.190
-0.050
-0.096
-0.002
0.090
0.043
0.009
0.129
0.127
0.102
0.092
0.077
0.063
0.165
0.013
0.173
0.168
-0.266
-0.527
-0.255
0.121
0.466
0.306
0.052
-0.044
-0.045
-0.177
-0.246
-0.036
0.164
0.198
0.074
0.097
0.063
0.081
0.060
0.398
0.312
-0.484
-0.658
-0.112
0.157
0.267
0.203
0.123
-0.025
-0.069
-0.082
-0.059
-0.036
-0.053
0.053
0.068
0.170
0.095
0.390
1.246
-0.853
-1.618
-0.142
0.540
0.668
0.390
-0.388
-0.197
0.263
0.251
-0.120
-0.279
-0.134
0.031
0.108
0.189
0.281
0.126
0.033
0.043
0.031
0.034
-0.054
-0.051
-0.042
-0.053
-0.125
-0.002
0.161
0.197
0.092
-0.084
-0.082
-0.025
-0.133
-0.017
0.293
0.127
-0.002
0.128
0.116
0.174
0.055
-0.057
-0.143
-0.232
-0.079
0.195
0.282
0.169
0.039
-0.025
-0.038
-0.015
-0.102
-0.013
-0.004
-0.062
0.037
0.106
0.108
0.082
0.108
0.075
0.041
-0.050
-0.004
-0.003
0.126
1.297
-0.212
-1.361
-0.392
-0.203
0.219
0.495
0.566
0.376
-0.031
-0.228
-0.270
-0.118
-0.057
-0.056
0.145
0.151
0.139
0.140
0.101
0.084
0.029
0.113
0.233
-0.284
-0.194
0.191
0.195
0.126
-0.001
0.273
-0.236
-0.523
-0.173
0.107
0.291
0.172
0.176
0.211
-0.128
-0.165
-0.082
-0.028
-0.092
-0.009
-0.019
0.040
0.051
0.091
0.066
0.006
0.025
-0.007
-0.046
0.084
0.093
0.060
-0.034
0.023
-0.016
0.056
0.013
0.094
0.057
0.113
-0.008
0.080
0.079
0.060
0.081
0.115
-0.037
-0.081
-0.038
0.015
1.011
0.076
-1.556
-0.621
0.374
0.802
0.405
-0.055
-0.212
-0.111
0.120
0.178
-0.017
-0.033
-0.148
0.040
0.114
0.165
0.102
0.070
0.199
0.121
-0.038
-0.135
-0.187
-0.014
-0.006
-0.070
0.068
0.270
0.264
-0.084
-0.509
-0.163
0.108
0.397
0.569
0.270
-0.243
-0.508
-0.065
0.563
0.777
-0.393
-0.732
-0.251
0.182
0.153
0.232
0.185
0.101
-0.011
-0.026
-0.060
-0.143
0.305
1.219
-1.072
-1.387
0.107
0.624
1.009
0.129
-0.672
0.056
0.344
0.127
-0.174
-0.253
-0.119
-0.109
0.119
0.218
0.084
0.069
0.095
0.126
0.082
0.055
0.011
-0.021
-0.005
0.023
-0.009
-0.039
-0.022
0.010
0.082
0.112
0.014
0.095
0.214
0.140
-0.215
-0.468
-0.223
0.182
0.420
0.144
0.061
-0.019
-0.060
-0.125
-0.036
-0.001
0.112
0.079
0.059
0.072
0.092
0.092
0.120
1.136
-0.219
-1.731
-0.516
0.422
0.562
0.466
0.145
-0.076
-0.170
-0.164
-0.091
0.221
0.555
-0.258
-0.593
0.091
0.270
-0.205
0.216
0.474
0.291
-0.185
-0.175
-0.006
0.076
0.036
-0.041
0.038
0.078
0.095
-0.011
0.045
0.036
0.087
0.096
0.116
0.102
-0.108
-0.190
-0.154
0.032
-0.025
0.202
0.078
-0.028
-0.018
0.096
0.011
0.031
0.127
-0.001
0.021
0.095
0.058
0.120
0.104
0.382
0.002
-0.818
0.867
0.695
-1.002
-0.220
0.088
0.044
-0.059
-0.005
0.240
0.241
0.016
-0.171
-0.263
-0.017
0.126
0.162
0.161
0.091
0.138
0.099
0.074
0.016
-0.032
-0.026
-0.011
0.040
0.067
0.090
0.063
-0.054
-0.025
-0.250
-0.062
0.165
0.156
0.095
-0.067
0.100
0.061
0.028
0.013
0.024
0.073
0.118
-0.016
0.138
0.612
0.055
-0.859
-0.420
0.119
0.122
0.241
0.249
0.146
0.077
-0.382
-0.247
0.236
0.290
0.178
0.082
0.022
1.007
-0.386
-1.570
-0.370
0.468
0.844
0.481
0.091
-0.089
-0.214
-0.236
-0.283
-0.094
0.100
0.107
0.268
0.291
0.153
-0.116
-0.162
0.142
0.274
-0.120
-0.335
-0.227
0.222
0.371
0.141
0.037
-0.145
-0.182
-0.120
-0.130
0.008
0.057
0.261
0.299
0.227
0.083
-0.045
-0.072
-0.048
-0.007
0.039
0.055
0.021
-0.003
0.040
0.078
0.285
-0.615
-0.477
0.489
0.604
0.161
-0.028
0.273
0.935
-1.078
-1.470
-0.124
0.519
0.838
0.597
0.196
-0.134
-0.245
-0.188
-0.201
-0.088
0.111
0.496
0.453
-0.481
-0.488
0.045
0.166
0.225
0.301
0.076
0.112
-0.535
-0.294
0.295
0.335
0.240
-0.051
-0.096
0.074
0.012
0.088
0.050
0.051
0.097
0.125
-0.040
-0.096
0.003
0.156
0.228
-0.006
-0.077
-0.091
0.040
0.069
0.034
-0.117
0.024
0.053
0.058
0.025
0.066
0.042
0.071
0.000
-0.018
-0.078
0.097
0.204
0.094
-0.372
-0.453
-0.110
0.308
0.468
0.228
0.067
-0.050
0.422
0.604
-1.389
-1.058
0.367
0.750
0.630
0.193
-0.031
-0.070
-0.113
-0.166
-0.052
0.028
0.069
0.096
0.091
0.186
0.112
0.127
-0.062
-0.240
-0.186
0.080
0.129
0.116
0.059
0.016
-0.005
-0.092
-0.059
0.219
0.563
-0.235
-0.487
-0.511
-0.069
0.421
0.528
0.356
-0.047
-0.206
-0.413
-0.142
0.107
0.175
0.091
0.326
-0.243
-0.661
0.266
0.633
0.415
-0.001
-0.181
-0.159
-0.121
-0.081
0.057
0.071
0.112
0.100
0.063
0.044
-0.025
-0.000
0.061
0.472
1.204
-0.985
-1.692
-0.135
0.540
0.691
0.374
0.145
-0.060
-0.064
-0.009
0.069
0.063
-0.339
-0.393
-0.078
0.450
0.513
0.253
-0.021
-0.044
-0.099
0.022
-0.139
0.037
0.144
-0.024
0.061
0.052
0.018
0.136
0.092
0.044
-0.139
-0.053
0.207
0.153
0.017
-0.036
-0.108
-0.056
0.047
0.093
0.083
0.031
0.037
0.249
0.591
-0.149
-0.844
-0.321
0.245
0.241
1.197
0.525
-1.614
-0.893
0.190
0.848
0.319
-0.296
0.093
0.248
0.116
-0.101
-0.311
-0.182
0.179
0.269
0.333
0.151
-0.044
-0.036
0.014
0.099
0.095
0.127
0.237
-0.018
-0.419
-0.311
0.023
0.305
0.236
0.026
-0.052
-0.008
-0.034
0.001
0.003
0.060
0.062
0.065
0.223
0.062
-0.043
0.110
0.231
0.025
-0.394
-0.462
0.005
0.328
0.283
0.113
0.007
0.402
-0.577
-0.760
0.341
0.490
0.436
0.172
-0.028
-0.120
-0.193
-0.135
0.025
0.110
0.109
0.138
0.341
1.207
-0.760
-1.612
-0.124
0.467
0.631
0.336
0.019
-0.016
-0.086
-0.087
-0.031
-0.033
0.061
0.058
0.159
0.111
0.023
0.063
0.079
0.038
0.094
0.177
0.552
-0.171
-0.775
-0.356
0.380
-0.093
-0.044
0.414
0.424
0.086
-0.170
-0.219
-0.089
0.057
0.100
0.068
0.126
0.060
0.152
0.093
0.003
-0.013
0.041
0.010
0.041
-0.022
0.015
0.021
0.000
0.008
-0.004
-0.098
0.022
0.241
0.184
0.093
-0.038
-0.032
0.027
-0.066
-0.146
0.084
0.270
0.215
-0.077
0.056
0.181
1.145
-0.160
-1.680
-0.473
0.358
0.665
0.602
0.353
-0.105
-0.576
-0.591
-0.127
0.311
0.355
0.166
0.060
0.050
-0.104
-0.016
-0.035
0.059
0.068
0.020
0.022
0.159
0.097
0.149
0.040
0.020
-0.007
0.005
-0.049
0.093
0.115
0.151
0.027
-0.225
-0.216
0.377
0.152
-0.373
-0.223
0.072
0.263
0.089
-0.023
0.039
0.023
-0.058
-0.007
-0.015
0.083
-0.016
0.065
0.124
-0.118
-0.257
0.209
0.406
0.329
-0.103
-0.176
-0.201
0.014
0.057
0.101
0.075
0.037
0.062
-0.006
-0.038
0.367
1.192
-0.919
-1.596
-0.043
0.571
0.708
0.305
-0.011
-0.097
-0.166
-0.127
-0.078
0.036
0.088
0.064
0.118
0.150
0.121
0.085
0.021
-0.002
0.118
0.043
0.012
0.059
-0.099
-0.198
0.018
0.333
0.174
-0.269
-0.401
-0.148
0.265
0.341
0.265
0.100
-0.051
-0.103
-0.027
-0.275
0.019
0.154
0.289
0.216
0.090
-0.017
-0.114
-0.028
0.052
0.024
0.006
0.087
0.040
0.023
0.126
0.003
0.009
-0.103
-0.098
0.173
0.186
0.189
0.001
-0.146
0.072
-0.261
-0.349
0.278
0.440
0.311
0.190
-0.063
-0.159
-0.035
1.219
-0.473
-1.769
-0.259
0.551
0.913
0.907
-0.198
-0.765
-0.448
-0.100
0.103
0.163
0.352
0.165
0.040
-0.096
-0.037
0.036
0.052
0.066
0.166
0.074
0.094
0.145
-0.026
-0.050
-0.064
0.042
0.071
-0.020
-0.020
0.023
0.052
-0.001
0.032
0.014
0.022
-0.066
0.002
0.002
0.101
0.094
0.076
0.078
-0.044
-0.134
-0.109
0.144
0.176
0.202
0.083
-0.413
-0.409
0.022
0.398
0.327
0.538
-0.381
-0.867
0.191
0.670
0.248
-0.099
-0.273
-0.213
0.042
0.159
0.588
1.186
-1.046
-1.375
-0.091
0.596
0.769
0.243
-0.012
-0.126
-0.211
-0.142
-0.090
-0.470
-0.141
0.402
0.690
0.332
-0.116
-0.192
-0.087
-0.072
0.096
0.064
0.104
0.094
-0.002
-0.164
-0.066
0.096
0.139
0.105
-0.001
-0.112
-0.030
0.015
-0.017
0.027
0.066
0.086
0.068
0.140
0.019
-0.085
-0.039
0.065
0.079
0.479
0.225
-0.666
-0.490
0.156
0.181
0.294
0.233
0.118
-0.050
-0.113
-0.065
-0.105
-0.013
0.048
0.060
0.048
0.088
0.093
0.121
0.047
0.031
0.072
0.377
0.946
-1.032
-1.232
0.007
0.450
0.541
0.240
-0.008
-0.119
-0.157
-0.218
-0.161
0.118
0.262
0.249
0.021
0.067
0.021
0.085
0.021
-0.349
-0.080
0.303
0.340
0.241
-0.031
-0.098
0.121
0.051
-0.223
-0.596
-0.290
0.266
0.474
0.337
0.026
-0.025
-0.059
-0.119
-0.028
-0.053
-0.054
0.100
0.116
0.110
0.131
0.072
0.128
0.018
-0.060
-0.016
-0.045
0.006
0.054
-0.030
0.000
-0.012
-0.006
0.115
-0.021
0.132
0.095
0.021
0.015
0.055
0.011
-0.035
-0.001
0.104
0.017
-0.002
0.022
0.071
-0.121
-0.072
0.056
0.095
0.195
0.215
0.140
0.026
-0.051
0.072
1.072
-0.447
-1.602
-0.363
0.581
0.689
0.391
0.146
-0.134
-0.175
-0.136
-0.152
-0.022
0.029
0.166
0.080
0.047
-0.043
0.080
0.143
0.312
0.546
-0.018
-0.765
-0.359
0.102
0.123
0.287
0.198
0.048
-0.124
0.134
0.261
-0.757
-0.241
0.169
0.265
0.349
0.317
0.056
-0.117
-0.191
-0.050
0.049
0.101
0.138
0.000
0.060
0.103
0.037
-0.174
-0.091
0.088
0.067
0.044
-0.009
-0.038
-0.035
0.059
0.305
0.259
-0.096
-0.520
-0.382
1.023
0.739
-1.282
-0.788
0.315
0.656
0.470
0.077
-0.159
-0.190
-0.002
-0.064
-0.079
0.140
0.109
0.050
0.141
0.111
0.089
0.019
-0.016
0.040
-0.089
-0.042
-0.061
0.049
0.038
0.093
-0.003
0.031
-0.006
0.111
0.034
0.003
0.040
0.051
0.021
0.032
0.023
0.016
0.032
0.114
0.033
0.012
-0.014
0.102
0.079
-0.057
-0.140
-0.023
0.067
0.135
0.058
0.066
-0.022
-0.079
-0.231
-0.007
0.168
0.050
0.124
0.181
-0.280
0.020
0.408
0.233
0.028
-0.104
-0.080
-0.091
0.015
0.037
0.352
0.513
0.368
-0.165
-1.674
-0.822
0.425
0.858
0.582
0.169
-0.098
-0.188
-0.128
-0.097
-0.021
0.002
-0.162
-0.084
0.281
0.356
0.160
0.130
0.002
-0.098
-0.119
0.070
0.062
0.047
-0.064
-0.023
0.088
0.294
0.162
-0.289
-0.481
-0.125
0.241
0.378
0.218
0.049
-0.015
-0.163
-0.067
-0.031
-0.020
-0.009
-0.010
0.107
0.048
0.080
0.138
0.006
0.115
0.008
-0.068
-0.031
0.083
-0.013
0.053
-0.090
-0.060
0.099
0.050
0.131
-0.052
0.067
-0.427
-0.102
0.331
0.453
0.263
-0.064
-0.109
-0.048
-0.071
-0.138
0.272
1.343
-0.707
-1.528
-0.227
0.442
0.654
0.392
0.102
-0.132
-0.218
-0.202
-0.200
0.051
0.115
0.060
0.052
0.189
0.290
0.264
0.070
-0.167
-0.014
0.274
-0.533
-0.564
0.391
0.454
0.163
0.236
0.365
-0.372
-0.749
-0.130
0.126
0.164
0.217
0.176
0.046
-0.017
0.012
0.056
-0.017
-0.026
0.004
-0.017
0.076
0.068
0.029
0.149
0.054
-0.003
-0.018
0.097
-0.053
0.027
-0.020
0.085
0.035
0.048
0.132
0.154
0.239
0.016
-0.269
-0.522
-0.129
0.267
0.433
0.227
0.023
-0.069
-0.085
0.978
-0.010
-1.779
-0.537
0.644
0.763
0.468
0.068
0.021
-0.122
-0.091
-0.151
-0.138
0.212
-0.121
-0.290
0.327
0.353
0.339
0.107
-0.089
-0.223
-0.077
0.021
0.056
0.072
0.270
0.088
-0.107
-0.091
0.028
0.081
-0.021
0.135
0.040
0.074
-0.005
-0.042
0.021
0.026
0.049
0.072
0.056
-0.048
-0.017
0.025
0.006
0.068
-0.000
0.043
0.013
0.068
0.023
0.007
-0.205
0.029
0.187
0.162
0.086
-0.080
-0.080
-0.088
0.022
0.171
0.005
0.137
0.188
0.586
-0.263
-0.741
-0.258
0.167
0.272
1.506
-0.215
-1.568
-0.462
0.255
0.517
0.338
0.096
-0.165
-0.168
0.086
0.182
0.176
0.038
-0.054
0.116
0.042
0.105
0.011
0.069
0.272
-0.150
-0.191
0.247
0.348
0.431
-0.075
-0.396
-0.546
-0.253
0.307
0.409
-0.650
-0.122
0.651
0.441
0.006
-0.181
-0.253
-0.102
-0.057
0.081
0.168
0.282
0.052
-0.104
0.102
0.107
0.036
-0.013
0.107
-0.010
-0.089
0.041
-0.011
0.021
0.136
0.063
0.019
0.003
0.046
-0.051
-0.020
0.030
0.136
0.112
0.072
0.041
0.902
0.283
-1.501
-0.919
0.278
0.767
0.565
0.131
-0.113
-0.143
-0.035
-0.114
-0.131
-0.061
0.038
0.117
0.076
0.122
0.202
0.075
0.035
-0.019
0.096
0.042
-0.003
0.077
0.571
-0.017
-0.829
-0.364
0.158
0.244
0.206
0.038
0.125
0.082
0.099
0.082
-0.163
-0.133
-0.085
0.024
0.077
0.119
0.323
0.232
-0.014
-0.359
-0.296
-0.226
0.079
0.567
0.311
0.190
-0.234
-0.389
-0.240
0.228
0.292
0.148
0.093
0.058
0.121
-0.137
-0.065
0.094
0.126
0.120
0.140
0.411
0.920
-1.152
-1.524
-0.061
0.448
0.759
0.361
0.049
-0.093
-0.148
0.004
-0.072
0.050
0.011
0.032
0.171
0.138
0.135
0.064
0.034
-0.045
0.067
0.026
-0.031
0.014
0.048
-0.039
0.094
0.059
-0.066
-0.054
-0.156
-0.055
0.094
0.273
0.198
-0.037
-0.039
-0.046
0.032
0.090
0.045
0.049
0.114
0.034
0.038
0.032
0.077
-0.041
-0.108
-0.067
0.029
0.114
0.015
-0.008
0.131
0.034
0.024
0.050
-0.001
-0.069
0.035
-0.039
-0.400
0.335
1.043
-0.056
-0.723
-0.331
0.080
0.112
0.196
0.190
0.387
1.107
-1.031
-1.644
-0.011
0.618
0.810
0.158
-0.009
0.182
-0.813
-0.457
0.586
0.781
0.335
-0.333
-0.591
-0.282
0.197
0.390
0.452
0.176
-0.101
-0.265
-0.118
0.064
-0.012
0.072
0.093
0.034
0.007
0.031
0.109
-0.002
0.019
0.026
-0.040
0.010
0.136
0.136
0.095
-0.032
-0.045
0.019
0.011
-0.052
-0.014
0.061
0.131
0.182
0.053
-0.063
-0.112
-0.072
-0.017
0.087
0.098
0.071
0.066
0.105
0.244
-0.002
-0.077
-0.234
-0.008
0.307
-0.293
-0.018
1.419
-0.369
-1.465
-0.379
0.345
0.722
0.396
0.084
-0.049
-0.131
-0.151
-0.074
0.134
0.144
0.119
0.091
0.107
0.008
0.070
-0.057
0.535
0.363
-0.608
-0.592
0.059
0.113
0.175
0.231
0.155
0.063
-0.078
-0.103
-0.065
-0.115
-0.006
0.107
0.022
0.169
0.068
0.112
0.146
0.035
0.063
0.083
-0.035
-0.055
-0.030
0.027
0.055
-0.024
-0.047
0.054
0.099
0.163
0.097
0.041
-0.073
-0.064
-0.056
0.023
0.185
0.079
0.119
-0.032
0.006
-0.002
-0.006
-0.024
0.001
0.061
0.054
0.027
0.949
0.430
-1.296
-0.732
0.062
0.229
0.247
0.323
0.361
0.125
-0.115
-0.294
-0.266
-0.024
0.028
0.123
0.097
0.186
0.231
0.142
0.146
0.063
-0.051
0.008
-0.022
-0.012
0.055
0.152
-0.230
-0.435
0.177
0.529
0.345
-0.015
-0.222
-0.150
-0.128
-0.013
0.126
0.082
0.087
0.051
0.057
0.010
-0.144
-0.047
0.044
-0.014
0.072
-0.037
-0.035
0.083
0.060
0.018
0.030
-0.014
0.039
0.040
0.025
0.026
0.046
0.237
0.021
0.019
-0.039
-0.013
0.128
0.005
0.032
0.018
0.038
0.040
0.057
0.053
0.039
0.070
-0.017
-0.010
0.004
0.058
0.103
0.062
-0.009
1.529
0.383
-2.303
-1.216
0.419
0.859
0.750
0.397
0.115
-0.245
-0.386
-0.308
-0.103
0.116
0.142
0.184
0.131
0.135
0.093
0.040
0.093
0.036
0.032
0.203
0.376
-0.460
-0.326
0.355
-0.004
-0.092
0.142
0.106
0.078
-0.118
-0.381
0.097
0.383
0.279
0.067
-0.077
-0.136
0.024
-0.056
0.010
-0.003
0.411
1.313
-0.874
-1.542
-0.128
0.522
0.606
0.275
-0.109
-0.139
-0.154
0.005
-0.057
0.067
0.119
0.124
0.147
0.049
-0.005
0.095
-0.012
-0.082
0.030
0.013
0.051
0.021
0.014
0.089
0.012
-0.022
-0.041
0.059
0.031
-0.014
0.033
0.037
0.027
-0.043
-0.024
0.059
0.034
0.020
0.117
0.082
0.053
-0.002
-0.049
-0.136
0.063
0.271
0.748
0.042
-0.814
-0.491
0.175
0.145
0.281
0.262
0.012
-0.127
-0.176
-0.014
0.038
0.021
0.040
-0.029
-0.002
0.028
0.022
0.135
0.060
0.015
0.063
0.052
0.130
0.743
0.597
-1.476
-1.114
0.203
0.724
0.645
0.259
-0.117
-0.087
-0.204
-0.512
-0.005
0.566
0.582
0.160
-0.475
-0.493
0.004
0.353
0.450
0.156
0.021
0.026
-0.093
-0.138
-0.053
-0.047
-0.035
0.111
0.021
0.101
0.090
0.020
-0.017
0.036
0.132
-0.020
-0.093
0.058
0.104
0.027
-0.038
0.028
-0.027
-0.029
0.049
-0.081
0.012
0.196
0.206
0.164
-0.118
-0.118
-0.109
-0.057
0.058
0.093
0.097
0.007
0.090
0.184
0.241
-0.040
-0.109
-0.063
-0.062
0.051
-0.014
0.112
-0.015
0.069
0.103
-0.003
0.914
0.518
-1.517
-0.827
0.280
0.465
0.380
0.156
0.284
0.578
-0.415
-0.866
-0.318
0.172
0.282
0.279
0.325
0.031
0.006
0.049
0.003
0.074
0.106
0.048
-0.025
-0.006
0.025
0.061
0.029
0.113
0.012
0.086
0.123
0.139
-0.441
-0.036
0.319
0.192
-0.038
-0.015
-0.067
-0.127
0.052
0.142
-0.004
0.064
0.039
0.035
-0.003
0.005
-0.024
0.018
-0.032
0.010
0.017
0.087
0.047
-0.022
0.006
0.021
0.144
0.325
0.218
0.050
-0.096
-0.974
-0.519
0.772
0.819
0.271
-0.095
0.867
-0.218
-1.631
-0.502
0.509
0.855
0.543
-0.058
-0.333
-0.276
-0.019
0.185
0.132
0.088
-0.088
0.040
0.013
0.014
0.063
-0.102
-0.021
0.072
0.166
0.490
0.524
-0.495
-0.713
-0.155
0.123
0.173
0.203
0.070
0.069
-0.032
-0.081
-0.096
-0.033
0.046
0.130
-0.080
0.107
0.244
0.134
0.036
-0.022
-0.133
-0.018
0.074
0.058
0.028
0.136
-0.095
-0.376
0.154
0.301
0.259
0.025
-0.086
-0.144
-0.045
0.079
0.057
-0.011
0.059
0.064
0.005
0.061
0.120
0.059
0.043
1.107
0.002
-1.658
-0.522
0.389
0.661
0.416
0.182
-0.011
-0.181
-0.126
-0.184
-0.046
0.095
0.025
0.063
0.198
0.075
0.039
0.135
0.095
0.034
-0.089
-0.049
0.143
0.368
0.087
-0.404
-0.535
-0.149
0.190
0.456
0.236
0.032
-0.089
-0.141
-0.087
-0.068
0.037
0.063
0.048
0.123
0.119
0.159
0.098
0.003
0.061
0.002
-0.088
-0.105
-0.027
0.102
0.081
0.061
0.037
-0.008
0.026
0.092
0.000
0.071
0.083
-0.023
0.204
0.358
-0.122
-0.622
-0.055
0.273
0.191
0.127
0.048
0.481
0.975
-1.220
-1.550
0.172
0.583
0.620
0.221
0.118
0.020
-0.149
-0.446
-0.130
0.256
0.297
0.192
-0.015
-0.014
-0.006
0.039
0.038
0.108
0.212
0.227
-0.788
-0.290
0.606
0.359
0.152
-0.183
-0.158
-0.109
-0.126
0.041
0.048
-0.090
0.013
0.233
0.172
0.134
-0.002
0.076
-0.044
0.161
0.237
-0.028
-0.510
-0.385
0.197
0.459
0.376
0.210
0.012
-0.133
-0.236
-0.347
-0.131
0.171
0.173
0.053
0.158
0.079
-0.007
0.013
0.149
0.005
-0.042
-0.042
0.051
0.227
0.056
-0.087
0.122
1.232
-0.340
-1.744
-0.426
0.499
0.661
0.347
0.135
0.042
-0.175
-0.206
0.057
-0.434
-0.254
0.367
0.412
0.408
0.073
-0.049
0.512
0.077
-0.786
-0.617
0.022
0.262
0.393
0.507
0.083
-0.137
-0.230
-0.263
-0.010
-0.002
0.096
0.117
0.085
0.122
0.123
-0.005
0.103
0.074
-0.002
-0.039
-0.106
-0.072
0.045
0.039
0.157
0.052
0.105
-0.031
-0.051
0.076
-0.028
0.117
0.111
0.020
0.058
-0.071
0.083
0.040
0.004
0.029
0.063
0.047
0.043
-0.036
0.764
0.478
-1.507
-0.958
0.227
0.720
0.629
0.183
-0.144
-0.172
0.001
0.040
-0.053
-0.031
0.033
0.203
0.176
-0.154
-0.312
-0.080
0.272
0.433
0.291
-0.023
-0.037
-0.046
-0.031
-0.090
-0.156
-0.045
0.123
0.145
0.126
0.221
0.118
-0.449
-0.008
0.380
0.253
0.076
-0.186
-0.049
0.050
-0.121
0.024
0.042
-0.033
0.056
0.053
0.160
0.089
-0.005
0.018
0.166
0.432
-0.344
-0.705
-0.116
0.275
0.259
0.294
0.113
-0.041
-0.016
-0.236
0.004
0.086
0.141
0.204
0.099
0.017
0.886
-0.118
-1.546
-0.501
0.549
0.865
0.478
0.248
-0.080
-0.908
-0.399
0.347
0.228
0.094
0.145
0.049
-0.036
0.037
0.119
-0.004
-0.010
0.071
0.057
0.066
-0.034
-0.001
0.039
0.017
-0.020
-0.098
0.057
0.054
0.070
0.028
-0.032
0.004
-0.008
0.097
0.105
0.074
0.040
0.159
0.200
0.112
-0.334
-0.541
-0.116
0.181
0.535
0.314
-0.346
-0.087
0.068
0.096
-0.043
-0.146
0.079
0.132
-0.059
0.096
0.166
0.187
0.134
-0.009
-0.126
-0.128
0.032
0.078
0.041
0.128
0.038
-0.021
0.001
0.065
-0.002
0.018
0.848
0.507
-1.538
-0.894
0.272
0.642
0.578
0.187
-0.195
-0.190
-0.003
-0.125
-0.038
0.107
-0.032
0.080
0.052
0.023
0.135
0.152
0.044
-0.018
0.062
0.082
0.255
0.542
-0.263
-0.738
-0.076
0.167
0.159
0.158
0.177
0.048
-0.115
-0.036
-0.088
-0.048
0.020
0.056
0.017
-0.015
0.017
0.036
0.078
0.229
0.095
0.065
-0.016
-0.116
-0.085
-0.070
-0.035
0.182
0.047
0.138
0.136
0.015
-0.035
0.029
0.080
0.117
-0.235
-0.302
0.193
0.297
0.080
0.229
1.011
-0.972
-1.575
-0.166
0.695
0.917
0.396
0.038
0.013
0.008
-0.180
-0.713
-0.416
0.074
0.509
0.540
0.233
-0.009
-0.066
-0.096
0.060
0.017
0.056
-0.033
-0.021
0.019
0.076
0.078
0.032
0.029
0.249
-0.011
-0.808
-0.167
0.632
0.448
0.168
-0.034
-0.084
-0.101
-0.098
0.021
0.083
0.040
0.037
0.175
0.080
-0.066
0.014
0.513
0.507
-0.615
-0.758
-0.163
0.121
0.352
0.286
0.134
-0.035
-0.052
0.693
0.564
-1.550
-0.943
0.227
0.717
0.583
0.160
0.077
-0.093
-0.077
-0.111
-0.079
0.008
0.109
0.036
0.157
0.126
0.019
-0.010
0.009
0.092
-0.003
0.042
0.061
0.059
0.066
0.021
0.070
0.009
0.134
-0.303
-0.236
0.158
0.328
0.222
0.043
-0.060
-0.089
-0.024
-0.082
0.042
0.056
0.082
0.099
0.009
-0.062
-0.009
-0.060
-0.025
0.056
0.095
0.036
0.035
0.060
-0.023
0.020
-0.009
0.002
0.039
0.027
0.122
-0.012
-0.023
0.067
0.016
0.001
0.188
0.444
0.148
-0.343
-0.453
0.981
0.220
-1.282
-0.400
0.369
0.665
0.340
0.009
-0.031
-0.224
-0.120
-0.094
-0.064
0.213
0.691
-0.114
-0.628
-0.167
0.324
0.319
0.282
0.151
-0.053
-0.116
-0.089
-0.114
-0.046
0.069
0.018
0.030
0.043
0.085
0.166
-0.003
0.001
0.044
0.032
0.059
-0.052
0.014
0.075
0.085
-0.058
-0.032
0.064
0.217
0.147
0.139
-0.115
0.127
-0.045
-0.598
-0.035
0.451
0.549
0.137
-0.150
0.173
0.734
-1.197
-1.207
0.135
0.760
0.645
0.274
-0.040
-0.167
-0.149
-0.144
-0.145
0.078
0.225
0.437
0.051
-0.450
-0.291
0.048
0.382
0.401
0.144
0.000
-0.102
-0.088
-0.128
0.022
0.028
-0.081
-0.074
0.039
0.328
0.299
0.061
-0.025
-0.072
-0.048
0.055
-0.032
0.005
0.019
0.034
0.036
0.071
0.681
-0.061
-0.728
-0.423
0.229
0.184
0.329
0.190
0.058
0.002
-0.033
-0.068
-0.139
-0.091
-0.010
0.031
0.134
0.147
0.029
0.113
0.652
0.986
-1.258
-1.355
0.052
0.577
0.620
0.293
0.159
-0.046
-0.161
-0.690
-0.282
0.305
0.383
0.310
0.034
-0.089
-0.139
-0.050
0.165
0.207
0.139
0.082
-0.057
-0.031
-0.013
-0.031
0.077
0.018
0.046
0.082
0.310
0.273
-0.119
-0.549
-0.421
0.025
0.520
0.451
0.019
-0.156
-0.323
-0.068
0.065
0.124
0.122
0.085
0.029
0.082
0.023
0.029
-0.005
0.031
0.017
0.075
0.159
0.004
-0.002
0.035
-0.042
-0.020
-0.059
0.021
0.220
0.523
0.986
-0.709
-1.963
-0.423
0.646
0.913
0.595
-0.016
-0.140
-0.168
-0.042
-0.049
-0.075
0.027
0.067
0.071
0.104
0.122
0.242
0.128
0.087
0.019
0.027
0.004
-0.107
-0.053
0.071
-0.037
-0.054
0.002
0.171
-0.318
-0.221
0.323
0.401
0.211
-0.159
-0.100
0.028
0.149
0.133
0.012
-0.062
-0.040
0.034
0.003
0.038
0.112
0.193
0.214
0.074
-0.274
-0.591
0.347
1.082
-0.860
-0.682
0.166
0.493
0.329
0.026
-0.093
-0.154
-0.031
-0.021
0.033
0.135
0.217
0.188
0.074
-0.043
-0.155
0.021
0.396
0.623
-0.232
-0.694
-0.201
0.189
0.161
0.117
0.103
0.103
-0.017
0.004
-0.047
-0.016
0.101
0.053
0.110
0.018
0.008
0.038
-0.016
0.062
0.132
0.032
0.023
0.057
-0.036
-0.307
-0.155
0.081
0.185
0.155
0.095
-0.051
-0.005
-0.106
0.024
0.175
0.154
-0.003
0.049
-0.100
0.081
0.076
-0.322
-0.060
0.346
0.281
0.148
-0.081
-0.156
0.079
1.200
-0.435
-1.552
-0.270
0.433
0.795
0.504
0.065
-0.188
-0.311
-0.201
0.314
-0.022
-0.791
-0.039
0.590
0.598
0.410
0.029
-0.481
-0.507
-0.106
0.301
0.491
0.214
-0.013
-0.043
-0.147
-0.168
-0.008
-0.016
-0.102
0.028
0.049
0.142
0.207
0.087
-0.001
0.057
0.715
0.119
-0.720
-0.493
0.051
0.188
0.305
0.193
0.023
-0.011
-0.034
0.006
-0.036
0.051
0.195
-0.002
-0.056
-0.132
-0.224
0.063
0.080
1.145
0.634
-1.423
-0.884
0.117
0.691
0.509
0.111
0.090
-0.089
-0.166
-0.197
-0.106
0.045
0.177
0.033
0.223
0.061
-0.032
0.245
0.268
0.208
-0.132
-0.172
-0.069
0.033
0.078
0.151
0.030
0.016
0.018
-0.041
0.012
-0.032
-0.097
0.009
0.058
0.101
0.076
0.047
-0.022
0.083
0.061
-0.118
-0.048
0.067
0.038
0.128
0.168
0.348
0.261
-0.171
-0.494
-0.480
0.047
0.371
0.388
0.247
0.031
-0.070
-0.136
-0.092
0.047
0.133
0.023
0.125
0.134
0.100
0.037
-0.002
0.030
0.010
-0.030
-0.047
0.051
0.193
0.511
0.377
0.053
-1.434
-1.132
0.251
0.880
0.823
0.162
-0.210
-0.139
-0.017
-0.053
-0.122
-0.265
0.056
0.403
0.094
0.388
-0.217
-0.075
0.533
0.262
-0.008
-0.172
-0.150
-0.089
-0.048
0.073
0.078
-0.014
-0.039
-0.036
-0.021
0.028
0.015
0.096
0.146
-0.040
-0.072
-0.046
0.043
0.203
0.112
0.004
0.064
0.085
0.261
0.058
-0.451
-0.583
-0.027
0.408
0.470
0.217
0.007
-0.170
0.188
1.060
-0.917
-1.539
-0.097
0.588
0.837
0.399
0.074
-0.134
-0.094
-0.088
-0.065
-0.049
0.023
-0.079
0.035
0.161
0.059
0.173
0.112
0.061
0.061
0.050
0.507
0.202
-0.720
-0.502
0.016
0.083
0.274
0.299
0.215
-0.011
-0.061
-0.149
-0.034
-0.041
-0.005
0.165
0.077
0.018
0.063
0.091
0.087
0.045
-0.421
-0.008
0.396
0.268
0.106
-0.062
-0.154
-0.117
-0.029
0.057
0.005
0.004
0.078
0.056
0.076
0.077
0.046
0.149
-0.095
-0.103
0.060
0.005
0.073
-0.001
0.092
0.080
0.028
-0.033
0.324
1.031
-0.901
-1.385
-0.118
0.438
0.659
0.550
0.115
-0.098
-0.215
-0.392
-0.256
-0.091
0.202
0.153
0.242
0.310
0.137
0.149
0.288
0.094
-0.191
-0.536
-0.183
0.154
0.235
0.064
0.066
0.313
-0.204
-0.890
0.041
0.743
0.867
-0.232
-0.791
-0.324
0.167
0.144
0.291
0.262
0.045
-0.078
0.056
0.083
-0.061
-0.062
-0.080
-0.004
0.041
-0.006
-0.023
0.154
0.209
0.086
0.152
0.396
0.693
-0.967
-1.394
0.054
0.704
0.794
0.321
-0.027
-0.272
-0.204
-0.149
-0.016
0.114
0.027
0.045
0.049
0.151
0.173
0.125
0.114
0.038
0.009
0.004
-0.025
-0.010
-0.039
-0.062
0.061
0.085
-0.014
-0.001
-0.045
0.048
0.022
0.079
0.063
0.157
0.348
0.152
-0.364
-0.580
-0.184
0.304
0.409
0.233
0.040
-0.091
-0.056
-0.102
-0.016
0.068
0.111
0.016
-0.009
-0.016
0.093
0.067
0.156
0.195
0.103
0.076
-0.114
-0.112
-0.112
0.017
0.077
-0.001
0.047
0.085
0.044
0.073
0.972
1.268
-1.924
-1.895
0.217
0.737
0.726
0.399
0.203
-0.090
-0.214
-0.381
-0.336
-0.280
0.082
0.279
0.301
0.235
0.205
0.112
-0.121
-0.144
-0.033
0.083
-0.005
-0.411
0.088
0.774
0.435
-0.035
-0.256
-0.258
-0.105
-0.006
0.130
0.289
0.082
-0.012
-0.039
-0.015
0.016
0.052
-0.013
-0.051
-0.098
-0.076
-0.105
0.098
0.128
0.025
-0.042
-0.056
0.123
0.241
0.289
-0.080
-0.625
-0.364
0.267
0.503
0.452
0.025
-0.015
-0.067
-0.127
-0.088
-0.049
0.066
0.170
0.457
1.141
-1.013
-1.448
0.054
0.622
0.631
0.304
0.032
-0.181
-0.151
-0.120
-0.073
-0.015
0.075
0.119
0.075
0.107
-0.031
0.098
0.225
0.219
0.035
0.307
0.253
-0.780
-0.663
0.087
0.461
0.393
0.073
-0.028
-0.045
-0.131
-0.408
0.037
0.444
0.362
0.044
-0.198
-0.045
0.060
0.081
0.184
0.139
0.035
-0.006
0.078
-0.021
0.004
-0.006
0.119
0.111
0.008
-0.093
-0.141
0.021
0.104
0.057
0.073
0.057
-0.063
0.088
0.004
0.014
0.011
0.013
0.073
0.042
0.240
1.301
-0.497
-1.632
-0.368
0.446
0.657
0.419
0.209
0.063
-0.098
-0.079
-0.005
0.044
-0.303
-0.528
-0.068
0.373
0.498
0.579
0.008
-0.837
-0.109
0.519
0.260
-0.069
-0.078
-0.106
-0.018
-0.010
-0.005
0.122
0.087
0.139
0.113
0.092
-0.049
-0.076
-0.007
-0.027
-0.001
-0.052
0.012
0.168
0.277
-0.171
-0.428
0.132
0.345
0.285
0.016
-0.014
0.032
-0.046
-0.104
-0.041
0.525
0.227
-0.784
-0.562
0.249
0.387
0.276
0.080
-0.223
-0.081
0.004
0.098
0.163
0.004
0.157
1.201
-0.462
-1.544
-0.195
0.514
0.724
0.417
0.019
-0.181
-0.189
-0.161
-0.017
-0.017
-0.012
-0.118
-0.033
0.107
0.189
0.182
0.126
0.101
0.081
0.108
0.263
0.042
-0.531
-0.669
-0.237
0.434
0.614
0.299
0.006
-0.046
-0.265
-0.129
-0.087
0.109
0.054
0.021
0.106
0.047
0.106
0.148
-0.042
-0.030
0.036
0.055
0.066
-0.047
0.043
-0.011
-0.157
0.017
0.085
0.066
0.009
0.021
0.059
-0.000
0.050
0.024
-0.019
0.018
-0.039
1.080
0.286
-1.606
-0.749
0.252
0.810
1.334
-0.158
-1.189
-0.364
0.288
0.317
0.072
-0.249
-0.097
0.216
0.269
0.299
0.071
-0.047
-0.029
0.040
-0.054
0.166
0.090
0.027
0.180
-0.047
-0.061
-0.240
-0.087
0.179
0.215
0.088
-0.043
-0.155
-0.000
0.084
0.029
0.131
0.243
0.056
-0.322
-0.461
0.007
0.391
0.433
0.169
-0.002
-0.156
-0.205
-0.093
0.078
0.254
0.054
0.007
0.009
0.037
0.108
0.063
0.081
1.254
0.279
-1.736
-0.897
0.057
0.707
0.615
0.293
0.076
-0.064
-0.251
-0.377
-0.196
0.058
0.212
0.255
0.160
0.109
0.053
0.019
0.039
0.046
0.019
0.074
0.117
0.136
-0.090
-0.150
-0.048
0.049
0.097
0.056
0.046
-0.022
0.055
-0.090
-0.013
-0.083
0.032
0.128
0.034
0.201
-0.343
-0.122
0.251
0.282
0.153
0.023
-0.105
-0.027
0.148
0.456
0.062
-0.660
-0.356
0.093
0.238
0.402
0.156
0.010
-0.203
-0.122
0.005
0.031
-0.069
0.071
-0.012
0.145
0.201
0.089
0.056
0.025
-0.080
0.205
0.640
1.199
-1.246
-2.069
-0.196
0.776
0.889
0.471
0.089
-0.105
-0.194
-0.303
-0.195
-0.116
-0.052
0.523
-0.114
-0.618
0.555
0.828
0.568
-0.062
-0.233
-0.293
-0.182
0.109
0.151
0.040
-0.085
-0.241
-0.030
0.171
0.081
0.063
0.076
-0.049
-0.190
-0.194
-0.069
0.135
0.136
0.115
0.039
0.082
0.009
0.014
0.135
0.050
-0.055
-0.018
0.058
0.187
0.079
0.032
0.129
-0.247
-0.279
0.233
0.372
0.223
-0.043
-0.099
0.003
-0.071
0.041
0.003
0.092
0.038
0.098
1.170
-0.245
-1.677
-0.526
0.853
0.806
-0.232
-0.345
0.049
0.058
0.130
0.031
-0.047
-0.161
-0.098
0.260
0.365
0.077
-0.334
-0.383
0.136
0.323
0.385
0.217
0.009
-0.025
-0.122
-0.100
-0.030
0.099
0.149
0.011
-0.006
0.014
0.133
0.187
0.084
-0.058
-0.111
-0.028
0.085
-0.011
0.051
0.046
0.074
-0.017
-0.176
-0.040
0.177
0.029
0.122
0.096
0.177
0.099
-0.116
0.055
0.023
0.040
-0.115
-0.088
0.166
0.152
0.499
1.172
-0.729
-1.574
-1.028
0.164
0.805
0.801
0.702
0.163
-0.283
-0.518
-0.493
-0.061
0.370
0.328
0.131
0.080
0.079
0.133
0.020
0.035
0.028
-0.014
-0.054
0.419
0.343
-0.631
-0.595
0.002
0.190
0.234
0.165
0.193
0.122
0.182
-0.140
-0.618
-0.520
0.210
0.578
0.425
-0.000
-0.024
-0.080
-0.089
-0.084
0.032
0.097
0.025
0.060
0.038
0.060
0.033
0.046
-0.020
-0.044
-0.049
0.054
0.030
0.135
1.048
-0.063
-1.710
-0.520
0.433
0.779
0.402
0.098
-0.078
-0.158
-0.041
-0.115
-0.058
0.028
0.099
0.191
0.198
0.107
0.061
-0.118
-0.208
-0.073
0.310
0.343
-0.361
-0.133
0.318
0.271
0.060
-0.189
-0.099
-0.041
0.219
0.145
0.043
-0.056
-0.100
0.071
0.136
0.088
0.028
-0.037
0.155
0.517
-0.361
-0.739
-0.174
0.222
0.271
0.322
0.443
0.276
-0.207
-0.562
-0.382
0.225
0.360
0.386
0.133
0.209
-0.453
-0.807
0.199
0.571
0.444
0.190
1.117
-0.526
-1.648
-0.392
0.511
0.764
0.447
-0.013
-0.211
-0.158
0.050
-0.014
-0.055
-0.006
0.045
-0.044
0.002
0.175
0.081
0.200
0.163
0.009
-0.019
-0.094
0.000
0.042
0.070
-0.016
-0.040
0.006
0.022
-0.013
0.089
0.016
0.043
0.026
0.111
0.062
-0.047
-0.087
-0.466
0.128
0.472
0.278
0.136
-0.123
-0.190
-0.081
0.062
0.138
0.106
0.010
-0.132
0.021
0.199
0.158
0.061
-0.015
-0.126
-0.156
0.020
1.356
1.445
-1.699
-2.185
-0.465
0.659
1.008
0.543
0.196
-0.118
-0.202
-0.334
-0.197
-0.096
0.043
0.063
0.201
0.218
0.232
0.089
0.150
0.093
0.032
0.133
0.030
0.027
-0.015
0.025
0.017
-0.133
-0.061
0.010
0.081
0.113
0.116
-0.032
0.061
-0.050
0.050
0.092
-0.032
0.444
-0.301
-0.744
0.239
0.603
0.312
-0.097
-0.076
-0.099
-0.117
-0.051
-0.020
0.090
0.105
0.088
0.120
-0.313
-0.233
0.028
0.278
0.385
0.149
-0.176
-0.164
-0.111
-0.020
0.075
0.156
0.126
0.063
0.497
1.108
-1.051
-1.573
-0.109
0.672
0.661
0.217
0.051
-0.074
-0.105
-0.239
-0.103
-0.020
0.034
0.055
-0.051
0.176
0.420
0.419
0.388
0.038
-0.150
-0.305
-0.783
-0.264
0.438
0.464
0.242
0.046
-0.067
-0.092
-0.199
-0.307
-0.047
0.244
0.200
0.145
0.100
0.031
-0.106
-0.211
-0.039
0.132
0.153
0.160
0.053
0.034
0.013
-0.142
-0.085
0.013
-0.049
0.020
0.017
0.017
0.085
-0.010
0.098
0.085
0.162
0.034
-0.022
-0.049
0.311
1.227
-0.732
-1.542
-0.187
0.478
0.609
0.276
0.125
-0.049
-0.169
-0.100
0.004
-0.447
-0.011
0.347
0.382
0.194
-0.055
-0.070
-0.082
-0.015
0.006
0.089
0.012
0.026
0.119
0.088
-0.019
0.077
-0.084
-0.171
0.016
0.107
0.199
0.038
0.006
-0.080
-0.099
0.159
0.282
0.057
-0.300
-0.337
0.045
0.299
0.226
0.093
0.000
0.038
-0.110
0.435
0.138
-0.923
-0.551
0.158
0.657
0.456
0.174
0.050
-0.147
-0.254
-0.105
-0.020
-0.033
0.080
0.157
0.153
0.069
0.347
1.118
-1.073
-1.441
-0.017
0.633
0.608
0.277
-0.097
-0.250
-0.105
0.046
0.098
0.036
0.195
0.186
-0.020
-0.174
-0.156
-0.007
0.187
0.279
0.245
0.110
-0.119
-0.258
-0.079
0.137
0.321
-0.155
-0.231
-0.107
-0.174
0.226
0.280
0.296
0.076
0.014
-0.003
-0.069
-0.122
0.015
0.040
0.060
0.096
0.033
0.134
0.090
0.037
-0.130
-0.195
-0.067
0.075
0.162
0.100
0.072
0.043
0.138
1.144
-0.601
-1.665
-0.200
0.572
0.682
0.447
0.058
-0.020
-0.046
0.371
-0.160
-0.748
-0.356
0.190
0.241
0.151
0.243
0.259
0.233
0.042
-0.128
-0.171
-0.171
0.007
0.097
0.093
0.122
0.158
0.014
0.065
0.048
-0.041
-0.006
-0.032
-0.001
-0.023
-0.053
0.013
-0.028
-0.022
0.021
0.124
0.164
0.100
-0.023
0.016
-0.060
-0.000
-0.039
0.089
0.019
0.018
-0.194
0.085
0.209
0.299
0.184
-0.346
-0.003
-0.385
0.170
0.915
1.175
-0.421
-2.312
-1.007
0.724
1.255
0.748
0.133
-0.156
-0.422
-0.376
-0.202
-0.043
0.136
0.186
-0.035
-0.057
0.062
0.241
0.125
0.137
0.140
-0.076
-0.039
-0.013
0.035
0.045
0.559
-0.001
-0.646
-0.301
0.157
0.311
0.373
0.234
0.069
-0.069
-0.122
-0.141
-0.095
-0.034
0.078
0.057
-0.009
0.063
0.067
0.006
-0.004
-0.139
0.107
0.153
0.189
0.059
-0.008
-0.072
-0.034
-0.040
-0.054
0.135
0.180
0.105
0.008
0.082
-0.030
-0.021
-0.030
0.028
-0.004
0.046
0.050
0.804
0.541
-1.418
-1.008
0.304
0.669
0.566
0.188
0.035
-0.068
-0.139
-0.157
-0.009
0.048
-0.385
0.236
0.633
0.449
-0.274
-0.649
-0.247
0.267
0.502
0.286
0.008
-0.027
-0.112
-0.128
-0.023
0.013
-0.047
-0.032
0.038
0.211
0.119
0.204
0.154
-0.067
-0.224
-0.145
0.010
0.127
0.093
0.437
-0.592
-0.398
1.016
0.452
-0.494
-0.464
0.099
0.160
0.185
0.128
0.048
-0.044
0.693
0.658
-1.481
-1.159
0.249
0.801
0.431
0.274
0.174
-0.011
-0.123
-0.298
-0.125
-0.035
-0.003
0.163
0.176
0.229
0.090
0.091
0.108
-0.006
0.011
-0.030
-0.155
-0.007
0.063
0.188
0.106
-0.033
-0.011
-0.082
0.020
0.142
0.090
-0.299
-0.075
0.433
0.440
0.086
-0.103
-0.228
-0.122
-0.058
0.055
0.135
0.135
0.109
0.086
-0.020
0.118
0.122
0.031
-0.468
-0.455
-0.027
0.437
0.454
0.236
-0.070
-0.224
-0.209
0.141
0.150
-0.030
0.146
0.081
0.047
1.076
0.144
-1.670
-0.638
0.381
0.685
0.503
0.168
0.071
0.353
-0.337
-0.939
-0.330
0.102
0.349
0.341
0.309
0.074
-0.141
0.079
0.311
0.091
-0.243
-0.289
-0.074
0.121
0.078
0.123
0.106
0.011
0.045
-0.004
-0.041
0.122
0.073
0.038
-0.078
-0.038
0.015
0.072
0.059
0.197
0.167
-0.686
-0.141
0.650
0.420
0.054
-0.041
-0.083
-0.540
-0.063
0.311
0.397
0.126
-0.116
-0.115
-0.075
-0.082
-0.074
0.199
1.130
0.643
-1.537
-0.987
0.119
0.798
0.648
-0.019
-0.507
-0.455
-0.165
0.224
0.548
0.267
-0.008
-0.121
-0.109
-0.086
0.017
0.068
0.020
0.095
0.166
0.148
0.161
0.031
0.026
-0.027
-0.059
-0.078
-0.102
0.029
0.061
0.118
0.125
0.011
-0.003
-0.036
0.057
-0.008
0.056
0.048
0.071
-0.025
0.123
0.573
-0.152
-0.832
-0.403
0.291
0.330
0.328
0.121
-0.095
-0.062
0.016
-0.061
-0.012
-0.010
0.049
0.072
0.112
0.103
0.062
0.029
0.033
0.027
0.154
-0.419
-0.348
0.342
0.596
0.810
0.634
-1.506
-1.340
0.060
0.774
0.754
0.344
0.057
-0.189
-0.268
-0.227
-0.131
0.014
0.106
0.127
0.180
0.119
0.011
-0.017
0.073
0.008
0.065
0.098
0.100
0.222
0.180
-0.124
-0.509
-0.399
0.033
0.469
0.518
0.201
-0.230
-0.295
-0.301
-0.044
0.290
0.304
0.390
0.101
-0.849
-0.205
0.651
0.385
0.089
-0.067
-0.030
-0.029
-0.119
-0.072
0.078
-0.005
0.116
0.114
0.081
-0.007
-0.074
0.403
0.161
-0.553
-0.510
0.122
0.200
0.263
1.181
0.269
-1.721
-0.691
0.333
0.734
0.462
-0.010
-0.048
-0.151
-0.065
-0.073
0.002
0.118
0.219
-0.254
-0.203
0.313
0.375
0.245
-0.080
-0.141
0.005
-0.085
-0.055
-0.006
0.082
0.201
0.205
0.034
-0.037
-0.134
-0.055
-0.034
0.049
0.078
0.039
0.028
-0.011
-0.010
-0.015
0.100
0.072
-0.122
-0.020
0.071
0.184
0.150
-0.054
-0.122
0.088
0.292
0.139
-0.340
-0.471
0.043
0.481
0.302
-0.132
-0.174
-0.029
0.058
0.100
0.057
-0.057
0.191
1.249
-0.583
-2.034
-0.242
1.007
1.147
0.532
-0.088
-0.345
-0.245
-0.171
-0.171
0.043
0.077
0.195
0.128
0.048
0.026
0.050
0.386
0.413
-0.576
-0.741
-0.055
0.217
0.340
0.257
0.115
0.260
0.062
-0.866
-0.284
0.489
0.412
0.205
0.053
-0.089
0.021
0.007
0.044
0.026
0.103
0.077
0.068
-0.051
0.018
0.038
0.074
0.046
-0.037
0.030
0.040
-0.094
-0.067
0.004
0.117
0.042
0.051
0.352
1.165
-0.733
-1.501
-0.101
0.525
0.570
0.291
0.075
0.012
0.110
-0.018
-0.401
-0.557
-0.137
0.294
0.607
0.354
0.023
-0.054
-0.201
-0.150
-0.059
0.303
0.364
0.044
-0.039
-0.013
-0.054
-0.045
0.163
0.175
0.070
-0.179
-0.170
-0.033
-0.307
0.173
0.478
0.321
-0.006
-0.197
-0.223
-0.082
0.045
0.055
0.137
0.167
0.025
0.007
0.183
0.620
0.115
-0.819
-0.641
0.069
0.296
0.373
0.285
0.053
-0.085
-0.095
-0.073
-0.088
0.836
0.381
-1.446
-0.795
0.363
0.822
0.494
0.182
-0.144
-0.120
-0.173
-0.266
-0.039
0.119
0.098
0.112
0.182
0.124
0.176
0.160
0.120
-0.069
-0.059
-0.022
-0.020
0.165
0.219
-0.013
-0.416
-0.443
0.077
0.380
0.371
0.174
-0.043
-0.030
-0.153
-0.126
0.031
0.014
0.144
0.150
0.004
0.008
-0.063
0.088
0.087
0.184
0.331
-0.493
-0.706
0.225
0.518
0.281
0.012
-0.065
-0.105
0.029
-0.000
-0.113
0.184
-0.250
-0.120
0.289
0.344
0.214
-0.129
-0.190
-0.159
0.211
1.208
-0.654
-1.652
-0.085
1.095
0.923
-0.290
-0.486
0.040
-0.015
0.036
-0.058
0.075
0.093
0.008
0.064
0.007
0.045
0.079
0.106
0.055
0.045
-0.080
0.081
0.132
0.094
0.072
-0.032
-0.035
-0.129
-0.130
0.023
-0.109
-0.065
0.219
0.327
0.226
0.150
0.005
-0.159
-0.132
-0.079
0.062
0.058
0.113
0.079
0.078
0.036
0.165
0.295
0.002
-0.359
-0.639
-0.202
0.376
0.168
-0.069
0.196
0.269
0.280
-0.090
-0.191
-0.133
-0.075
0.795
0.921
-1.079
-0.999
0.112
0.585
0.641
0.288
0.124
-0.232
-0.293
-0.233
-0.059
0.035
0.116
0.130
0.083
0.044
0.104
0.116
0.048
-0.009
0.028
0.030
0.014
0.066
-0.033
0.086
0.047
-0.043
0.128
0.001
-0.041
0.000
-0.002
0.081
0.372
0.322
-0.513
-0.566
0.008
0.180
0.222
0.319
0.335
-0.085
-0.882
-0.045
0.588
0.209
0.021
-0.047
-0.039
-0.084
0.018
0.138
0.140
0.094
0.129
0.259
0.066
-0.101
-0.116
-0.099
0.063
-0.041
0.106
-0.045
0.078
0.464
0.582
-1.429
-1.293
0.383
0.921
0.723
0.115
-0.257
-0.234
0.024
-0.372
-0.061
0.360
0.456
0.120
0.035
-0.039
0.073
0.051
0.147
0.095
-0.070
0.003
0.037
-0.016
-0.008
-0.072
-0.075
-0.012
0.111
0.039
0.008
-0.046
0.028
0.057
0.112
-0.074
-0.086
0.026
0.192
0.127
0.096
0.016
0.006
0.016
0.039
-0.051
-0.011
0.072
-0.049
0.078
0.053
0.020
0.007
0.052
0.119
0.569
-0.214
-0.772
-0.260
0.188
0.192
0.179
0.190
0.048
-0.156
0.118
1.337
-0.493
-1.629
-0.194
0.347
0.194
0.363
0.555
0.472
0.243
-0.125
-0.600
-0.854
-0.297
0.185
0.531
0.424
0.168
0.046
-0.092
-0.155
-0.192
-0.001
-0.117
0.086
0.291
0.281
0.041
-0.271
-0.205
-0.021
0.186
0.193
0.057
-0.031
-0.010
-0.001
-0.027
-0.031
0.005
-0.002
-0.016
0.117
0.019
-0.114
-0.009
0.150
0.203
0.052
-0.007
-0.038
-0.076
-0.049
-0.021
0.024
0.062
0.062
0.170
0.049
0.016
0.022
0.037
0.028
-0.104
-0.175
-0.024
0.522
1.188
-1.059
-1.386
0.005
0.609
0.716
0.274
-0.012
-0.166
-0.113
-0.012
0.176
-0.700
-0.283
0.597
0.579
0.311
-0.042
-0.036
-0.049
-0.130
-0.027
0.050
0.129
0.112
0.108
0.249
-0.250
0.051
0.536
-0.231
-0.464
-0.005
0.071
0.087
0.202
0.126
-0.001
-0.081
0.002
0.014
0.021
0.042
-0.048
-0.004
0.215
0.309
0.165
-0.253
-0.553
-0.259
0.251
0.495
0.312
0.059
-0.131
-0.145
-0.113
-0.042
-0.008
0.040
0.137
0.117
0.143
0.102
0.760
0.560
-1.469
-0.831
0.310
0.728
0.530
0.027
-0.060
-0.236
-0.272
-0.003
0.123
0.176
0.089
-0.043
0.006
0.143
0.282
0.093
0.025
-0.168
-0.181
0.000
0.134
0.191
0.133
-0.061
-0.105
-0.300
-0.080
0.285
0.143
0.015
0.016
0.046
0.028
0.042
0.048
-0.002
-0.010
0.176
0.257
0.203
0.026
-0.155
-0.216
-0.196
-0.010
0.139
0.192
0.121
0.351
0.400
-0.486
-0.747
-0.054
0.305
0.269
0.271
0.323
-0.271
-0.400
0.116
0.270
0.118
-0.046
-0.056
-0.022
-0.053
0.080
0.107
0.072
0.813
0.555
-1.152
-0.729
0.093
0.072
0.123
0.195
0.408
0.128
-0.044
-0.243
-0.271
-0.038
0.045
0.063
0.160
0.155
0.212
0.108
0.065
0.280
-0.048
-0.793
-0.075
0.504
0.326
0.194
-0.010
-0.143
-0.147
-0.117
-0.040
0.030
0.167
0.096
0.038
0.041
0.054
0.034
0.106
0.002
-0.160
-0.005
0.074
0.015
-0.111
-0.036
0.124
-0.059
-0.036
0.071
-0.006
-0.003
0.103
0.193
0.083
0.004
-0.050
-0.069
0.047
-0.006
0.046
0.068
0.198
0.133
0.050
-0.048
-0.043
0.084
0.027
0.123
1.343
0.681
-2.251
-1.426
0.216
0.888
0.806
0.376
0.098
-0.134
-0.189
-0.091
-0.143
-0.299
-0.176
0.201
-0.116
0.097
0.587
0.660
0.457
-0.092
-0.567
-0.672
-0.274
0.346
0.488
0.212
0.022
0.014
-0.044
-0.093
-0.106
-0.078
0.127
0.123
0.082
0.087
0.024
-0.053
-0.056
0.126
0.103
0.039
0.034
-0.010
0.000
-0.039
0.042
0.121
-0.010
0.025
-0.014
0.073
0.048
-0.000
0.012
0.049
0.026
0.037
-0.021
-0.036
-0.044
0.043
0.084
0.063
0.035
0.002
-0.122
-0.105
0.151
0.294
0.237
0.042
0.888
-0.008
-1.568
-0.715
0.338
0.878
0.454
-0.018
-0.060
0.006
-0.115
-0.180
-0.051
-0.013
0.087
0.180
0.623
0.176
-0.689
-0.382
0.188
0.194
0.316
0.067
0.102
-0.029
-0.105
-0.203
-0.165
0.038
0.273
0.370
0.119
-0.263
-0.195
-0.117
0.484
-0.300
-0.307
0.596
0.454
0.094
-0.192
-0.232
-0.154
-0.054
0.124
0.062
0.025
0.057
0.036
0.034
0.134
0.140
0.059
0.079
0.013
-0.126
-0.365
-0.278
0.284
0.385
0.374
0.109
-0.072
-0.155
-0.151
0.003
1.233
-0.187
-1.539
-0.403
0.415
0.726
0.448
0.130
-0.130
-0.200
-0.115
-0.174
-0.017
0.068
0.095
0.174
0.165
0.132
-0.001
-0.005
-0.025
0.017
0.062
0.116
0.034
-0.025
-0.099
-0.004
-0.065
0.038
0.045
0.108
-0.009
0.012
0.037
0.091
0.025
0.011
0.055
0.064
0.090
0.009
-0.078
-0.045
-0.057
-0.058
0.016
0.130
0.127
0.283
0.706
-0.009
-0.619
-0.444
-0.238
-0.481
0.089
0.779
0.694
0.191
-0.140
-0.331
-0.269
-0.182
0.018
0.158
0.119
0.191
0.163
0.100
-0.007
0.668
0.891
-1.415
-1.317
0.304
0.714
0.577
0.020
-0.110
-0.128
-0.241
-0.139
-0.014
0.043
0.175
0.237
0.193
0.027
0.005
0.008
0.011
-0.010
0.073
0.028
0.111
-0.063
0.033
-0.007
-0.023
0.067
0.025
-0.035
-0.094
-0.004
0.131
0.171
0.146
-0.010
-0.047
-0.149
-0.058
0.123
0.173
0.169
0.154
-0.079
-0.038
-0.102
-0.023
0.253
0.354
-0.676
-0.374
0.504
0.500
0.136
-0.130
-0.122
-0.079
0.006
-0.010
0.044
0.265
0.173
0.006
-0.286
0.043
1.236
-0.369
-1.357
-0.017
0.563
0.347
-0.064
0.099
-0.228
-0.310
0.064
0.198
0.053
-0.015
0.093
0.120
0.025
0.012
0.093
0.042
0.161
0.047
0.110
0.086
0.072
0.042
0.003
-0.049
-0.010
0.049
0.083
-0.017
-0.047
0.001
0.040
0.076
0.064
0.044
-0.091
-0.104
0.013
-0.001
0.090
0.092
0.012
0.194
0.092
-0.181
-0.123
-0.012
0.166
0.055
0.058
0.023
0.031
0.178
0.974
0.181
-1.559
-0.693
0.337
0.616
0.438
0.131
-0.059
-0.098
-0.125
-0.133
-0.046
0.003
0.097
0.130
0.084
0.059
0.045
0.110
0.027
0.034
-0.005
0.106
0.133
0.011
0.040
-0.052
-0.027
-0.099
0.027
-0.009
0.122
0.108
0.113
0.183
-0.029
-0.257
-0.357
0.053
0.289
0.317
0.009
-0.112
0.056
0.008
-0.043
0.059
-0.181
-0.234
0.320
0.957
0.264
-0.781
-0.531
-0.049
0.125
0.117
0.173
0.226
0.122
-0.114
-0.263
-0.308
-0.061
0.178
0.315
0.238
0.105
-0.047
-0.039
-0.127
0.047
0.395
-0.522
-0.479
0.533
0.576
0.355
1.111
-0.478
-1.904
-0.730
0.452
0.822
0.535
0.287
-0.041
-0.125
-0.137
-0.095
-0.141
-0.043
-0.005
0.126
0.067
0.041
0.134
0.036
0.083
0.042
-0.094
0.130
0.043
-0.004
-0.027
-0.018
0.036
-0.050
0.016
0.020
0.080
0.057
-0.034
-0.106
0.166
0.176
0.175
0.107
-0.089
-0.068
-0.079
-0.005
0.004
-0.025
-0.022
0.122
0.096
0.110
0.045
0.008
-0.013
-0.034
-0.003
0.008
0.112
0.235
0.218
-0.122
-0.582
-0.035
1.225
-0.687
-1.109
0.314
0.812
0.505
0.020
-0.172
-0.192
-0.099
-0.135
-0.110
0.062
0.143
0.314
0.704
0.176
-0.686
-0.386
0.150
0.136
0.195
0.134
0.106
-0.126
-0.296
-0.024
0.096
0.085
0.052
0.076
0.002
0.158
0.095
0.092
-0.032
-0.038
0.029
0.067
0.023
-0.037
-0.085
0.138
-0.011
-0.016
0.012
-0.020
-0.033
-0.004
0.024
0.051
0.019
0.123
-0.003
0.011
0.092
0.020
-0.015
0.004
0.038
0.013
0.028
0.036
0.176
0.040
-0.100
-0.200
0.027
0.862
0.981
-1.043
-0.907
0.102
-0.580
-0.035
0.894
0.707
0.202
-0.638
-0.393
-0.019
0.182
0.162
0.037
0.008
0.197
0.194
0.169
0.100
0.059
0.061
-0.003
-0.097
-0.092
0.066
0.154
0.034
-0.064
-0.113
-0.110
-0.108
0.016
0.067
0.026
0.120
0.182
-0.044
-0.021
-0.033
0.030
0.028
0.128
0.055
0.222
0.514
-0.289
-0.755
-0.258
0.204
0.250
0.435
0.118
-0.041
-0.025
-0.041
-0.016
-0.036
-0.011
0.025
0.003
0.197
1.353
-0.583
-1.642
-0.248
0.549
0.731
0.345
0.048
-0.130
-0.187
-0.148
-0.126
0.030
-0.038
0.019
-0.045
0.209
0.368
0.177
0.027
-0.050
-0.145
-0.110
0.005
0.025
0.151
0.052
0.002
0.044
0.222
0.259
-0.064
-0.501
-0.442
0.025
0.381
0.370
0.166
-0.018
-0.131
-0.064
-0.127
0.000
0.021
0.160
-0.166
-0.184
0.312
0.265
0.140
0.014
-0.165
-0.077
-0.059
0.063
0.021
0.155
0.234
0.169
-0.175
-0.149
-0.178
0.075
0.172
0.132
0.086
-0.050
0.043
-0.037
0.027
0.039
0.528
0.936
-1.131
-1.419
0.075
0.812
0.762
0.343
0.059
-0.302
-0.333
-0.233
-0.017
0.128
0.134
0.190
0.086
0.099
0.074
0.039
0.012
-0.056
0.069
-0.030
0.036
0.091
0.365
0.556
-0.367
-0.697
-0.227
0.593
-0.055
-0.576
0.284
0.615
0.238
-0.115
-0.139
-0.207
0.001
0.263
0.151
-0.154
-0.494
-0.129
0.351
0.415
0.149
0.131
-0.033
-0.046
-0.147
-0.125
0.009
-0.011
-0.059
0.075
0.115
0.227
0.077
0.063
0.007
0.029
0.043
-0.056
-0.027
-0.031
-0.082
0.031
0.063
1.003
0.274
-1.404
-1.075
-0.061
0.996
0.884
0.367
-0.067
-0.385
-0.297
-0.098
-0.017
0.065
0.080
0.192
0.166
0.017
-0.010
0.082
0.090
0.056
-0.075
-0.038
-0.072
0.051
0.048
0.067
-0.028
-0.133
-0.005
0.050
0.105
0.086
0.119
0.072
0.070
-0.075
-0.032
0.049
0.048
0.048
-0.040
0.055
0.109
0.518
0.235
-0.537
-0.489
-0.003
0.081
0.240
0.210
0.280
0.051
-0.196
-0.252
-0.068
0.047
0.249
0.081
0.040
-0.011
-0.114
-0.015
0.120
0.187
0.083
-0.002
0.105
0.058
-0.043
0.066
0.061
0.935
0.436
-1.250
-0.731
0.026
0.031
0.349
0.399
0.338
0.083
-0.250
-0.219
-0.232
-0.097
0.019
0.180
0.200
0.122
0.056
0.154
0.241
0.118
-0.018
0.041
-0.003
0.003
-0.003
-0.420
0.011
0.290
0.232
0.083
-0.082
-0.175
0.075
0.031
0.068
0.050
0.109
0.025
-0.096
-0.018
0.005
0.012
0.165
0.059
-0.006
-0.082
0.048
-0.056
-0.021
0.092
0.102
0.029
-0.032
0.074
0.079
-0.016
0.208
0.619
-0.204
-0.694
0.150
-0.237
0.600
0.941
-0.991
-0.624
0.092
0.391
0.140
-0.009
0.113
0.060
0.001
-0.113
0.011
0.235
0.309
0.027
-0.444
-0.218
0.256
0.428
0.329
0.021
-0.103
-0.201
-0.277
-0.109
0.113
0.182
0.129
0.015
0.004
0.016
0.056
0.088
-0.003
0.110
0.032
0.048
0.043
-0.043
-0.058
0.004
0.006
0.048
0.050
0.072
-0.012
-0.057
-0.060
0.043
0.085
0.066
-0.009
0.028
0.089
0.157
0.110
-0.010
-0.070
-0.185
-0.101
0.045
0.140
0.165
0.165
-0.003
-0.170
0.042
0.092
0.142
-0.317
0.548
1.212
-0.970
-0.968
-0.093
0.386
0.526
0.180
-0.022
0.075
-0.040
-0.083
-0.069
0.010
-0.029
0.052
0.000
0.044
0.080
0.075
0.089
0.058
-0.039
-0.027
-0.075
-0.042
0.069
0.096
0.024
-0.001
0.029
0.139
-0.009
0.017
0.036
0.027
0.114
0.027
0.075
0.485
0.391
-0.328
-0.557
-0.395
-0.348
0.163
0.622
0.397
0.120
-0.172
-0.134
-0.181
-0.134
0.056
0.070
0.115
0.531
-0.323
-0.621
0.383
0.738
1.262
0.469
-1.765
-1.052
0.216
0.695
0.397
0.172
0.048
-0.084
-0.066
-0.073
0.008
0.006
0.025
-0.118
-0.124
0.076
0.141
0.110
0.087
0.006
0.004
-0.025
0.009
0.008
0.170
-0.178
-0.463
0.105
0.440
0.467
0.066
-0.105
-0.122
0.025
-0.015
0.051
0.172
0.092
0.144
0.133
-0.108
-0.206
-0.241
0.000
0.172
0.086
0.091
0.070
-0.013
-0.072
-0.075
0.055
0.020
-0.003
0.060
0.117
0.213
0.387
0.364
0.170
-0.655
-0.930
0.038
1.246
0.990
-1.116
-0.973
0.055
0.339
0.341
0.121
-0.067
-0.060
0.012
-0.043
0.038
0.072
0.103
0.017
0.120
0.188
-0.005
0.046
0.009
-0.056
-0.003
-0.002
0.029
0.091
-0.061
0.011
-0.002
-0.019
-0.044
0.009
0.192
-0.013
-0.125
-0.048
0.051
0.106
0.068
0.098
0.010
0.050
-0.098
-0.115
0.069
0.262
0.161
0.007
-0.100
-0.093
0.059
0.046
0.099
0.061
0.020
0.095
0.051
-0.013
0.019
0.001
0.015
-0.053
0.034
-0.027
0.050
0.174
0.046
-0.613
-0.453
1.120
1.881
-0.899
-1.521
-0.243
0.241
0.521
0.275
0.262
-0.051
-0.061
-0.081
-0.067
-0.018
-0.033
0.004
-0.039
0.042
0.054
0.064
0.067
0.021
0.057
0.003
0.080
0.047
0.094
0.551
0.169
-0.806
-0.454
0.121
0.150
0.345
0.250
0.290
0.115
-0.184
-0.642
-0.575
0.124
0.597
0.505
0.197
-0.065
-0.051
-0.059
-0.078
-0.001
0.120
0.137
0.071
0.147
0.150
-0.016
-0.178
-0.002
0.168
0.028
-0.173
-0.167
0.006
0.121
0.118
0.167
0.289
0.636
0.079
-1.657
-0.751
0.403
0.746
0.567
0.266
-0.172
-0.229
-0.089
-0.016
-0.014
0.072
-0.040
0.102
0.171
0.030
0.023
0.037
0.134
-0.026
0.004
0.076
0.195
0.081
-0.027
-0.039
-0.031
-0.033
-0.153
0.065
0.284
0.170
0.078
-0.034
-0.017
-0.086
-0.034
0.155
0.092
-0.027
-0.035
0.002
0.002
-0.067
0.114
0.053
-0.065
0.020
0.082
0.040
0.000
0.101
0.026
0.051
0.058
0.007
-0.002
0.206
0.863
0.097
-0.938
-1.015
-0.135
0.338
0.658
0.516
0.052
-0.043
0.555
0.228
-1.768
-0.976
0.536
0.926
0.570
0.186
0.028
-0.004
-0.090
-0.083
-0.107
0.004
0.039
0.106
0.057
0.108
0.072
-0.016
-0.011
0.011
0.034
0.045
-0.024
0.021
0.128
-0.055
-0.089
0.062
0.047
-0.005
-0.062
0.037
0.311
-0.251
-0.152
0.267
0.327
0.194
-0.033
-0.176
-0.127
-0.008
0.045
0.049
0.127
0.146
0.033
0.003
0.002
0.008
-0.016
-0.025
0.074
0.338
-0.130
-0.774
0.157
0.564
0.310
0.144
-0.067
-0.230
-0.244
-0.195
-0.031
0.245
0.365
0.208
0.020
-0.020
-0.113
0.430
0.895
-1.133
-1.209
0.171
0.642
0.655
0.253
0.050
-0.087
-0.240
-0.169
-0.136
-0.012
0.074
0.145
0.255
0.333
0.228
-0.033
-0.154
0.029
-0.549
-0.339
0.467
0.483
0.183
-0.044
-0.050
-0.110
-0.124
-0.014
-0.123
0.032
0.057
0.085
0.172
0.057
0.101
0.056
-0.186
-0.007
0.043
0.270
0.121
-0.048
-0.095
-0.035
-0.058
0.027
0.041
0.104
0.156
-0.229
-0.237
0.125
0.335
0.308
0.189
-0.074
-0.072
-0.087
-0.018
0.018
0.369
1.125
-0.781
-1.397
-0.060
0.580
0.683
0.289
0.001
-0.122
-0.052
-0.219
-0.213
-0.161
0.039
0.064
0.112
0.284
0.132
0.134
0.042
-0.034
0.056
0.054
0.025
0.031
-0.010
-0.031
0.026
0.154
0.244
0.147
-0.207
-0.470
-0.239
0.258
0.412
0.252
0.052
-0.050
-0.178
-0.120
-0.010
0.064
0.122
-0.062
-0.046
0.157
0.171
0.113
0.094
0.135
0.592
-0.092
-0.773
-0.387
0.055
0.286
0.397
0.228
0.021
-0.288
-0.155
0.021
0.129
0.167
0.061
-0.014
-0.017
-0.031
0.057
0.356
1.218
-0.628
-1.652
-0.121
0.500
0.711
0.310
0.072
-0.145
-0.240
-0.132
-0.184
0.120
-0.040
-0.152
0.237
0.357
0.267
0.099
-0.024
-0.059
0.044
0.034
0.067
0.042
0.036
-0.019
0.017
-0.025
-0.094
0.028
0.017
0.070
-0.024
0.020
0.028
0.337
-0.401
-0.726
0.363
0.871
0.468
-0.045
-0.203
-0.251
-0.222
-0.059
0.138
0.163
0.201
0.145
0.071
0.020
-0.037
-0.136
-0.089
0.177
0.327
0.123
-0.206
-0.559
-0.224
1.230
0.280
-1.277
0.168
0.313
-0.204
0.109
0.147
0.057
-0.010
-0.016
-0.078
-0.059
0.047
0.080
0.057
0.136
0.114
0.200
0.153
0.088
0.030
-0.034
-0.039
-0.020
0.001
0.033
0.073
0.057
0.040
-0.053
0.057
0.018
0.029
-0.028
-0.065
0.012
0.064
-0.015
0.023
0.053
0.074
0.055
0.061
0.073
-0.005
-0.017
-0.055
-0.012
0.042
0.000
0.034
0.135
-0.295
-0.047
0.317
0.367
0.145
-0.083
-0.155
0.013
-0.015
0.009
0.035
0.034
-0.044
0.094
0.093
0.066
0.035
0.102
1.073
-0.504
-1.707
-0.329
0.667
0.900
0.417
0.027
-0.237
-0.292
-0.291
-0.177
0.083
0.254
0.188
0.150
0.080
0.132
0.235
0.102
-0.225
-0.543
-0.236
0.240
0.369
0.244
0.039
-0.034
-0.218
-0.183
0.582
0.398
-0.472
-0.479
-0.049
0.141
0.257
0.247
0.229
-0.045
0.054
-0.091
-0.050
-0.119
-0.066
-0.011
0.010
0.029
0.085
-0.015
0.139
0.032
0.067
0.030
-0.041
-0.008
0.026
0.045
0.062
-0.004
0.025
-0.070
0.002
0.028
0.085
0.926
0.334
-1.454
-0.893
0.224
0.723
0.876
-0.108
-0.718
0.160
0.121
-0.115
0.133
0.245
0.136
-0.009
-0.148
-0.090
-0.100
0.226
0.303
0.258
0.100
-0.079
0.030
-0.053
-0.147
-0.114
0.024
0.072
0.047
-0.046
0.020
-0.007
-0.003
-0.021
0.066
0.044
0.052
0.057
0.127
0.045
-0.044
-0.078
-0.034
0.106
0.124
0.187
0.316
0.033
-0.434
-0.542
-0.000
0.250
0.385
0.183
0.124
-0.144
-0.175
-0.041
0.102
0.105
0.047
0.060
0.032
0.043
0.051
0.132
0.480
0.302
0.247
-0.139
-1.421
-0.643
0.471
0.817
0.549
0.091
-0.161
-0.262
-0.254
-0.185
0.041
0.074
0.143
0.162
0.020
0.033
0.162
0.259
0.254
0.164
0.039
-0.065
0.020
-0.129
-0.244
-0.142
0.044
0.151
0.213
0.177
-0.354
-0.025
0.288
0.213
-0.059
-0.108
-0.128
0.018
0.109
0.120
0.202
0.050
0.058
-0.015
-0.036
0.054
0.210
0.094
-0.038
-0.018
-0.034
0.038
-0.026
0.027
0.026
-0.006
0.013
0.035
0.072
0.028
0.095
0.034
0.251
1.088
-0.312
-1.603
-0.469
0.352
0.588
0.434
0.234
0.025
-0.165
-0.085
-0.147
-0.067
0.019
0.083
0.085
0.130
0.268
0.400
0.017
-0.371
-0.470
-0.019
0.333
0.370
0.034
-0.095
0.035
0.156
0.170
0.413
-0.375
-0.780
-0.221
0.261
0.314
0.313
0.282
0.150
-0.453
-0.221
0.112
0.206
0.047
-0.090
-0.009
-0.039
0.029
0.089
0.068
0.068
0.068
-0.026
-0.103
0.009
0.320
0.157
-0.008
-0.119
-0.107
-0.036
0.101
0.400
-0.539
-0.542
0.471
0.600
0.244
-0.028
0.074
1.089
-0.819
-1.678
-0.120
0.493
0.688
0.365
0.107
-0.053
-0.111
-0.233
-0.209
-0.125
-0.071
0.179
0.201
0.213
0.265
0.071
-0.010
0.036
-0.042
0.172
0.231
0.075
-0.104
-0.517
-0.200
0.146
0.220
0.169
0.006
0.063
-0.021
-0.032
0.017
-0.098
-0.032
0.076
0.123
0.094
0.003
-0.021
0.024
0.049
0.198
0.076
0.088
0.007
-0.140
-0.010
0.037
0.052
-0.047
-0.002
-0.035
0.090
0.011
0.459
0.286
-0.468
-0.618
-0.367
0.406
0.599
0.449
0.085
-0.211
-0.207
0.726
0.173
-1.576
-0.729
0.500
0.801
0.490
0.149
-0.103
-0.139
-0.155
-0.113
-0.124
0.011
0.129
0.112
0.140
0.052
0.136
-0.006
0.040
0.070
0.039
0.056
0.097
-0.014
0.040
-0.053
-0.090
0.057
-0.008
0.008
-0.077
0.042
0.036
-0.043
0.059
0.100
0.163
0.097
-0.070
0.007
-0.066
0.013
0.067
0.179
0.265
0.120
-0.454
-0.589
-0.156
0.393
0.351
0.017
0.127
0.116
0.043
-0.133
-0.136
-0.016
0.058
0.109
0.136
0.093
0.077
0.007
0.014
0.878
0.648
-1.334
-1.060
0.103
0.557
0.497
0.183
0.021
-0.184
-0.180
-0.155
-0.022
0.045
0.243
0.009
-0.105
0.768
0.159
-0.450
-0.173
0.024
0.074
0.085
0.173
0.089
0.048
0.065
0.292
-0.730
-0.734
0.341
0.504
0.362
0.087
-0.027
-0.017
-0.034
-0.056
-0.037
0.049
0.081
0.075
0.113
-0.027
-0.024
0.007
0.032
0.049
0.081
-0.026
-0.055
0.004
0.043
0.052
0.067
0.035
0.099
0.013
0.036
-0.024
0.042
0.038
-0.018
-0.001
0.012
0.067
0.150
-0.036
0.002
0.105
0.021
-0.030
0.976
-0.123
-1.493
-0.283
0.694
0.784
0.066
-0.510
-0.620
0.014
0.310
0.342
0.298
0.024
-0.074
-0.120
-0.004
0.115
0.120
0.077
0.112
0.198
0.116
0.015
-0.016
-0.129
-0.057
0.016
0.015
-0.021
0.127
-0.004
0.031
-0.017
0.028
0.038
0.078
0.624
-0.152
-0.741
-0.171
0.227
0.188
0.091
0.147
0.302
-0.035
-0.245
0.029
0.177
0.183
-0.089
-0.128
0.018
0.109
0.294
0.108
0.019
0.143
-0.042
-0.051
-0.075
-0.103
0.026
0.034
0.019
0.006
-0.010
-0.043
0.027
0.047
0.038
-0.046
0.089
1.260
-0.143
-1.624
-0.477
0.441
0.752
0.403
0.041
-0.052
-0.131
-0.075
-0.156
-0.007
0.026
0.018
0.148
0.210
0.187
-0.090
0.003
0.055
0.003
-0.065
0.044
0.078
-0.020
-0.086
-0.015
0.034
0.005
-0.003
0.027
0.024
0.050
0.100
0.121
-0.030
-0.145
-0.144
0.045
0.099
0.171
0.223
0.035
0.108
0.157
-0.217
-0.547
-0.394
0.174
0.426
0.417
0.188
0.006
-0.138
0.050
-0.353
-0.344
0.218
0.506
0.651
0.399
-0.326
-1.416
0.370
0.958
-0.727
-0.228
0.372
0.423
0.167
-0.233
-0.250
-0.099
-0.088
-0.049
-0.014
0.118
0.109
0.136
0.125
0.102
0.034
0.064
0.065
0.005
0.004
-0.017
-0.121
0.108
0.096
0.105
0.093
0.090
0.171
0.019
-0.037
0.079
-0.075
-0.059
-0.048
-0.027
0.084
0.021
0.118
0.147
0.034
0.033
-0.032
-0.106
-0.071
0.028
0.005
-0.003
0.089
0.095
0.010
0.144
-0.036
0.007
0.063
0.052
-0.025
0.007
0.136
0.144
-0.028
-0.082
-0.026
-0.044
0.016
0.060
0.285
1.354
-0.102
-1.592
-0.819
-0.159
0.547
0.736
0.525
0.139
-0.143
-0.327
-0.275
-0.073
0.191
-0.269
-0.071
1.091
0.384
-0.394
-0.389
0.054
0.155
0.221
0.210
0.148
-0.060
-0.139
-0.099
-0.102
0.028
0.054
-0.048
-0.002
0.013
0.167
-0.007
0.034
-0.021
0.026
0.018
0.078
0.134
0.066
0.024
-0.048
-0.018
0.116
0.048
-0.061
-0.110
-0.025
0.110
0.111
0.100
0.019
-0.080
-0.012
-0.000
0.033
0.048
0.021
0.119
1.270
-0.218
-1.705
-0.533
0.441
0.776
0.464
0.132
-0.095
-0.157
-0.198
-0.105
-0.044
0.040
0.176
0.045
-0.025
0.009
0.065
0.218
0.141
0.057
0.125
0.156
-0.043
-0.359
-0.433
-0.026
0.375
0.369
0.218
-0.093
-0.151
-0.049
-0.006
0.031
0.118
0.112
0.038
0.007
0.011
-0.095
0.062
-0.045
0.008
0.118
0.092
0.110
-0.462
-0.231
0.233
0.291
0.352
-0.019
-0.151
-0.066
0.023
0.036
0.045
0.156
0.702
0.049
-0.340
-1.008
-0.375
0.601
0.639
0.385
-0.055
-0.228
-0.211
-0.197
-0.050
-0.012
0.115
0.068
0.044
0.245
1.342
-0.027
-1.611
-0.638
0.359
0.644
0.435
0.153
-0.173
-0.239
-0.037
0.088
0.216
0.101
0.057
-0.013
0.025
0.133
0.103
0.150
0.035
-0.183
-0.068
0.019
0.182
0.077
0.082
-0.102
-0.015
-0.089
-0.201
-0.068
0.072
0.214
0.202
0.006
0.034
0.016
-0.002
0.090
-0.016
0.089
-0.014
-0.015
0.041
0.003
0.042
0.168
0.169
0.190
-0.099
-0.571
-0.283
0.188
0.026
0.280
0.374
0.200
0.061
-0.003
-0.165
-0.215
-0.154
0.028
0.180
0.193
0.226
0.124
0.079
0.019
0.138
1.116
-0.585
-1.707
-0.347
0.574
0.694
0.210
0.089
0.170
0.520
0.165
-0.797
-0.678
-0.011
0.121
0.321
0.349
0.259
0.049
-0.054
-0.062
-0.079
-0.060
-0.078
0.002
0.060
0.106
-0.027
0.050
0.224
0.088
-0.017
-0.070
-0.067
0.031
0.103
0.101
-0.068
-0.078
0.044
0.063
0.085
-0.033
0.017
-0.020
-0.005
-0.005
0.031
0.098
0.059
0.077
0.043
-0.022
0.034
0.043
-0.078
0.014
0.004
-0.014
0.097
0.022
0.072
0.049
0.379
-0.247
0.207
0.828
-0.695
-0.733
-0.208
0.125
0.422
0.395
0.341
-0.253
-0.681
-0.054
0.324
0.288
0.046
-0.149
-0.006
0.023
0.074
0.080
0.054
0.098
0.162
0.097
-0.016
0.074
-0.045
-0.005
-0.103
0.032
0.045
0.011
0.147
0.446
0.331
-0.595
-0.521
-0.002
0.109
0.362
0.440
0.109
-0.220
-0.265
-0.182
0.011
0.029
0.062
0.050
0.084
0.178
0.165
0.110
-0.075
0.009
0.015
0.064
0.107
0.250
0.064
-0.296
0.007
0.133
0.192
0.612
0.894
-1.203
-1.420
-0.107
0.623
0.737
0.292
0.077
-0.087
-0.187
-0.100
-0.139
-0.005
0.074
0.152
0.185
0.144
0.013
0.062
0.136
0.062
0.027
0.065
-0.016
-0.006
-0.041
0.018
0.035
0.145
0.008
-0.027
0.054
0.149
0.260
0.155
-0.262
-0.557
-0.223
0.228
0.396
0.335
0.056
-0.091
-0.131
-0.100
-0.017
0.064
0.049
-0.349
0.024
0.361
0.407
0.066
-0.097
-0.058
-0.017
0.041
-0.122
0.034
0.199
0.244
0.099
-0.105
-0.155
0.013
-0.060
0.249
0.536
-0.162
-0.606
-0.187
0.225
0.229
0.054
0.101
1.086
0.054
-1.618
-0.806
0.406
0.642
0.505
0.155
-0.087
-0.071
-0.101
-0.087
-0.041
0.041
0.035
-0.021
0.091
0.160
0.074
0.090
0.033
0.112
0.371
-0.634
-0.535
0.506
0.457
0.230
-0.034
-0.184
-0.265
-0.140
0.029
0.202
0.125
0.107
0.053
0.016
-0.056
-0.020
-0.078
0.021
0.037
0.048
0.046
-0.172
-0.040
0.126
0.180
0.173
0.029
-0.017
-0.089
-0.081
0.110
0.320
0.268
-0.164
-0.522
-0.238
0.221
0.388
0.359
0.094
-0.129
-0.181
-0.069
0.120
-0.123
-0.491
0.020
0.395
0.413
0.230
1.071
-0.333
-1.719
-0.536
0.380
0.752
0.590
0.134
-0.044
-0.279
-0.109
-0.119
-0.062
0.046
0.071
0.185
0.120
0.103
0.138
0.316
0.589
-0.325
-0.772
-0.140
0.179
0.160
0.256
0.114
0.008
-0.071
-0.080
-0.150
0.031
0.175
0.145
-0.035
-0.073
-0.021
0.294
0.292
0.083
-0.119
-0.163
-0.020
0.139
0.154
0.152
-0.012
-0.083
-0.072
0.020
-0.062
0.054
0.026
0.036
-0.023
0.063
0.029
0.241
0.328
0.042
-0.375
-0.532
0.883
0.585
-1.263
-0.490
0.329
0.575
0.355
0.102
-0.060
-0.224
-0.089
-0.027
-0.024
0.064
0.172
0.184
0.173
0.115
0.100
0.067
0.050
-0.026
-0.053
-0.027
0.005
-0.021
0.088
0.030
-0.004
-0.040
-0.027
0.063
0.069
0.134
-0.398
-0.098
0.199
0.346
-0.011
-0.182
0.020
0.152
0.121
0.093
-0.052
-0.055
-0.017
0.023
0.061
0.116
-0.002
0.011
0.088
-0.006
-0.057
-0.025
-0.002
-0.036
-0.018
0.027
-0.024
0.096
0.066
0.038
0.015
0.013
0.052
-0.005
0.409
-0.185
-0.770
0.103
0.887
1.962
0.575
-2.502
-1.887
0.087
1.001
0.872
0.424
0.096
-0.063
-0.240
-0.222
-0.280
-0.123
0.042
0.111
0.220
0.146
0.095
0.120
0.123
0.004
-0.099
0.009
0.359
0.389
0.056
-0.546
-0.694
-0.103
0.366
0.494
0.147
0.022
-0.093
-0.123
-0.004
-0.042
0.089
0.039
0.016
0.078
0.092
0.108
0.022
0.011
0.068
0.024
0.051
-0.016
0.035
0.247
-0.338
-0.101
0.158
0.279
0.120
-0.005
-0.104
-0.053
-0.093
0.121
0.107
0.671
0.628
-1.378
-1.101
0.335
0.854
0.637
0.193
-0.221
-0.198
-0.172
-0.168
-0.011
0.113
0.161
0.222
0.147
0.031
0.072
0.041
-0.011
0.008
0.084
0.045
0.055
-0.033
-0.009
-0.013
0.003
0.050
0.023
0.051
0.073
0.102
0.491
0.083
-0.599
-0.408
0.141
0.173
0.361
0.174
0.083
0.033
-0.129
-0.138
0.021
-0.054
0.074
0.074
0.060
0.013
0.107
0.118
0.067
0.084
0.052
-0.072
-0.063
0.009
0.009
0.253
0.240
-0.043
-0.546
-0.270
0.092
0.532
0.377
0.114
0.003
0.170
0.797
-1.168
-1.302
0.261
0.711
0.565
0.219
0.003
-0.064
-0.093
-0.092
-0.550
-0.071
0.472
0.446
0.128
-0.085
-0.142
-0.103
0.047
0.082
0.060
0.127
0.145
-0.017
-0.052
0.023
0.088
0.031
0.075
-0.014
0.059
0.034
0.013
0.109
-0.062
-0.029
0.138
0.456
-0.588
-0.583
0.259
0.455
0.332
0.080
-0.119
-0.179
-0.156
-0.051
0.033
0.146
0.203
0.146
-0.045
-0.195
-0.058
0.240
0.653
-0.180
-0.686
-0.144
0.159
0.610
1.057
-1.124
-1.194
0.089
0.696
0.625
0.126
-0.059
-0.202
-0.100
-0.048
-0.004
0.168
0.161
0.117
0.129
-0.032
-0.056
0.015
0.178
0.216
0.083
0.252
0.037
-0.317
-0.619
-0.376
0.155
0.479
0.641
0.050
-0.067
-0.068
-0.044
-0.434
-0.083
0.437
0.330
0.203
-0.029
-0.109
-0.038
-0.002
0.041
0.002
0.088
0.059
-0.108
-0.027
0.177
0.136
-0.018
-0.021
-0.084
-0.029
-0.017
0.041
0.174
0.051
0.029
0.043
-0.008
0.155
-0.048
0.001
0.093
-0.000
-0.028
-0.024
0.013
0.094
0.027
0.098
0.064
0.006
0.116
1.032
0.155
-1.435
-0.571
0.225
0.579
0.501
0.065
-0.099
-0.114
-0.114
-0.098
-0.058
0.042
0.054
0.074
0.194
0.076
0.073
0.065
0.321
0.321
-0.535
-0.602
0.035
0.208
0.243
0.253
0.108
0.062
-0.060
-0.117
-0.094
-0.062
0.051
0.084
0.056
0.141
0.327
0.264
0.153
-1.049
-0.811
0.613
0.904
0.388
0.050
-0.158
-0.228
-0.120
-0.196
-0.337
0.175
0.481
0.404
0.145
-0.142
-0.057
-0.023
-0.005
0.013
-0.025
-0.038
0.042
0.121
0.018
-0.017
-0.095
-0.141
0.231
1.194
-0.609
-1.535
-0.096
0.489
0.676
0.351
-0.109
-0.111
-0.221
0.004
0.184
0.311
0.165
-0.063
-0.074
0.003
0.064
0.129
0.015
0.106
0.146
0.031
0.048
-0.025
-0.143
-0.038
-0.038
-0.047
0.019
0.078
0.101
-0.027
-0.014
0.056
0.131
0.133
-0.064
-0.078
0.009
0.002
0.094
0.136
0.036
-0.006
-0.078
0.034
-0.044
0.037
0.044
0.042
0.017
0.418
0.315
-0.502
-0.504
-0.036
0.044
0.281
0.280
0.170
-0.008
-0.075
-0.111
-0.038
-0.011
0.016
0.109
0.270
0.529
1.031
-1.045
-1.835
-0.085
0.890
0.933
0.373
-0.055
-0.230
-0.279
-0.270
-0.138
0.021
0.250
-0.058
-0.150
0.205
0.481
0.373
0.159
-0.231
-0.146
-0.251
0.002
0.248
0.254
0.073
-0.051
-0.109
-0.030
0.016
-0.026
0.009
-0.010
0.023
0.053
0.047
0.060
-0.002
-0.049
-0.059
0.009
0.035
-0.007
0.065
0.009
0.146
0.057
0.039
0.075
-0.057
-0.037
0.073
0.071
0.067
0.059
0.042
-0.013
-0.096
-0.020
0.120
0.181
0.099
0.065
0.050
-0.120
-0.074
0.265
-0.606
0.652
0.709
-0.978
-0.375
0.121
0.164
0.111
0.180
0.069
0.011
0.010
0.069
-0.114
0.224
0.757
-0.088
-1.007
-0.651
0.078
0.540
0.694
0.393
-0.050
-0.264
-0.276
-0.206
-0.125
-0.004
0.119
0.050
0.158
0.101
0.197
0.204
0.004
-0.002
0.168
0.061
-0.542
-0.088
0.331
0.366
0.164
-0.185
-0.233
-0.119
0.033
0.051
0.090
0.189
0.173
0.043
-0.066
-0.051
-0.018
0.108
0.096
0.018
-0.110
0.062
-0.049
0.097
0.107
0.071
0.048
0.008
-0.065
0.045
-0.028
0.019
0.036
0.082
0.101
0.056
0.554
0.928
-1.260
-1.422
0.182
0.790
0.868
0.239
-0.096
-0.268
-0.227
-0.081
-0.048
0.171
0.026
-0.028
0.090
0.083
0.166
0.158
0.084
0.035
-0.126
-0.095
0.045
0.035
0.043
-0.056
0.028
0.066
0.093
0.049
-0.003
-0.032
0.014
0.075
0.037
-0.059
-0.001
0.120
0.092
0.198
0.217
-0.035
-0.354
-0.268
0.298
0.798
-0.184
-0.680
-0.249
0.123
0.158
0.146
0.193
-0.015
0.004
-0.039
0.101
-0.249
-0.260
0.304
0.362
0.141
0.145
1.184
-0.469
-1.748
-0.464
0.326
0.779
0.628
0.285
0.001
-0.281
-0.314
-0.199
-0.102
-0.065
0.148
0.080
0.266
0.150
0.132
0.334
-0.089
-0.790
0.069
0.590
0.376
0.031
-0.183
-0.145
-0.114
-0.002
0.070
0.046
0.104
0.039
0.103
0.101
0.070
0.016
-0.093
0.056
0.015
-0.125
0.007
-0.051
0.118
0.090
0.111
0.146
0.009
0.128
-0.010
-0.001
-0.065
0.001
-0.010
0.084
0.111
0.032
-0.126
0.179
0.080
0.047
0.004
0.095
0.110
-0.006
-0.071
0.112
0.205
0.265
-0.029
0.097
0.421
-1.242
-0.928
0.585
1.365
0.494
-0.712
-0.485
-0.069
0.069
-0.029
0.129
0.185
0.122
0.070
0.113
0.185
-0.310
0.019
0.398
0.266
0.046
-0.133
0.028
0.123
-0.011
-0.079
-0.068
-0.030
0.085
0.040
-0.028
0.031
0.019
0.014
-0.015
-0.002
0.079
-0.046
-0.012
-0.006
0.016
0.097
0.072
0.081
0.022
-0.009
-0.021
0.055
0.062
0.017
-0.016
-0.072
0.025
0.043
0.039
0.073
0.091
0.068
-0.044
-0.029
0.003
0.054
-0.030
0.050
0.115
-0.017
0.026
0.030
0.026
0.157
-0.056
-0.131
0.006
-0.034
0.173
0.980
0.257
-1.516
-0.836
0.261
0.676
0.422
0.262
-0.024
-0.009
-0.136
-0.273
-0.322
-0.063
0.048
0.221
0.238
0.422
0.324
-0.204
-0.463
-0.175
0.141
0.280
0.204
0.077
-0.056
-0.044
-0.066
-0.046
0.027
0.080
0.065
0.025
0.005
0.093
0.035
0.032
-0.034
0.058
-0.005
-0.048
-0.035
0.059
0.236
-0.352
-0.374
0.559
0.954
-0.073
-0.767
-0.423
0.021
0.135
0.258
0.300
0.106
0.024
-0.006
0.076
-0.017
-0.078
0.021
-0.011
0.035
0.021
0.005
0.109
0.395
-0.480
-0.636
1.392
0.928
-1.233
-0.846
-0.007
0.496
0.428
0.155
0.030
-0.034
-0.135
-0.115
-0.002
0.073
0.071
-0.026
0.161
0.137
0.054
0.015
-0.022
0.078
-0.015
-0.049
0.055
0.069
0.029
0.088
-0.069
0.060
0.050
0.024
0.111
0.003
0.080
-0.013
-0.053
0.196
0.265
-0.140
-0.520
-0.377
0.072
0.387
0.404
0.210
-0.052
-0.146
-0.156
-0.048
0.009
0.020
0.102
0.182
0.095
-0.025
0.020
0.145
0.088
0.045
-0.123
0.190
0.938
0.772
-1.623
-1.696
0.072
0.677
0.732
-0.057
0.120
0.186
0.235
-0.153
-0.338
-0.200
-0.056
0.049
0.136
0.201
0.273
0.177
0.079
0.040
0.049
0.028
0.035
-0.006
-0.012
-0.006
-0.004
-0.003
0.051
-0.018
0.015
0.063
-0.023
0.046
-0.029
-0.094
-0.107
0.123
0.273
0.154
0.195
-0.178
-0.286
-0.084
0.060
0.119
-0.058
0.024
-0.068
0.181
0.261
0.156
0.115
-0.005
-0.144
-0.067
-0.073
0.073
0.141
0.038
0.116
0.063
-0.004
0.007
-0.063
-0.063
0.023
0.392
1.368
-0.544
-2.138
-0.659
0.518
1.094
0.596
0.181
-0.086
-0.310
-0.250
-0.231
-0.037
0.095
0.110
0.162
0.156
0.177
0.112
0.087
0.092
-0.005
-0.002
0.003
0.031
-0.013
-0.002
0.150
0.258
-0.279
-0.458
-0.114
0.187
0.296
0.030
0.079
0.009
-0.079
-0.089
0.058
0.123
-0.384
-0.015
0.294
0.352
0.157
-0.093
-0.173
-0.080
-0.034
-0.038
0.094
0.072
0.010
0.035
0.074
0.031
0.019
-0.014
-0.036
0.061
-0.013
0.070
0.027
0.063
0.109
0.001
0.029
0.106
-0.072
-0.107
0.119
0.126
0.066
0.141
0.127
0.048
-0.108
0.630
0.182
-1.430
-0.697
0.455
0.728
0.577
0.123
-0.073
-0.166
-0.114
-0.165
-0.032
0.110
-0.012
-0.036
0.168
0.317
0.147
-0.012
0.031
-0.018
0.012
0.066
0.083
0.285
0.157
0.089
-0.227
-0.589
-0.190
0.211
0.364
0.224
0.113
-0.065
-0.116
-0.113
-0.001
0.011
0.113
0.082
0.073
0.078
0.040
0.039
-0.110
0.031
0.714
0.411
-0.516
-0.555
-0.057
0.105
0.209
0.233
0.149
-0.064
-0.017
-0.132
0.076
0.673
-0.766
-0.772
0.365
0.641
-0.264
-0.013
0.436
0.194
0.007
-0.090
-0.089
-0.081
-0.073
-0.048
0.141
0.117
0.074
0.107
0.123
0.126
0.061
-0.074
-0.098
-0.006
-0.012
0.031
-0.080
-0.034
0.091
0.006
0.064
0.087
0.087
0.039
-0.026
-0.017
0.014
0.106
-0.042
-0.085
-0.035
-0.048
0.126
0.149
0.061
0.091
-0.034
-0.034
-0.006
-0.043
-0.010
0.026
0.086
0.121
0.050
-0.003
0.011
-0.023
0.039
-0.075
0.008
0.021
0.020
0.100
0.124
0.306
0.116
-0.295
-0.643
-0.195
0.680
1.648
-0.625
-1.467
-0.173
0.540
0.537
0.122
-0.065
-0.157
-0.051
-0.048
0.001
0.211
0.049
0.050
0.005
0.073
0.155
0.063
0.018
0.288
0.470
-0.333
-0.615
-0.145
0.136
0.232
0.243
0.184
-0.072
0.051
-0.047
-0.117
-0.325
-0.086
0.131
0.240
-0.251
-0.080
0.356
0.381
0.165
-0.002
-0.164
-0.036
-0.031
0.035
-0.012
0.065
0.036
0.060
0.055
-0.093
-0.185
0.040
0.269
0.279
0.017
-0.135
-0.041
-0.047
-0.025
0.109
0.077
0.014
-0.003
0.055
0.100
0.112
0.022
0.018
0.407
0.854
-1.275
-1.221
0.081
0.625
0.649
0.245
0.021
-0.079
-0.163
-0.097
-0.093
0.148
0.349
0.236
-0.138
-0.589
-0.368
0.198
0.745
0.341
-0.732
-0.020
0.456
0.203
-0.029
-0.115
-0.085
-0.110
-0.012
0.092
0.147
0.045
-0.071
0.101
0.266
0.193
-0.128
-0.127
-0.125
0.052
-0.025
0.061
0.052
-0.009
0.008
0.013
0.587
-0.039
-0.698
-0.317
0.188
0.261
0.143
0.047
0.058
-0.070
0.020
0.092
-0.052
-0.010
0.111
0.005
0.036
-0.309
-0.081
0.425
1.042
1.283
-1.239
-1.605
-0.139
0.552
0.707
0.251
0.061
-0.062
-0.098
-0.112
-0.135
-0.012
-0.039
0.053
0.119
0.104
0.101
0.090
0.057
0.041
-0.007
0.065
0.011
-0.011
-0.021
0.025
0.020
0.012
-0.036
0.078
-0.005
0.048
0.031
0.028
0.029
0.144
0.079
0.039
-0.019
0.072
0.009
0.064
0.184
0.213
-0.023
-0.368
-0.469
-0.073
0.363
0.474
0.123
-0.141
-0.182
-0.031
0.132
0.072
-0.006
-0.005
0.204
0.211
-0.029
-0.074
0.794
0.679
-1.330
-0.912
0.174
0.596
0.508
0.119
-0.128
-0.065
0.362
0.023
-0.806
-0.631
0.229
0.343
0.323
0.477
0.480
0.142
-0.145
-0.075
-0.041
-0.864
-0.195
0.725
0.588
-0.171
-0.150
0.166
0.178
0.011
-0.097
-0.063
0.026
0.007
0.003
-0.019
0.068
0.088
0.011
0.046
-0.039
0.057
0.025
0.051
0.088
0.024
0.057
0.088
0.078
-0.205
-0.300
0.025
0.248
0.257
0.081
0.097
0.169
0.281
0.116
-0.313
-0.581
-0.173
0.313
0.340
0.407
0.102
-0.021
-0.087
0.251
1.004
-0.903
-1.460
-0.014
0.597
0.629
0.375
0.010
0.076
-0.091
-0.159
-0.036
-0.077
-0.051
-0.005
0.068
0.038
0.112
0.152
0.078
0.091
0.046
-0.094
-0.125
0.067
0.167
0.151
-0.038
-0.121
-0.021
-0.002
0.023
0.506
0.236
-0.557
-0.446
0.145
0.221
0.266
0.020
-0.007
-0.007
0.055
-0.014
-0.038
-0.086
-0.142
-0.029
0.206
0.235
0.250
0.191
-0.264
-0.294
0.162
0.259
0.043
0.019
0.142
-0.025
-0.007
-0.119
0.016
-0.014
0.012
0.134
0.088
0.028
-0.102
-0.084
0.124
0.011
-0.056
0.058
0.034
0.351
1.091
-0.856
-1.450
-0.017
0.669
0.671
0.278
-0.022
-0.146
-0.039
-0.117
-0.139
-0.066
0.037
0.107
0.160
0.206
0.169
0.069
0.075
-0.028
-0.003
-0.008
0.106
0.003
0.016
-0.064
-0.119
0.071
0.040
0.100
0.062
0.115
0.313
0.097
-0.357
-0.585
-0.176
0.298
0.435
0.256
0.032
0.010
0.101
0.016
-0.132
-0.169
-0.177
0.067
0.253
0.178
0.150
0.006
0.052
-0.092
0.402
0.275
-0.551
-0.433
-0.086
0.099
0.377
0.257
0.209
0.192
0.041
1.008
-0.205
-1.708
-0.542
0.737
0.108
0.024
0.652
0.493
0.137
-0.171
-0.703
-0.186
0.263
0.269
0.165
0.053
-0.017
-0.028
-0.003
0.079
0.112
0.015
0.018
-0.041
0.038
0.018
-0.032
-0.023
-0.011
0.031
0.112
0.037
-0.016
-0.075
-0.105
0.046
0.182
0.199
0.031
0.036
0.029
0.005
-0.005
0.073
0.084
-0.022
0.008
-0.026
0.067
0.103
0.098
0.107
0.112
-0.004
-0.059
-0.096
-0.056
0.012
0.012
0.076
0.044
0.070
0.029
-0.042
-0.013
0.028
0.059
0.075
0.041
0.017
0.003
0.099
1.079
0.021
-1.395
-0.348
0.378
0.160
-0.041
0.119
0.352
0.224
-0.017
-0.209
-0.107
-0.089
-0.030
0.062
0.070
0.168
0.134
0.097
0.147
0.098
0.589
0.032
-0.728
-0.411
0.105
0.304
0.065
-0.175
0.215
0.311
0.083
-0.209
-0.282
-0.126
0.077
0.165
0.157
0.056
0.019
0.112
0.112
0.076
0.040
-0.104
-0.044
-0.021
0.027
0.148
0.048
-0.039
-0.080
-0.185
0.000
0.172
0.200
0.142
-0.051
-0.089
0.074
0.091
-0.004
1.090
-0.190
-1.517
-0.445
0.373
0.568
0.455
0.280
0.136
-0.091
-0.402
-0.114
0.230
-0.627
-0.117
0.539
0.405
0.230
0.003
-0.005
-0.076
-0.134
0.049
0.065
-0.047
0.084
0.164
0.222
0.066
-0.334
-0.581
-0.218
0.261
0.355
0.192
-0.054
-0.059
-0.050
0.010
-0.038
0.160
0.634
-0.174
-0.669
-0.151
0.263
0.242
0.205
0.238
0.114
-0.114
-0.136
-0.079
-0.130
0.064
0.170
0.294
-0.382
-0.108
0.193
0.281
0.337
0.085
-0.084
-0.096
-0.125
-0.111
-0.070
0.068
0.248
0.119
0.024
-0.004
-0.023
-0.036
0.557
0.915
-1.256
-1.274
0.088
0.569
0.612
0.331
0.045
-0.140
-0.235
-0.058
-0.035
0.004
0.157
0.049
0.072
0.072
0.065
0.115
0.073
0.114
0.085
0.064
-0.040
-0.016
-0.062
0.027
0.013
0.066
0.007
0.012
0.077
0.059
0.000
-0.020
0.025
-0.044
0.029
0.094
0.059
0.057
0.011
0.022
-0.025
-0.022
0.048
0.034
-0.011
0.036
0.088
-0.008
0.068
0.020
0.093
-0.009
0.024
0.032
0.097
0.263
0.265
-0.114
-0.410
-0.330
-0.465
0.230
0.855
0.524
0.072
-0.356
-0.446
-0.213
0.448
1.336
0.298
-1.991
-0.969
0.557
0.930
0.623
0.170
-0.228
-0.280
-0.158
-0.128
-0.024
0.002
0.013
0.158
0.327
-0.682
-0.370
0.735
0.685
0.295
-0.107
-0.058
-0.082
-0.129
-0.052
0.015
0.150
0.056
0.067
-0.075
-0.008
0.006
-0.035
0.030
-0.006
0.085
0.160
-0.017
-0.070
-0.074
0.017
0.040
0.121
0.058
0.002
0.076
0.055
-0.112
-0.029
0.121
0.220
0.087
-0.003
-0.033
-0.058
0.005
0.109
0.041
-0.019
0.046
0.016
0.044
-0.036
0.032
0.093
0.116
1.244
-0.503
-1.664
-0.296
0.432
0.679
0.372
0.110
-0.057
-0.144
-0.052
-0.008
-0.406
-0.059
0.450
0.445
0.219
-0.008
-0.093
0.058
-0.046
-0.104
0.003
0.072
0.064
0.089
0.066
-0.062
-0.047
-0.014
-0.019
0.079
0.180
0.235
0.037
-0.374
-0.210
0.395
-0.100
-0.368
0.167
0.154
0.172
0.117
0.097
-0.062
-0.062
0.015
-0.203
-0.171
0.070
0.321
0.512
0.181
-0.008
-0.104
-0.151
-0.043
0.044
0.077
0.060
0.025
0.093
0.035
0.026
-0.030
0.006
-0.019
-0.006
-0.032
-0.036
-0.028
0.065
0.048
0.140
0.017
0.034
0.092
0.102
0.805
0.637
-1.435
-0.949
0.159
0.680
0.519
0.232
-0.049
-0.163
-0.098
0.057
0.017
0.056
-0.330
-0.044
0.039
0.225
0.260
0.167
0.126
-0.067
-0.107
0.061
0.010
0.097
-0.239
-0.380
0.264
0.337
0.262
0.104
-0.087
-0.111
-0.026
0.068
0.108
0.128
0.313
-0.590
-0.733
0.444
0.638
0.354
-0.036
-0.133
-0.128
-0.154
-0.103
0.066
0.125
0.229
0.273
0.172
-0.218
-0.541
-0.226
0.086
0.465
0.310
0.138
-0.092
-0.037
-0.079
-0.172
-0.079
0.603
0.421
-0.540
-0.528
0.061
0.235
0.245
0.183
0.032
-0.082
-0.114
0.111
0.060
0.275
0.918
-1.022
-1.304
0.070
0.582
0.713
0.321
0.080
-0.141
-0.146
-0.222
-0.297
-0.167
0.160
0.248
0.311
0.220
0.023
-0.054
-0.141
-0.041
0.036
0.053
0.117
0.123
0.071
0.019
0.030
-0.055
0.004
-0.202
-0.315
0.156
0.360
0.225
-0.047
-0.126
-0.058
-0.046
-0.007
0.082
0.141
0.045
0.094
0.014
-0.023
-0.061
-0.003
0.041
0.056
-0.075
-0.185
-0.086
0.103
0.187
0.161
0.088
0.026
-0.007
-0.025
-0.010
0.013
0.063
0.058
0.073
0.070
-0.008
0.036
0.817
0.558
-1.398
-1.022
0.265
0.687
0.500
0.214
-0.126
-0.169
-0.158
-0.144
-0.069
0.003
0.109
0.113
0.067
0.101
0.126
0.057
0.163
0.006
0.285
0.433
-0.467
-0.626
-0.127
0.133
0.256
0.296
0.275
-0.160
-0.262
-0.170
-0.004
0.278
0.367
0.176
-0.323
-0.551
-0.172
0.246
0.356
0.310
-0.015
0.085
-0.085
-0.123
0.021
0.006
0.052
0.055
-0.083
0.046
0.093
0.013
0.084
0.113
0.102
0.166
-0.187
-0.454
0.504
0.032
-0.244
0.412
1.107
0.618
-1.620
-1.191
-0.060
0.578
0.703
0.464
0.212
-0.042
-0.246
-0.318
-0.288
-0.042
-0.039
0.201
0.310
