0.197
0.171
0.091
-0.028
-0.001
-0.006
0.002
-0.007
0.056
0.026
0.010
-0.041
0.034
-0.115
-0.062
-0.077
0.013
-0.173
0.011
0.034
0.129
-0.000
-0.028
0.076
0.047
0.034
-0.161
0.010
0.177
0.046
-0.086
0.075
-0.012
0.011
0.098
0.009
0.036
0.057
-0.083
0.004
0.059
-0.035
-0.008
0.010
0.032
0.006
-0.035
-0.108
0.004
0.061
0.062
-0.023
0.097
0.079
-0.005
-0.022
0.052
0.035
-0.116
0.073
-0.027
0.115
0.027
-0.077
0.064
0.072
-0.122
0.188
0.047
0.011
-0.137
0.009
0.054
0.098
0.171
-0.054
-0.139
-0.005
0.024
-0.043
-0.070
0.018
0.012
0.158
0.125
-0.031
0.041
-0.080
-0.059
-0.796
-0.995
-0.202
0.774
1.009
0.446
0.030
-0.237
-0.273
-0.041
0.023
0.095
0.380
0.379
0.227
0.335
0.217
0.061
0.085
0.007
0.005
0.022
-0.234
-0.054
-0.167
-0.090
-0.072
-0.359
0.107
0.023
0.217
-0.026
-0.004
-0.036
-0.003
-0.107
0.129
-0.064
0.072
0.128
0.018
-0.451
0.099
0.308
0.395
0.117
-0.083
-0.002
-0.054
-1.948
-3.377
0.470
2.947
2.711
1.357
0.026
-0.924
-0.921
-0.732
-0.217
0.185
0.718
0.957
1.140
1.109
0.892
0.601
0.339
0.183
0.069
-0.266
-0.384
-0.417
-0.439
-0.369
-0.319
-0.173
-0.144
-0.144
0.005
0.005
0.010
-0.023
0.038
0.070
0.208
0.103
0.079
0.076
0.005
0.121
0.094
0.053
0.063
0.106
0.108
0.202
0.318
0.185
0.088
0.172
0.170
0.102
0.126
0.197
0.100
0.351
0.083
0.040
0.172
0.172
0.119
0.171
0.085
0.192
0.195
0.021
-0.014
0.181
0.021
0.040
-0.077
0.071
0.101
-0.008
0.016
-0.022
0.038
0.011
-0.017
-0.037
0.003
-0.059
-0.055
-0.089
-0.142
-0.005
-0.084
-0.069
-0.033
0.027
-0.024
0.082
-0.182
-0.048
-0.000
0.073
-0.080
-0.136
-0.186
-0.001
-0.073
0.099
-0.061
-0.052
-0.165
0.016
0.057
-0.030
-0.014
-0.120
-0.042
0.102
0.057
-0.020
0.148
0.061
-0.061
-0.005
0.044
0.049
0.060
0.021
0.058
0.093
0.074
-0.026
-0.141
-0.040
-0.022
0.177
-0.031
0.062
-0.000
-0.065
0.052
0.036
0.084
0.026
-0.107
-0.013
0.126
0.111
-0.077
0.116
0.117
-0.029
-0.089
0.049
0.097
0.077
-0.025
0.041
0.097
-0.125
-0.005
0.019
0.061
-0.056
0.083
-0.106
0.090
-0.062
0.023
0.006
0.171
0.003
-0.124
0.067
0.005
0.031
-0.028
0.051
0.033
-0.110
0.044
0.088
0.061
-0.036
-0.011
-0.042
0.032
0.016
0.174
0.014
0.010
-0.001
0.065
0.003
-0.062
0.049
0.073
0.089
-0.052
0.085
-0.078
-0.019
0.102
-0.004
0.012
-0.057
0.007
-0.003
-0.005
0.039
0.179
-0.043
0.085
-0.090
0.048
-0.007
-0.049
-0.012
0.029
0.089
-0.018
0.111
-0.003
0.057
-0.046
-0.048
-0.009
0.091
0.097
-0.469
-0.290
0.017
0.134
0.046
0.137
0.036
-0.104
-0.129
-0.077
-0.090
0.046
0.069
0.159
0.034
0.014
0.170
0.149
-0.006
0.132
-0.015
0.097
-0.020
-0.039
-0.045
0.061
0.107
0.049
0.033
-0.048
0.033
0.073
0.072
0.077
-0.019
0.126
0.021
-0.050
0.004
-0.015
0.194
0.072
-0.031
0.010
0.151
-0.015
-0.044
0.033
0.017
0.077
0.068
-0.108
-0.114
0.233
-0.090
0.048
-0.044
-0.031
0.052
0.132
0.018
0.007
-0.060
0.071
0.044
-0.127
-0.010
0.121
-0.108
-0.012
0.067
-0.006
-0.044
0.053
0.003
-0.017
0.022
-0.012
0.124
0.012
-0.057
-0.021
0.108
-0.038
-0.042
0.069
0.075
0.063
0.147
0.142
0.073
-0.082
0.049
0.173
0.130
0.024
-0.009
-0.275
-0.107
-0.120
-0.044
-0.149
-0.275
0.405
0.386
0.333
-0.108
-0.177
-0.069
0.047
0.073
0.090
0.220
0.218
-1.110
-0.600
0.507
0.788
0.425
-0.075
-0.419
-0.368
-0.260
0.020
0.246
-0.227
0.032
0.141
0.226
0.293
0.118
0.163
0.117
0.069
0.057
-0.036
-0.021
0.017
0.067
-0.100
-0.108
0.086
0.140
-0.092
-0.099
-0.021
0.025
0.017
0.041
-0.135
0.160
0.111
0.043
-0.151
-0.039
0.093
0.037
0.046
0.008
-0.032
0.092
0.080
0.182
0.066
-0.080
-0.551
-0.015
0.312
0.353
0.092
0.063
-0.627
-0.246
0.092
0.274
0.128
0.081
0.027
0.025
0.105
0.262
0.117
-0.470
-0.192
0.115
0.159
0.171
0.160
0.276
0.073
-0.024
-0.031
0.009
-0.082
0.019
0.097
0.183
0.068
0.153
0.061
0.174
0.172
0.043
0.055
0.103
0.040
0.040
0.045
0.063
0.007
-0.051
0.020
-0.039
-0.070
0.028
-0.077
0.013
-0.077
-0.074
0.060
-0.179
-1.275
-1.705
0.208
0.967
1.060
0.688
0.112
-0.213
-0.494
-0.359
0.108
0.419
0.576
0.309
0.472
0.416
0.266
0.225
0.178
0.028
-0.028
-0.026
-0.149
-0.282
-0.464
-0.401
-0.471
-0.899
-0.641
0.230
0.347
0.301
-0.058
-0.093
-0.154
-0.120
0.160
0.198
0.228
0.143
0.351
0.289
0.304
0.199
0.334
0.374
0.218
0.070
-0.071
-0.155
-0.149
-0.211
-0.941
-1.267
-0.157
0.417
0.431
0.108
-0.055
-0.268
-0.225
-0.029
-0.142
0.056
0.143
0.344
0.342
0.458
0.380
0.284
0.137
0.214
0.114
0.038
0.001
0.021
0.074
-0.033
-0.032
-0.107
0.093
-0.039
-0.118
-0.066
0.098
-0.040
0.085
0.056
-0.091
0.015
0.079
-0.030
0.056
-0.010
0.134
0.109
0.092
-0.039
0.097
-0.010
0.118
0.054
0.042
-0.091
0.078
0.127
0.130
0.112
-0.021
0.033
-0.066
0.101
0.042
-0.159
0.110
0.155
0.147
0.043
0.078
-0.011
-0.063
0.173
0.018
0.078
-0.062
0.085
-0.049
-0.265
-1.401
-1.039
0.541
1.160
0.839
0.185
-0.129
-0.198
-0.411
-0.349
-1.680
-1.616
-0.285
0.985
1.430
1.061
0.570
-0.025
-0.289
-0.373
-0.541
-0.380
0.159
0.468
0.698
0.599
0.461
0.388
0.173
-0.027
0.108
-0.149
-0.007
-0.090
-0.099
-0.151
-0.201
-0.095
-0.028
-0.096
-0.103
-0.065
-0.006
0.012
-0.009
-0.068
-0.024
-0.118
0.033
-0.069
0.018
0.078
-0.154
0.079
-0.094
0.044
0.072
0.073
0.153
0.006
0.100
0.101
0.068
0.166
0.066
0.246
0.073
0.236
0.044
0.082
0.099
0.134
0.152
0.064
0.268
0.093
0.109
0.096
-0.027
-0.232
-0.919
-1.377
-1.042
0.166
0.680
1.021
0.509
-0.032
-0.178
-0.241
-0.139
-0.028
0.205
0.505
0.671
0.538
0.481
0.541
0.347
0.200
-0.004
-0.129
-0.290
-0.167
-0.214
-0.264
-0.352
-0.363
-0.329
-0.212
-0.146
-0.096
-0.134
-0.057
-0.031
0.071
-0.155
-0.139
-0.021
-0.065
-0.154
-0.108
-0.060
-0.082
-0.014
0.104
-0.048
0.051
0.042
-0.043
0.072
0.076
0.071
-0.023
0.127
0.112
0.029
0.023
0.093
0.147
0.164
-0.012
0.102
0.170
0.175
0.090
0.172
0.149
0.193
0.112
0.038
0.184
0.347
0.207
0.109
0.116
0.039
-0.060
0.038
0.034
-0.015
0.058
-0.008
-0.070
-0.606
-0.342
-0.087
0.157
0.098
0.012
-0.021
-0.075
-0.140
0.006
0.031
-0.042
0.033
0.072
0.277
0.187
0.295
0.159
0.097
0.090
0.063
0.011
-0.101
-0.026
-0.022
-0.012
-0.095
0.029
-0.070
0.074
-0.031
-0.037
0.082
-0.001
0.023
-0.046
0.078
-0.027
-0.074
0.022
-0.055
-0.002
0.086
-0.019
0.047
0.002
-0.049
0.031
0.049
-0.034
0.009
-0.018
0.065
-0.024
-0.110
-0.069
0.039
0.181
0.046
0.024
0.005
-0.038
0.063
0.086
-0.061
-0.035
-0.071
0.036
-0.018
0.078
-0.138
0.073
-0.052
0.065
0.069
-0.071
-0.002
-0.006
0.129
0.036
-0.001
0.020
0.044
0.015
0.089
-0.040
0.047
0.036
0.033
0.056
-0.022
-0.056
-0.117
0.048
0.058
0.147
0.068
-0.107
0.015
-0.097
0.045
0.065
0.113
-0.025
-0.093
0.060
0.090
-0.004
0.060
0.003
0.187
-0.023
0.134
-0.034
0.076
-0.026
0.102
0.025
0.030
0.010
0.081
0.041
-0.086
0.064
-0.080
0.060
0.044
0.029
0.041
0.027
-0.004
-0.018
-0.011
0.008
-0.029
0.040
0.023
-0.024
-0.124
-0.039
0.117
0.097
-0.089
-0.006
-0.021
-0.016
0.033
-0.096
0.109
0.022
0.153
-0.114
-0.004
-0.045
0.090
-0.157
0.027
0.071
0.025
0.022
0.008
-0.047
-0.102
0.113
0.050
0.018
-0.011
0.007
0.042
0.026
0.040
-0.049
0.041
0.033
0.123
-0.080
-0.030
0.066
0.052
-0.036
0.041
-0.003
0.047
0.028
0.073
-0.075
0.023
0.079
0.107
0.046
-0.123
0.063
0.043
0.040
0.056
-0.065
0.048
0.119
-0.027
0.092
-0.089
-0.027
0.149
0.037
-0.087
0.041
0.233
0.025
-0.004
-0.091
0.064
0.023
-0.003
0.018
-0.009
0.053
-0.052
0.074
0.009
0.096
-0.023
-0.067
-0.039
-0.031
0.016
-0.082
0.065
-0.081
0.080
-0.017
-0.031
0.058
-0.096
0.081
-0.074
0.056
0.069
0.020
0.006
0.051
-0.076
0.019
0.055
-0.020
-0.041
0.065
-0.006
-0.089
0.017
-0.046
0.035
0.087
0.031
-0.004
0.109
0.042
-0.112
0.113
-0.069
0.158
-0.020
0.013
-0.022
0.041
0.014
0.044
-0.000
-0.061
-0.040
0.022
0.018
0.147
-0.002
-0.003
-0.031
-0.028
-0.059
0.127
0.030
-0.046
0.110
-0.107
-0.043
0.151
-0.057
-0.058
0.108
0.079
-0.021
0.006
0.073
0.040
-0.038
0.040
0.063
0.185
-0.056
-0.048
0.020
0.046
-0.044
0.122
-0.046
0.025
0.057
-0.084
-0.005
0.062
0.027
0.007
-0.063
0.028
0.126
0.009
0.083
-0.058
0.022
0.013
-0.022
0.094
0.096
-0.130
-0.038
-0.016
-0.042
0.040
0.175
0.062
0.010
-0.130
0.036
0.019
0.107
-0.027
0.081
-0.035
-0.056
-0.022
-0.020
0.101
0.069
-0.083
-0.076
0.080
0.051
0.025
0.085
0.036
0.118
-0.067
0.061
0.007
-0.012
-0.065
0.075
-0.082
0.099
0.097
0.085
0.077
0.005
0.051
-0.061
0.010
-0.042
0.010
0.149
-0.047
0.018
0.013
0.044
-0.081
0.075
0.103
-0.009
0.013
0.031
-0.048
0.020
0.071
0.138
0.035
-0.059
0.051
-0.040
0.089
0.013
-0.005
-0.054
0.034
0.095
0.000
0.039
0.014
-0.037
0.090
0.044
0.112
-0.031
0.013
-0.021
0.063
0.005
0.013
0.059
-0.034
0.025
0.097
-0.103
0.047
0.034
-0.005
0.078
0.051
-0.026
-0.007
-0.108
-0.045
0.160
-0.008
0.168
-0.108
0.097
-0.044
0.133
0.253
0.047
-0.112
-0.144
0.022
0.172
0.281
0.300
0.285
-0.071
0.049
-0.090
-0.004
0.000
-0.045
-0.038
-0.370
-0.278
-0.169
0.055
0.272
0.107
0.047
-0.193
-0.202
-0.108
-0.140
-0.017
0.221
0.150
0.031
0.187
0.186
0.294
0.118
-0.008
0.103
0.028
-0.025
0.030
0.054
-0.031
-0.006
0.115
0.098
-0.014
-0.085
-0.007
-0.015
-0.022
0.184
-0.002
-0.001
-0.059
0.029
-0.024
0.162
0.110
-0.100
0.023
-0.027
-0.116
0.073
0.078
0.014
-0.048
0.031
-0.107
0.056
0.031
0.020
-0.095
0.021
0.030
0.008
0.138
0.065
-0.053
0.051
0.104
0.024
0.104
-0.048
0.028
0.034
0.115
0.007
0.050
0.051
-0.043
-0.026
-0.162
0.161
0.079
0.049
-0.039
-0.023
-0.016
0.030
0.060
-0.015
0.018
0.073
0.012
-0.039
-0.036
0.119
0.184
0.101
-0.066
0.065
-0.014
-0.048
0.179
-0.029
0.047
-0.036
-0.015
0.096
0.109
0.056
0.073
0.071
-0.085
-0.075
0.128
0.046
0.027
0.068
-0.042
-0.089
0.002
0.104
-0.005
0.090
0.045
-0.113
-0.059
0.042
0.144
0.098
0.035
-0.055
0.071
-0.067
0.029
-0.046
0.034
0.013
0.218
-0.056
0.196
0.002
0.012
0.029
-0.101
0.040
0.018
0.038
0.026
0.029
0.068
0.095
-0.010
0.071
-0.034
0.224
0.018
-0.000
0.036
-0.045
-0.098
0.057
0.023
0.099
0.053
0.117
-0.001
-0.007
0.043
-0.017
0.060
-0.001
-0.050
0.026
0.061
-0.025
-0.011
0.089
-0.027
0.072
0.002
-0.025
0.067
0.133
-0.039
-0.158
0.037
0.041
0.141
0.000
0.047
0.071
-0.043
-0.030
-0.025
0.093
0.029
-0.003
0.144
-0.009
-0.010
0.084
-0.042
0.068
0.139
0.013
0.006
0.008
0.020
-0.007
-0.022
0.090
-0.035
-0.020
0.002
-0.031
0.123
0.183
-0.087
-0.014
0.141
0.010
-0.025
0.000
-0.034
0.109
0.099
0.065
-0.074
-0.025
-0.196
0.126
0.058
-0.012
0.028
0.158
-0.052
0.044
0.038
0.021
-0.015
0.096
0.133
-0.129
0.023
0.155
0.121
-0.432
0.083
0.215
-0.038
0.123
0.158
0.182
0.087
0.056
0.184
0.010
0.040
0.077
0.102
0.019
0.080
-0.031
-0.030
0.020
-0.014
-0.088
0.009
0.002
0.200
-0.056
-0.090
-0.032
0.123
-0.150
0.077
0.050
-0.002
0.018
0.102
0.010
-0.109
0.133
0.017
0.003
0.131
-0.028
0.082
-0.037
0.059
0.066
0.178
0.081
-0.001
-0.061
0.079
0.033
-0.743
-3.068
-0.435
1.388
1.830
1.359
0.275
-0.414
-0.650
-0.358
0.040
0.109
0.419
0.637
0.603
0.680
0.443
0.301
0.334
0.416
-0.186
-0.349
-0.214
-0.462
-0.292
-0.282
-0.183
-0.143
-0.178
0.018
0.009
-0.045
-0.082
-0.070
-0.013
-0.004
-0.058
0.063
-0.034
0.071
0.043
0.048
0.066
-0.038
0.028
0.056
0.090
0.107
0.103
0.122
0.106
0.052
0.090
0.065
0.060
0.058
0.053
0.148
0.115
0.099
0.081
0.118
0.053
0.082
0.099
0.155
0.210
-0.040
0.007
0.078
0.092
0.102
0.016
0.013
-0.034
0.056
-0.032
-0.038
0.190
0.045
-0.078
-0.164
0.087
-0.110
-0.051
0.044
0.121
-0.061
-0.001
-0.037
-0.022
0.073
-0.018
-0.060
-0.132
-0.017
-0.054
0.099
0.018
-0.125
-0.103
0.001
-0.042
0.019
-0.023
-0.022
0.117
0.233
0.222
0.148
0.100
-0.012
0.036
0.049
0.091
0.122
0.185
0.154
0.168
0.052
-0.038
0.026
-0.016
-0.213
-0.050
-0.075
0.107
-0.049
0.131
-0.022
0.019
-0.020
-0.018
0.017
0.028
0.025
0.126
0.037
-0.011
0.031
0.067
-0.042
-0.082
-0.031
0.014
-0.070
0.072
0.146
0.244
0.043
0.029
-0.018
0.015
0.045
0.057
0.161
-0.029
0.065
0.119
0.095
0.037
0.068
-0.010
-0.046
0.007
0.044
-0.098
0.084
-0.010
0.196
-0.187
0.021
-0.200
-2.906
-2.545
1.976
3.614
2.338
0.730
-0.122
-0.857
-1.938
-0.800
0.290
0.839
1.110
1.275
1.114
1.109
0.915
-0.071
-0.650
0.530
0.651
-0.767
-0.415
-0.179
-0.299
-0.476
-0.432
-0.337
-0.216
-0.018
0.005
-0.484
-1.068
0.209
0.455
0.891
0.848
0.457
-0.630
-0.628
0.018
0.245
0.076
0.092
-0.067
0.456
0.717
0.732
0.520
0.381
0.369
-0.528
0.108
-0.040
0.222
0.604
0.317
0.384
-0.044
-0.190
-0.082
-0.004
0.124
0.105
0.081
0.082
0.179
0.114
0.026
0.087
0.034
0.006
0.002
0.052
0.008
-0.050
-0.118
-0.042
-0.063
-0.046
0.018
-0.070
-0.125
-0.019
-0.007
0.061
0.049
0.103
0.087
-0.692
-0.255
0.002
0.404
0.317
0.125
-0.008
-0.966
-0.257
0.307
0.377
0.162
-0.136
-0.081
-0.336
0.047
0.285
-0.719
-0.391
0.382
0.329
0.273
-0.216
-0.079
0.038
-0.233
0.109
0.373
0.192
0.217
0.163
0.174
0.070
0.104
0.102
0.090
0.122
0.114
0.013
0.101
-0.069
0.009
-0.939
-1.839
0.048
0.984
0.412
-0.303
-0.158
0.106
-0.087
-0.524
-0.096
0.200
0.584
0.578
0.365
-0.162
-0.338
0.062
0.560
0.456
0.465
-0.187
-0.322
-0.212
-0.101
-0.081
-0.050
-0.141
-0.053
0.024
0.000
0.114
-0.038
0.119
-0.067
0.102
0.015
0.063
0.036
0.055
-0.131
-0.064
0.077
0.065
0.013
0.039
0.118
0.237
0.149
0.037
-0.208
0.101
0.159
0.155
0.079
0.154
0.072
-0.068
0.070
0.102
-0.047
-0.113
-0.056
-0.012
-0.332
-0.506
-0.331
-0.203
0.115
0.126
0.182
0.110
0.091
-0.079
-0.120
0.051
0.165
0.177
0.230
0.243
0.204
0.217
0.281
0.145
0.064
0.044
0.107
0.061
-0.030
-0.049
-0.077
-0.032
0.040
0.014
0.087
-0.053
-0.103
0.048
0.034
0.061
0.076
-0.043
-0.049
-0.031
0.027
0.073
0.127
0.078
-0.085
-0.057
-0.017
0.029
-0.060
-0.027
-0.001
-0.044
0.010
0.033
0.090
0.009
0.103
-0.110
0.042
0.012
0.157
-0.026
-0.023
-0.081
0.066
0.195
0.140
0.104
0.088
-0.116
0.090
0.080
0.116
0.160
0.044
0.022
0.090
-0.015
-0.009
0.078
0.156
-0.032
-0.027
-0.002
-0.017
0.039
-0.033
-0.036
-0.139
-0.044
0.115
-0.000
0.131
-0.133
0.091
-0.067
-0.032
0.059
0.024
0.119
-0.033
-0.060
0.077
0.149
-0.099
-0.145
-0.072
-0.038
-0.701
-2.279
-0.210
0.902
0.973
0.470
0.046
-0.116
-0.373
-0.247
-0.044
0.043
0.240
0.330
0.395
0.478
0.356
0.311
0.155
-0.046
0.046
-0.034
-0.159
-0.125
-0.214
-0.122
-0.029
-0.091
-0.027
-0.104
-0.017
-0.059
0.048
-0.067
-0.016
0.090
0.151
-0.028
0.082
-0.007
0.079
-0.010
0.007
-0.047
0.068
0.064
0.140
-0.079
-0.074
0.169
0.084
0.020
0.071
0.053
0.133
0.015
0.052
-0.029
0.128
0.005
0.085
0.000
0.007
0.109
0.038
0.031
0.051
0.102
0.073
0.014
0.151
-0.055
-0.093
-0.041
-0.036
-0.046
0.081
0.045
-0.013
0.013
0.006
-0.107
-0.059
-0.048
0.041
0.032
0.026
0.085
0.066
-0.005
0.146
0.062
0.056
-0.042
-0.082
-0.040
0.059
0.090
0.057
-0.015
-0.030
-0.060
0.045
0.126
-0.122
-0.040
0.003
-0.012
0.123
0.092
-0.058
-0.100
-0.026
0.064
-0.058
-0.020
0.041
0.029
-0.083
0.141
-0.020
-0.045
-0.018
0.045
0.053
0.031
0.001
-0.023
-0.124
0.097
0.026
-0.083
0.133
0.039
0.005
0.000
0.003
0.093
0.129
-0.004
-0.085
0.154
-0.048
0.023
0.157
-0.072
-0.007
0.021
0.118
0.117
-0.044
0.062
-0.063
0.086
0.036
-0.027
-0.031
0.048
-0.088
0.030
0.107
0.098
-0.140
0.061
-0.052
0.152
0.030
0.016
-0.004
0.005
0.044
0.026
-0.092
0.061
0.111
0.143
0.037
-0.033
-0.032
0.011
-0.102
0.109
0.034
0.132
0.025
-0.036
-0.006
0.035
0.058
-0.061
0.076
-0.063
-0.039
0.026
0.047
0.161
0.135
-0.090
-0.029
0.031
0.035
-0.093
0.115
0.041
0.100
-0.065
0.032
0.070
0.008
0.047
0.009
0.046
0.042
-0.100
-0.054
0.051
0.047
-0.032
-0.039
0.010
0.134
0.021
0.021
0.045
0.037
-0.096
0.117
0.054
0.017
-0.073
0.003
0.012
0.064
0.019
-0.036
0.097
-0.111
0.032
-0.082
-0.035
0.046
0.168
0.073
0.011
-0.056
-0.043
0.021
0.063
-0.012
0.058
-0.031
0.132
0.062
0.038
0.014
-0.049
0.069
0.052
0.022
0.098
-0.001
-0.024
-0.015
-0.042
0.136
-0.055
-0.013
0.018
0.052
0.084
0.092
-0.030
0.024
0.114
-0.049
-0.042
0.023
-0.053
0.086
-0.077
0.091
-0.042
0.038
0.019
0.001
0.049
0.011
-0.045
-0.147
0.074
0.082
-0.016
0.056
-0.168
-0.055
0.089
0.005
0.070
0.101
0.047
-0.058
0.012
0.002
-0.050
-0.011
0.012
0.117
0.011
0.078
-0.113
0.074
-0.027
0.039
-0.081
0.018
0.012
0.105
0.089
-0.073
0.020
0.009
0.044
0.086
-0.071
0.009
0.003
-0.055
-0.017
-0.029
0.013
-0.027
0.009
-0.045
0.043
0.197
-0.058
-0.019
-0.019
0.071
0.038
0.012
-0.035
0.043
0.090
0.114
-0.083
-0.028
0.035
0.034
0.120
-0.030
-0.025
0.126
0.095
-0.091
-0.074
-0.005
0.083
0.055
0.084
0.125
0.043
-0.139
0.136
0.091
0.065
0.027
0.031
0.043
0.039
0.002
0.171
0.078
-0.053
0.088
0.064
-0.023
0.080
-0.009
0.011
-0.009
-0.020
0.021
0.114
-0.088
-0.016
-0.057
0.034
-0.012
-0.003
0.001
0.028
0.135
0.050
-0.047
-0.031
0.152
0.052
0.061
-0.076
0.031
-0.046
0.030
-0.247
-0.809
-0.700
0.104
0.510
0.397
0.240
0.121
-0.124
-0.158
-0.134
0.018
0.186
0.272
0.210
0.415
0.379
0.325
0.240
0.095
0.090
-0.043
0.015
-0.060
-0.131
0.015
-0.149
-0.164
-0.124
-0.097
-0.189
-0.061
-0.010
-0.007
-0.080
0.008
-0.031
-0.146
-0.087
-0.125
-0.084
0.011
0.016
0.117
0.053
0.153
0.050
-0.076
0.005
-0.045
0.077
0.025
0.007
0.041
0.066
0.055
0.042
0.056
-0.064
0.118
0.075
0.001
0.105
0.113
0.009
0.043
0.077
-0.019
0.099
-0.004
0.092
-0.121
0.039
-0.005
0.200
0.077
0.054
0.038
0.006
0.119
-0.087
-0.060
0.239
0.016
-0.033
0.016
0.017
-0.049
0.115
-0.028
-0.054
0.033
-0.025
-0.050
-0.056
0.034
-0.008
-0.054
0.092
0.058
-0.049
0.002
-0.049
-0.054
0.051
0.003
0.066
0.009
0.017
0.041
0.036
-0.051
0.097
-0.025
0.082
-0.014
-0.060
-0.129
0.039
-0.005
0.055
-0.080
-0.060
0.013
0.114
0.069
0.025
-0.031
0.101
0.104
0.064
0.063
0.063
0.091
-0.094
-0.494
-1.783
-0.701
0.618
1.071
0.972
0.431
-0.507
-0.359
0.065
0.140
0.193
0.200
-0.031
0.138
-0.067
0.191
0.371
0.577
0.364
0.073
-0.038
-0.169
-0.258
-0.454
-0.661
-0.402
0.267
0.366
0.099
0.035
-0.076
-0.206
-0.111
0.082
0.014
-0.027
-0.054
-0.076
0.007
-0.009
-0.029
0.227
0.153
0.102
-0.070
0.051
0.101
0.038
0.052
0.009
0.016
0.134
0.128
0.044
-0.019
0.043
0.062
0.055
0.094
0.099
-0.002
-0.061
0.150
0.102
0.091
0.068
0.049
-0.031
0.116
0.078
-0.061
0.126
0.007
0.009
-0.002
0.101
0.149
0.081
0.008
0.014
0.029
-0.007
0.037
-0.102
0.013
0.200
-0.049
-0.053
-0.060
0.109
-0.055
0.011
-0.081
0.025
0.065
0.096
-0.060
-0.077
-0.071
-0.024
0.044
-0.091
0.021
0.051
0.109
0.005
0.018
-0.002
-0.147
0.052
0.037
0.141
-0.030
-0.054
0.095
0.066
0.027
-0.075
-0.047
-0.010
-0.012
0.123
0.022
0.015
-0.075
0.055
0.037
0.045
0.017
-0.016
0.085
0.001
-0.025
-0.058
0.000
0.148
0.045
0.060
-0.027
0.009
0.097
-0.088
0.053
0.072
-0.059
0.043
0.025
0.048
-0.043
-0.014
-0.005
-0.040
0.098
-0.004
-0.095
-0.033
-0.020
0.039
0.090
0.012
-0.018
0.061
0.035
0.050
0.004
0.001
0.006
0.047
0.037
0.072
-0.010
0.047
0.027
0.086
0.029
-0.025
-0.014
-0.102
0.063
0.057
0.000
-0.004
0.047
0.158
0.003
-0.045
-0.068
-0.031
-0.049
0.028
0.124
0.025
-0.015
-0.011
0.077
0.011
0.036
-0.057
0.063
-0.036
0.031
0.019
0.031
0.082
0.065
-0.047
-0.054
-0.061
0.095
0.052
-0.090
0.041
-0.005
0.040
0.018
0.083
0.019
0.028
-0.059
-0.106
0.074
0.094
-0.001
0.051
0.043
0.026
-0.114
0.065
-0.076
0.091
0.052
0.039
-0.033
0.051
0.077
0.134
-0.036
-0.106
0.048
0.042
-0.050
-0.008
-0.067
0.066
0.054
0.006
-0.118
0.062
0.061
-0.002
0.068
0.075
-0.096
0.069
-0.015
0.013
-0.072
0.039
0.088
-0.016
0.054
0.084
0.091
-0.002
-0.077
-0.025
0.072
0.060
-0.074
0.045
0.053
0.121
0.059
-0.064
0.108
-0.015
0.093
-0.010
-0.005
-0.048
-0.010
-0.120
0.151
0.043
-0.017
0.094
0.003
0.127
0.127
-0.001
-0.050
0.042
-0.089
0.007
0.010
0.104
0.013
-0.020
0.111
0.020
0.137
-0.035
-0.057
0.003
0.001
0.044
0.084
0.002
0.086
-0.042
0.043
-0.057
0.103
-0.012
0.074
0.082
0.054
0.028
-0.073
0.064
-0.058
-0.035
0.012
-0.047
0.066
-0.069
0.046
0.081
0.011
0.065
0.045
-0.048
-0.020
0.066
-0.014
-0.077
0.018
0.071
0.167
0.143
-0.124
-0.031
-0.129
0.111
0.145
0.097
0.083
-0.027
-0.028
-0.007
0.049
0.082
-0.021
-0.067
0.086
0.001
0.153
-0.035
0.106
0.001
0.024
-0.028
0.023
0.051
-0.140
-0.003
-0.062
0.135
-0.017
0.035
0.051
0.050
-0.030
-0.060
0.058
0.124
-0.089
0.158
0.043
-0.013
-0.065
0.135
-0.004
0.063
-0.014
0.006
-0.066
-0.026
0.178
0.041
-0.040
0.025
-0.037
-0.080
0.171
0.026
-0.034
-0.097
-0.029
0.004
0.077
0.056
0.050
0.054
0.009
-0.010
0.022
-0.034
0.162
0.013
-0.069
0.094
0.088
-0.006
0.091
-0.013
0.024
-0.050
-0.040
0.117
0.040
0.005
0.021
0.054
-0.069
0.013
0.113
-0.004
0.141
0.015
-0.031
-0.001
0.025
0.071
0.039
0.007
0.079
0.053
-0.016
-0.050
0.052
-0.027
-0.002
0.040
-0.095
0.117
0.205
0.039
0.039
-0.071
-0.010
0.134
-0.000
-0.023
0.102
0.097
-0.009
-0.100
0.225
-0.123
0.060
0.132
0.045
-0.009
0.007
0.126
-0.003
-0.081
0.094
-0.034
-0.050
0.025
-0.041
0.034
0.073
0.059
-0.049
0.037
0.051
-0.007
0.040
-0.026
0.047
0.117
0.012
-0.050
-0.069
0.185
0.131
-0.030
0.008
-0.094
-0.053
0.142
0.039
0.008
0.022
-0.050
-0.058
0.123
0.211
0.101
0.062
0.134
-0.455
-0.186
0.266
0.256
0.340
-0.121
-0.586
-0.362
0.035
0.174
0.054
0.178
0.130
-0.109
-0.074
-0.131
0.002
-0.009
0.134
0.133
0.080
0.041
0.047
0.129
0.192
0.285
-0.013
0.033
0.002
0.027
-0.011
0.097
0.098
-0.136
-0.988
-0.212
0.245
0.350
0.372
-0.011
-0.174
-0.255
-0.260
-0.072
0.147
0.202
0.114
0.225
0.041
-0.212
0.066
0.246
0.330
0.288
0.192
-0.375
-0.186
0.203
0.252
-0.059
-0.161
0.048
-0.332
0.167
0.350
0.246
0.169
0.031
0.013
-0.018
-0.716
-0.931
0.047
0.447
0.348
0.276
0.172
-0.255
-0.306
-0.159
-0.167
0.083
0.234
0.300
0.238
0.296
0.249
0.232
0.217
0.106
0.039
-0.003
-0.075
-0.484
-0.471
-0.102
0.278
0.267
-0.056
-0.218
-0.132
-0.087
-0.075
-0.079
-0.079
0.067
0.208
0.160
0.058
0.212
0.086
0.231
0.045
0.164
-0.046
0.084
-0.078
-0.086
-0.027
-0.115
-0.137
0.044
0.030
0.015
0.091
0.011
0.016
0.075
-0.032
-0.125
-0.111
0.151
0.080
0.090
0.217
0.113
-0.021
-0.359
-0.457
0.008
0.078
0.185
0.247
-0.061
-0.071
-0.084
0.037
0.095
-0.052
0.001
-0.066
0.083
-0.111
0.062
0.066
0.105
0.100
0.018
0.043
0.015
0.037
-0.083
0.067
0.046
0.012
0.051
0.002
0.056
0.076
-0.070
-0.005
0.061
0.084
-0.038
-0.003
0.026
0.042
0.056
-0.077
0.047
-0.016
0.061
0.028
-0.012
0.095
-0.026
-0.038
-0.003
-0.027
0.030
0.081
-0.020
0.072
-0.036
0.050
0.031
-0.005
0.040
-0.063
-0.031
-0.144
0.057
0.151
-0.007
0.080
0.070
-0.029
-0.042
0.115
-0.032
0.050
0.000
-0.076
0.088
0.149
-0.016
0.011
-0.061
0.125
0.016
0.018
-0.039
0.046
0.053
-0.070
0.123
0.138
-0.020
0.010
-0.020
0.020
0.057
-0.039
-0.032
0.043
0.009
0.006
-0.025
0.066
0.154
-0.002
0.053
0.059
-0.108
-0.038
0.110
0.028
0.131
-0.123
0.090
0.037
0.028
0.113
-0.061
0.006
0.024
-0.035
-0.078
-0.128
0.033
0.050
-0.002
0.076
0.040
-0.055
0.028
-0.089
0.066
0.068
0.007
0.079
-0.082
-0.008
0.103
-0.016
0.002
0.144
0.071
-0.091
0.203
-0.029
-0.100
0.036
-0.012
0.130
-0.077
-0.080
-0.024
-0.100
0.098
0.097
0.016
0.117
0.073
0.105
-0.025
-0.032
-0.041
0.040
-0.024
0.006
0.024
0.071
0.049
0.135
0.007
0.008
-0.105
0.114
0.046
0.010
-0.027
-0.012
-0.067
0.119
0.052
0.006
0.072
0.079
-0.003
-0.050
-0.099
0.120
0.146
0.010
0.055
0.101
0.038
-0.032
0.025
-0.033
0.158
0.116
-0.124
0.047
-0.039
0.041
0.025
-0.035
0.138
-0.036
0.031
-0.045
-0.114
0.075
0.189
0.072
-0.011
0.032
-0.063
-0.003
0.109
0.127
0.015
0.048
-0.035
-0.002
0.045
-0.054
0.092
0.025
-0.025
0.107
-0.134
0.052
0.021
0.016
0.098
0.035
-0.011
0.123
-0.043
-0.065
0.111
-0.029
0.167
-0.064
-0.075
0.108
-0.014
0.094
0.019
-0.033
0.058
0.011
0.104
-0.008
0.010
-0.072
-0.090
0.058
0.179
-0.020
-0.039
0.028
0.135
0.013
-0.039
-0.000
-0.005
0.004
-0.072
-0.058
0.101
0.101
-0.084
0.089
0.069
0.037
0.057
-0.130
0.017
0.013
0.088
-0.075
-0.135
0.045
0.136
0.075
-0.044
0.071
0.053
-0.007
-0.014
0.021
0.117
-0.046
0.115
0.163
-0.107
0.034
-0.018
0.032
0.029
-0.042
0.096
0.079
0.133
-0.063
0.081
0.103
0.079
-0.048
0.024
0.006
-0.032
0.122
-0.056
-0.049
-0.059
0.044
0.074
0.027
-0.113
-0.013
0.102
0.131
-0.066
-0.065
0.017
0.051
0.086
-0.017
0.086
0.010
0.045
-0.045
0.083
0.043
0.138
-0.053
-0.003
0.001
0.018
0.067
0.028
0.037
0.018
-0.005
-0.084
0.137
0.004
-0.015
0.186
0.029
-0.065
0.032
0.016
0.013
0.040
0.000
-0.102
-0.086
-0.005
0.234
-0.030
0.051
-0.044
0.054
0.033
0.028
0.055
0.034
0.029
0.091
-0.042
0.085
0.036
0.034
0.147
0.024
0.156
-0.105
-0.105
0.117
0.068
0.008
-0.062
0.026
-0.053
-0.024
0.023
0.131
-0.039
0.129
0.128
-0.012
0.016
0.157
-0.117
-0.097
0.061
0.138
0.033
0.078
0.064
0.060
-0.000
0.057
-0.039
0.065
0.033
0.045
-0.029
-0.015
0.055
-0.015
-0.103
-0.016
0.031
0.129
0.048
0.004
0.039
0.044
-0.002
0.084
0.091
-0.085
-0.028
0.113
-0.015
0.005
-0.018
0.092
0.018
-0.026
0.013
0.069
0.010
-0.064
0.031
0.044
-0.006
0.049
0.085
0.061
0.033
-0.091
-0.022
0.012
-0.045
-0.087
0.111
0.114
-0.031
-0.064
-0.052
0.059
0.050
0.035
0.019
-0.021
0.022
-0.009
-0.025
-0.066
0.129
0.053
-0.054
0.052
0.045
-0.010
-0.015
0.092
-0.028
-0.106
-0.013
0.163
-0.005
0.002
0.102
0.123
0.057
-0.035
0.032
0.067
-0.097
0.120
-0.070
0.030
-0.035
-0.020
0.017
-0.033
0.025
0.065
-0.006
-0.018
-0.078
0.083
0.065
0.109
-0.084
0.013
0.070
-0.030
0.082
0.181
0.132
-0.018
-0.044
-0.020
-0.092
-0.013
0.079
0.054
0.091
0.018
0.012
-0.041
0.111
-0.013
0.062
-0.016
0.022
-0.008
0.057
0.026
0.087
0.046
-0.068
0.032
0.009
0.010
-0.072
-0.027
0.052
0.114
0.017
-0.054
0.026
0.063
-0.014
-0.029
0.047
-0.014
0.114
0.056
0.045
-0.039
-0.094
0.026
-0.091
0.142
-0.126
0.011
0.150
0.048
0.042
-0.046
0.024
0.138
-0.003
-0.017
-0.048
-0.052
-0.014
0.157
0.085
0.089
-0.018
-0.125
-0.109
0.120
0.059
-0.024
0.003
-0.006
0.004
-0.029
0.057
0.111
0.093
0.101
-0.014
-0.065
0.002
0.022
-0.072
0.096
-0.020
0.034
0.027
-0.001
0.101
-0.026
-0.043
0.081
0.226
-0.135
0.090
-0.077
-0.024
0.041
-0.042
-0.022
0.128
-0.039
-0.035
0.085
0.084
-0.005
-0.086
0.011
0.134
0.010
0.083
-0.055
0.063
-0.044
0.059
0.062
-0.020
0.020
0.068
0.020
-0.001
0.058
0.056
-0.024
0.029
0.031
0.081
-0.007
-0.019
0.015
0.079
0.001
0.094
-0.076
-0.000
-0.005
0.022
-0.020
-0.001
0.141
0.022
0.038
-0.055
0.124
0.036
-0.057
0.080
-0.040
0.048
-0.045
-0.050
-0.042
0.131
0.020
-0.010
0.107
-0.072
-0.050
0.107
-0.084
0.050
0.042
0.199
-0.013
0.106
-0.056
-0.028
0.098
0.027
0.050
0.094
0.002
0.014
-0.038
0.012
-0.003
0.182
-0.070
-0.014
0.101
0.026
-0.136
0.054
0.042
0.072
0.083
0.070
-0.024
0.021
0.058
-0.034
0.026
0.018
0.086
0.150
-0.045
-0.003
-0.020
0.032
-0.007
-0.049
0.047
0.120
0.066
-0.097
0.041
0.076
0.045
0.100
-0.033
0.124
-0.011
-0.011
0.000
-0.029
0.155
-0.041
0.048
0.062
0.014
-0.016
0.000
0.052
0.087
-0.020
0.039
-0.053
-0.048
0.008
0.042
-0.033
0.081
0.049
-0.085
-0.040
0.064
0.070
-0.016
0.075
0.049
0.047
0.071
-0.035
0.105
-0.073
0.070
0.026
0.002
0.028
0.004
0.084
-0.003
0.071
-0.025
-0.087
-0.002
0.138
0.111
-0.079
-0.062
0.019
0.115
0.082
-0.002
-0.022
0.053
-0.053
0.078
0.063
-0.096
0.028
0.047
0.108
-0.006
0.064
-0.074
0.015
0.043
0.058
0.052
-0.053
0.062
-0.086
0.097
0.073
-0.119
0.062
0.025
0.030
0.078
0.150
0.023
0.052
0.059
0.043
-0.086
0.117
-0.029
-0.024
-0.015
0.037
0.052
0.097
0.087
0.076
0.005
0.049
0.017
-0.060
0.008
0.097
0.050
0.127
-0.107
-0.028
0.010
0.162
0.085
0.045
-0.055
0.106
0.007
-0.040
0.047
0.063
0.050
0.043
-0.036
0.004
0.081
0.101
-0.147
-0.047
0.094
0.077
0.016
-0.083
-0.045
0.080
-0.005
-0.006
-0.003
0.112
0.147
0.002
0.065
-0.081
0.095
0.035
-0.075
0.149
-0.011
0.038
-0.008
0.033
0.079
0.053
0.003
-0.044
0.016
0.022
0.115
0.037
0.058
-0.015
-0.072
-0.054
0.115
-0.001
0.117
0.042
-0.134
-0.011
0.026
0.082
-0.008
0.009
0.021
0.010
0.030
0.107
-0.092
0.112
0.032
-0.015
-0.033
-0.095
-0.002
0.202
0.183
-0.143
0.021
0.052
-0.075
0.070
0.031
0.059
0.019
0.120
0.015
0.168
0.212
0.078
0.080
-0.033
0.004
0.058
-0.054
0.200
-0.036
-0.115
0.010
0.138
0.079
0.046
-0.040
-0.265
-0.131
-0.042
0.097
-0.439
-1.077
-0.185
0.442
0.484
0.406
0.118
-0.105
-0.102
0.003
-0.085
0.066
0.193
0.241
0.305
0.397
0.107
0.166
0.155
0.074
-0.031
-0.035
0.015
-0.077
-0.033
-0.020
-0.170
0.041
-0.053
-0.103
-0.128
-0.133
0.063
0.147
0.058
0.034
0.010
0.029
-0.004
-0.038
-0.081
0.023
-0.057
0.045
-0.092
-0.039
-0.072
-0.039
0.104
0.147
0.016
-0.025
-0.111
0.124
0.080
0.023
-0.017
-0.014
0.154
-0.022
0.010
0.155
-0.016
-0.057
0.019
0.089
-0.104
0.250
0.122
0.067
-0.116
-0.004
0.056
0.137
0.011
0.041
0.144
0.053
-0.021
-0.034
0.088
-0.037
0.043
0.055
0.010
-0.004
0.089
0.088
-0.040
0.079
0.060
0.126
-0.022
-0.028
-0.058
0.094
0.027
-0.016
0.045
-0.021
0.097
-0.031
0.080
-0.080
0.060
0.053
0.022
-0.021
0.185
-0.068
0.053
0.163
-0.242
-0.055
0.192
0.103
0.158
-0.087
-0.277
-0.112
0.123
0.123
0.293
0.213
-0.157
-0.077
-0.042
0.029
-0.007
0.079
0.015
0.027
0.059
0.069
0.118
-0.015
0.110
-0.076
0.033
-0.051
0.051
-0.013
0.065
0.001
0.043
0.039
0.132
0.051
0.029
0.035
0.021
0.020
-0.030
0.126
0.052
-0.011
-0.095
-0.043
-0.050
-0.036
-0.136
0.063
0.133
0.228
-0.174
-0.256
0.068
0.166
0.141
0.006
-0.023
0.023
0.167
0.159
0.167
0.184
-0.248
-0.451
-0.230
0.010
0.292
0.433
0.401
-0.042
-0.099
-0.093
-0.322
-0.457
-0.389
0.013
0.405
0.320
0.159
-0.015
-0.096
-0.123
-0.101
-0.018
0.084
0.108
0.111
0.037
0.173
0.154
0.122
0.107
0.015
0.076
0.075
0.009
-0.183
0.025
-0.045
0.147
-0.065
0.028
0.039
0.084
-0.069
0.002
0.047
0.001
0.068
-0.030
-0.087
-0.036
0.058
0.061
0.079
0.009
0.035
0.050
0.017
-0.130
0.020
-0.056
-0.046
0.004
0.076
0.102
-0.007
-0.017
0.096
-0.088
0.095
-0.001
0.076
-0.114
-0.023
0.047
0.070
0.092
0.008
-0.122
0.052
0.034
0.187
-0.002
0.114
0.078
0.109
-0.334
-0.360
0.061
0.130
0.345
0.335
0.171
-0.193
-0.745
-0.229
0.451
0.157
0.206
-0.232
0.046
0.118
-0.144
0.143
-0.086
0.178
0.029
0.173
0.177
-0.235
-0.393
-0.012
0.368
0.269
-0.150
-0.045
0.341
0.129
-0.353
-0.196
0.053
0.062
0.198
0.269
0.267
-0.042
-0.453
-0.390
-0.045
0.057
0.289
0.314
0.080
-0.012
-0.081
-0.096
0.095
-0.028
-0.073
-0.254
-0.025
0.142
0.175
0.196
0.058
0.016
-0.119
-0.058
-0.134
0.153
0.203
0.018
-0.008
-0.094
-0.016
-0.053
0.051
0.359
0.295
0.151
-0.149
-0.443
0.019
0.238
0.261
0.168
0.008
0.090
-0.057
0.013
0.152
-0.004
-0.606
-1.152
0.242
0.373
0.592
0.413
-0.043
-0.145
-0.175
-0.493
-0.089
0.324
0.329
0.214
0.114
0.245
0.146
0.176
-0.318
-0.925
-0.050
0.535
0.634
0.043
-0.160
-0.233
-0.118
-0.124
-0.019
0.089
0.118
0.205
0.176
-0.107
0.031
0.091
0.092
-0.209
-0.028
-0.119
-0.073
-0.268
0.021
-0.153
0.034
-0.002
0.025
0.032
0.113
0.127
0.143
0.020
0.221
0.192
0.115
0.093
-0.128
0.089
0.152
-0.020
-0.011
-0.087
-0.087
-0.080
0.038
-0.070
0.043
-0.018
-0.009
0.064
-0.034
0.076
0.018
0.076
0.128
-0.052
0.023
0.096
-0.122
-0.199
-0.026
0.223
0.406
0.208
0.092
-0.003
0.036
0.023
0.042
0.129
0.133
0.107
-0.064
0.083
0.006
-0.060
0.108
0.115
-0.054
-0.105
-0.010
-0.071
0.043
-0.048
-0.037
0.005
-0.012
0.057
0.095
-0.015
0.081
0.191
-0.078
0.016
0.075
0.115
0.017
0.000
-0.101
0.185
0.054
0.072
0.029
0.146
0.044
0.078
0.001
-0.081
0.114
0.123
0.114
0.052
-0.091
-0.090
0.006
0.024
-0.021
0.119
-0.043
-0.066
0.029
0.044
0.113
-0.097
0.114
-0.089
0.098
-0.094
-0.043
-0.009
0.122
-0.084
-0.139
0.042
-0.016
0.035
-0.086
0.018
-0.015
-0.145
-0.562
-2.036
-3.154
0.558
2.349
2.027
1.180
-0.234
-1.231
-0.746
-0.414
0.137
0.486
0.875
1.052
1.066
1.016
0.658
0.450
0.316
-0.165
-0.558
-0.465
-0.256
-0.231
-0.286
-0.386
-0.460
-0.328
-0.291
-0.223
-0.105
0.043
0.187
0.088
-0.410
-0.100
0.236
0.401
0.326
0.209
0.105
0.030
0.007
0.028
0.096
-0.008
-0.036
0.077
0.126
0.168
0.243
0.173
0.169
0.015
0.100
-0.006
0.285
0.321
0.262
0.107
0.108
0.168
0.130
0.139
0.187
0.057
0.193
0.073
0.075
0.066
0.210
0.009
0.041
0.163
-0.097
0.045
-0.030
-0.144
0.003
0.017
-0.001
0.094
-0.140
-0.042
0.039
-0.091
0.035
0.042
-0.058
0.042
0.147
0.108
0.153
-0.206
-0.145
-0.310
-0.369
-0.350
0.472
0.649
0.366
0.119
-0.070
-0.078
-0.112
0.139
0.055
-0.066
0.136
-0.048
-0.593
0.041
0.149
-0.127
-0.988
-0.522
0.101
0.674
-0.048
-0.513
-0.488
-0.094
0.136
0.238
0.264
0.584
0.549
0.326
0.273
0.317
0.193
0.191
0.214
0.041
0.116
-0.024
0.068
-0.026
-0.310
-0.113
-0.146
-0.071
-0.056
-0.159
-0.113
-0.182
-0.225
-0.071
-0.150
-0.118
-0.022
0.090
-0.111
-0.076
-0.120
-0.024
-0.041
0.034
-0.007
0.193
0.033
0.071
0.145
0.194
0.174
0.151
0.081
0.269
0.038
0.130
0.040
0.069
-0.000
-0.443
-0.426
-0.060
0.303
0.300
0.315
0.263
-0.016
-0.655
-0.178
0.140
0.334
0.300
0.355
0.278
0.093
0.129
0.183
0.294
0.165
0.210
0.013
-0.016
-0.116
-0.133
0.055
-0.099
0.002
-0.151
-0.217
-0.057
-0.058
-0.207
-0.062
-0.267
-0.093
-0.152
-0.156
-0.083
-0.093
-0.052
0.093
0.065
-0.033
0.179
0.026
0.153
0.147
0.073
-0.004
0.280
0.121
0.073
0.097
0.066
0.064
0.182
0.018
0.021
0.106
-0.066
0.032
-0.011
0.070
0.001
0.044
0.082
0.053
0.082
0.065
0.052
0.059
0.059
0.032
0.100
0.095
-0.087
0.013
0.149
-0.010
-0.097
0.044
0.240
0.054
0.005
-0.007
-0.005
-0.009
0.030
-0.024
0.034
-0.008
-0.011
0.089
0.012
-0.071
0.024
0.059
-0.035
0.103
-0.051
0.044
-0.023
-0.007
0.002
0.062
0.037
-0.087
-0.005
-0.029
0.096
0.024
-0.051
0.071
0.078
-0.016
0.139
0.000
-0.036
-0.042
0.069
-0.069
0.004
0.066
0.097
-0.002
0.024
0.034
-0.036
0.093
-0.022
0.069
0.103
-0.058
-0.004
0.005
0.055
-0.008
-0.005
-0.002
0.051
0.129
-0.046
0.060
0.009
0.054
-0.071
-0.052
-0.023
0.026
0.022
0.006
-0.112
0.170
0.018
0.008
0.017
0.117
-0.025
-0.021
-0.056
0.076
0.017
0.082
0.012
0.043
0.019
0.052
-0.081
0.110
0.088
0.101
-0.021
-0.121
0.032
-0.050
0.068
-0.031
0.045
0.113
0.002
0.187
-0.144
0.043
0.002
-0.011
0.032
0.103
-0.015
0.004
0.138
-0.045
-0.026
0.061
0.146
-0.081
-0.026
0.028
0.045
0.007
0.101
0.102
0.055
0.043
-0.169
0.088
0.157
0.064
0.089
-0.018
-0.071
0.018
0.047
0.037
0.165
-0.119
-0.038
-0.001
0.009
-0.046
0.018
0.069
-0.062
0.039
0.059
-0.035
-0.070
-0.038
0.037
0.010
-0.006
-0.007
-0.066
0.018
-0.061
0.109
0.083
0.003
0.016
-0.065
-0.101
-0.086
-0.020
0.154
-0.075
0.053
0.048
0.109
-0.001
-0.096
0.039
-0.018
0.088
-0.013
0.137
0.029
0.131
0.072
-0.104
-0.113
-0.011
0.031
0.049
0.060
0.081
-0.065
-0.027
0.047
0.133
0.022
0.081
-0.054
0.048
0.093
-0.130
0.042
-0.014
0.078
0.033
-0.100
-0.113
-0.015
-0.014
0.095
-0.120
0.127
0.034
0.118
-0.035
-0.045
0.132
0.060
0.042
-0.075
0.072
0.153
0.017
-0.020
0.062
0.025
-0.006
-0.081
0.118
-0.062
0.060
0.052
-0.013
0.110
-0.014
0.020
-0.031
0.006
0.089
0.003
0.031
-0.077
0.111
-0.139
-0.044
0.137
0.038
0.045
-0.083
0.026
0.051
0.042
-0.004
-0.005
0.058
0.054
-0.084
0.024
0.024
-0.022
0.035
0.122
0.026
0.076
-0.009
-0.057
-0.005
0.074
0.149
-0.041
0.042
0.048
-0.125
-0.039
0.135
-0.069
-0.083
-0.060
-0.266
-0.161
-0.042
0.118
0.351
0.434
0.199
-0.029
-0.125
-0.147
0.132
0.119
0.140
0.162
0.209
0.146
0.073
0.186
-0.028
-0.067
-0.149
-0.110
-0.138
-0.038
-0.100
-0.129
-0.126
-0.040
0.050
0.024
-0.051
-0.019
-0.013
0.148
-0.002
0.013
0.004
0.028
0.031
-0.084
0.082
0.050
0.101
-0.040
-0.060
0.168
0.127
0.094
-0.027
0.093
-0.007
0.020
0.110
0.003
0.057
0.040
0.144
0.015
-0.027
0.103
0.028
0.050
0.127
0.006
-0.133
0.018
0.142
-0.038
-0.184
0.087
0.033
0.045
0.120
-0.052
0.025
0.003
-0.031
-0.115
0.053
0.045
0.031
-0.042
-0.011
0.039
0.056
0.066
0.119
-0.076
0.118
0.047
-0.040
-0.029
-0.047
0.072
0.048
0.130
-0.022
-0.089
-0.053
0.159
0.074
-1.726
-0.415
1.028
1.009
0.007
-0.178
0.073
0.101
-0.734
-0.226
0.337
0.583
0.410
-0.054
0.216
0.307
0.289
0.249
0.189
0.117
0.042
-0.113
0.044
0.035
-0.028
0.059
-0.049
-0.072
0.106
0.077
-0.203
-0.214
-0.151
-0.096
0.040
-0.166
0.057
-0.049
0.103
-0.085
-0.018
0.071
0.016
0.060
0.051
0.160
-0.041
-0.074
-2.029
-1.295
0.347
1.266
1.237
0.785
-0.101
-0.348
-0.250
-0.106
-0.014
0.270
0.506
0.586
0.540
0.342
0.398
0.196
0.135
-0.123
-0.069
-0.215
-0.179
-0.233
-0.399
-0.119
-0.112
-0.093
-0.092
-0.045
-0.049
0.103
0.062
-0.117
0.120
0.024
0.063
0.009
0.002
-0.102
0.082
0.013
0.004
-0.037
-0.048
-0.126
0.067
-0.035
0.021
-0.311
-0.922
-1.088
0.049
0.709
0.671
0.406
0.060
-0.087
-0.088
-0.064
0.052
0.134
0.324
0.429
0.346
0.454
0.203
0.294
0.195
-0.005
0.120
-0.066
-0.291
-0.158
-0.226
-0.077
-0.029
-0.055
-0.142
-0.026
0.033
-0.246
-0.068
0.058
0.146
0.246
0.290
0.098
-0.024
0.013
0.003
-0.213
-0.122
-0.164
-0.063
0.005
0.094
0.154
0.172
0.074
-0.074
-0.026
-0.099
-0.041
0.010
0.138
0.138
0.056
0.110
0.195
0.244
0.153
0.135
0.062
0.087
0.063
-0.067
0.013
0.031
0.002
0.024
0.101
0.055
0.087
0.017
-0.038
0.109
0.056
0.023
0.034
0.041
0.041
0.054
0.045
0.046
0.024
0.045
-0.051
-0.088
-0.008
0.164
0.027
-0.054
0.044
0.020
0.114
-0.035
0.020
-0.008
-0.074
-0.039
0.032
0.075
-0.082
0.023
0.041
0.205
0.082
0.067
-0.109
0.101
-0.011
-0.079
-0.013
0.044
0.067
0.055
-0.023
0.093
-0.018
-0.199
-0.002
-0.033
0.000
-0.054
0.033
0.163
0.091
-0.109
-0.050
-0.023
0.112
0.067
0.176
0.059
0.028
-0.040
0.135
0.108
-0.079
0.010
0.084
-0.006
0.053
-0.109
-0.014
0.133
0.023
-0.020
0.005
-0.015
0.012
0.095
0.055
-0.197
-0.136
-0.025
-0.439
-0.355
0.129
0.383
0.226
0.250
0.209
0.086
0.029
-0.025
-0.068
0.085
0.025
-0.232
-0.190
0.200
0.217
0.204
-0.010
-0.017
-0.020
-0.007
-0.007
-0.122
-0.075
-0.032
0.051
0.174
0.068
0.186
0.073
0.017
0.052
0.123
0.003
-0.038
0.046
-0.046
-0.128
-0.119
-0.039
0.014
-0.096
-0.065
0.012
0.067
-0.021
0.123
-0.060
0.077
0.086
0.059
0.034
0.136
-0.046
-0.069
0.106
0.241
0.144
-0.024
0.045
0.023
-0.045
0.019
-0.035
0.114
0.166
0.070
0.089
-0.030
-0.105
-0.078
0.232
0.088
-0.052
-0.056
0.066
0.056
0.011
-0.031
0.078
0.007
0.089
0.058
-0.022
-0.009
-0.019
-0.009
-0.001
0.182
0.019
0.125
-0.030
-0.011
-0.003
-0.056
0.029
-0.015
0.015
0.106
-0.032
-0.046
-0.068
0.018
0.018
-0.035
-0.023
0.051
0.052
0.095
-0.112
-0.672
-0.317
0.314
0.430
0.156
0.108
-0.026
-0.039
0.010
-0.054
0.023
0.104
0.279
0.053
0.076
0.265
0.162
0.082
-0.005
-0.045
0.012
-0.017
0.055
-0.007
-0.121
-0.050
0.079
-0.005
-0.043
-0.077
0.046
-0.011
0.063
-0.013
-0.054
-0.049
0.094
0.012
0.008
-0.006
0.014
0.079
0.027
0.039
0.032
-0.104
0.107
0.000
-0.049
0.076
-0.037
-0.012
-0.029
0.119
0.189
0.064
-0.023
-0.034
0.054
0.097
0.083
0.062
-0.038
0.045
0.043
0.122
0.012
0.059
0.005
0.027
0.089
0.077
-0.028
-0.060
-0.004
0.121
-0.012
-0.030
0.026
0.032
-0.054
0.101
0.110
-0.221
0.069
-0.047
0.104
0.074
0.080
-0.005
-0.043
-0.031
0.046
0.129
-0.053
0.084
0.015
-0.015
-0.046
0.135
-0.014
0.050
0.026
0.004
0.019
-0.026
-0.075
-0.004
0.078
0.062
0.057
-0.051
0.011
0.026
0.009
-0.060
-0.066
0.073
0.105
-0.055
-0.057
0.034
0.053
0.007
-0.008
0.005
0.052
0.051
0.093
0.215
0.046
-0.236
-0.056
0.274
0.279
-0.441
0.054
0.038
-0.175
0.065
0.230
-0.048
-0.252
-0.145
0.248
0.371
-0.039
-0.351
-0.286
0.135
0.381
0.222
0.224
0.065
-0.389
-0.203
0.029
0.135
0.223
0.188
0.168
0.024
0.003
0.131
0.157
0.086
-0.074
0.150
0.106
0.061
0.092
0.121
-0.513
-0.463
-0.358
0.093
0.348
0.194
0.085
0.129
-0.102
-0.002
-0.201
-0.055
0.086
0.062
-0.606
-0.094
0.534
0.513
0.384
0.163
0.215
-0.147
-0.490
-0.341
-0.018
0.066
0.188
0.045
0.279
0.300
-0.155
-0.245
-0.034
0.103
0.224
0.291
0.256
-0.056
-0.122
-0.617
-0.175
0.068
0.228
0.227
0.140
-0.070
-0.108
-0.130
-0.049
0.169
0.020
-0.093
0.030
0.126
-0.045
0.218
0.173
0.118
0.117
0.086
-0.144
-0.068
-0.508
-0.290
0.084
0.172
0.209
0.096
0.012
-0.201
-0.165
-0.138
-0.050
0.058
0.117
-0.009
0.163
0.164
0.198
0.068
0.098
0.058
-0.005
0.100
0.105
0.144
0.017
-0.120
-0.087
-0.034
0.029
-0.014
0.070
0.073
-0.030
0.040
0.063
-0.100
0.035
0.130
-0.059
-0.025
0.044
-0.059
-0.022
-0.031
0.111
-0.049
-0.054
-0.028
0.018
0.108
-0.058
-0.073
0.052
-0.014
0.091
0.174
0.173
-0.010
-0.042
-0.359
-0.176
0.153
0.226
0.090
0.158
-0.035
-0.163
-0.061
-0.015
0.038
0.106
-0.061
-0.029
0.123
0.056
0.032
0.152
-0.040
0.065
0.101
0.036
-0.038
0.057
0.001
-0.042
0.077
0.011
0.020
0.040
0.065
0.029
-0.030
-0.003
-0.007
0.076
0.070
-0.037
-0.031
-0.038
0.186
-0.132
-0.021
-0.045
0.147
0.095
0.047
-0.131
-0.154
0.112
0.103
-0.012
0.084
0.065
0.032
-0.030
0.079
0.024
0.037
0.079
0.040
0.221
-0.015
-0.105
0.079
0.036
-0.053
0.042
-0.015
-0.115
0.090
0.051
0.061
0.070
-0.064
0.067
-0.087
0.104
0.039
0.065
-0.050
-0.086
0.109
0.046
0.128
-0.073
-0.084
-0.047
0.114
0.115
0.045
0.052
-0.067
-0.038
0.039
0.063
0.117
0.017
-0.002
0.015
-0.077
0.014
0.033
-0.044
-0.056
0.101
0.039
-0.073
-0.075
0.084
0.095
-0.011
0.074
0.003
-0.110
0.028
-0.037
0.070
0.015
-0.056
-0.021
-0.034
-0.039
0.067
-0.027
0.076
-0.015
0.019
-0.012
0.105
0.028
-0.208
-0.042
0.048
0.129
0.023
0.103
-0.057
0.034
0.017
-0.126
-0.053
0.093
0.110
0.101
-0.066
-0.060
0.060
-0.073
-0.152
0.059
0.088
0.008
0.027
0.035
-0.044
-0.001
0.013
0.114
0.012
-0.046
-0.044
0.038
0.036
-0.087
-0.041
0.080
0.058
0.084
-0.098
0.064
-0.029
0.010
0.128
0.099
-0.051
-0.099
0.099
-0.026
0.190
-0.041
-0.044
0.046
0.018
-0.000
-0.033
0.081
0.034
-0.046
0.054
0.027
0.031
-0.091
-0.091
0.149
0.037
-0.062
0.000
0.003
-0.121
0.007
0.148
0.028
-0.046
0.035
-0.039
0.059
0.137
0.096
-0.171
-0.010
0.056
-0.009
0.014
-0.063
-0.003
0.142
-0.071
0.139
0.009
-0.170
0.110
0.100
0.030
-0.080
0.067
0.078
0.014
-0.025
0.127
-0.106
-0.007
-0.105
-0.019
0.060
0.010
0.038
0.040
-0.058
0.067
0.056
0.058
-0.074
-0.037
-0.059
0.161
0.101
0.034
-0.004
0.036
-0.027
-0.068
0.216
0.093
-0.044
-0.057
0.034
0.144
-0.055
-0.135
0.137
0.051
0.004
0.002
-0.017
0.057
-0.019
0.004
0.045
0.035
-0.052
-0.019
0.023
0.050
0.057
0.005
0.184
0.033
0.063
0.062
0.024
0.068
0.085
0.023
0.026
0.033
0.039
0.072
0.015
0.060
-0.175
0.036
0.154
-0.001
-0.020
0.018
-0.070
0.035
-0.028
0.045
0.044
0.008
0.026
-0.058
0.134
0.094
0.050
0.128
-0.039
-0.001
0.000
0.168
-0.011
0.034
-0.024
0.101
-0.053
0.071
0.002
-0.023
0.031
-0.006
0.144
0.011
0.070
0.041
-0.057
0.061
-0.055
0.080
-0.062
-0.026
0.151
-0.032
0.094
0.040
0.024
-0.007
-0.034
0.123
0.000
-0.066
0.002
0.033
0.060
0.034
0.081
-0.062
-0.098
0.053
0.074
0.123
0.024
0.015
0.025
0.042
0.010
-0.087
0.073
0.035
-0.102
-0.053
0.039
0.065
-0.025
-0.005
0.013
-0.001
0.084
0.073
0.032
0.109
-0.011
0.038
0.030
0.046
-0.072
-0.014
0.082
-0.052
0.092
-0.070
0.005
0.010
-0.005
0.016
-0.040
0.019
0.031
0.055
0.122
-0.080
0.195
0.025
-0.059
0.013
-0.006
0.070
0.106
-0.011
-0.056
0.009
0.121
0.080
0.043
-0.093
0.038
-0.021
0.083
-0.073
0.027
0.015
0.062
0.095
-0.031
-0.084
0.057
-0.052
-0.002
0.030
-0.022
0.018
-0.043
0.074
0.081
-0.026
0.003
-0.017
0.041
0.115
0.131
0.028
0.074
-0.008
0.007
-0.044
0.066
0.057
0.159
-0.070
0.014
0.043
0.058
0.026
0.007
-0.003
-0.080
0.083
0.006
0.050
0.016
0.054
0.065
-0.063
-0.011
0.047
0.119
0.046
0.015
0.024
-0.027
0.005
0.055
-0.078
0.045
0.001
-0.056
-0.012
0.023
0.117
0.040
0.047
-0.038
-0.000
-0.029
0.088
0.106
-0.026
0.058
0.057
-0.045
0.050
0.054
-0.026
0.096
0.064
0.074
-0.076
0.029
0.038
-0.083
-0.004
0.125
0.009
0.033
-0.112
-0.011
0.093
-0.037
0.035
0.001
-0.048
-0.079
0.070
0.137
0.137
-0.041
-0.041
-0.080
0.167
0.078
0.128
-0.022
-0.002
0.013
0.114
-0.067
0.041
-0.034
0.040
0.082
0.060
-0.036
-0.057
0.112
-0.090
0.118
0.111
0.004
-0.128
-0.020
-0.048
0.100
0.020
0.005
-0.003
-0.088
-0.037
0.028
0.069
0.026
-0.111
-0.033
0.038
0.106
0.035
0.054
-0.080
0.032
-0.018
0.068
0.072
0.244
0.050
-0.090
0.148
-0.051
0.035
0.014
0.102
0.052
-0.049
-0.131
0.009
-0.032
0.106
0.027
0.007
-0.008
0.042
-0.054
0.033
0.069
0.003
-0.009
0.082
-0.032
-0.043
-0.014
0.006
-0.010
0.047
0.048
0.124
0.038
-0.046
-0.128
-0.090
0.107
0.041
-0.046
0.024
0.092
-0.036
0.020
-0.087
0.033
0.069
0.117
-0.026
0.155
-0.089
-0.008
-0.024
0.191
0.023
0.045
-0.037
0.010
0.157
0.108
-0.046
0.002
-0.017
0.174
0.034
0.081
-0.024
-0.058
-0.020
0.148
-0.037
-0.037
0.081
0.049
0.056
0.076
0.100
-0.066
0.158
-0.044
-0.021
0.097
-0.009
0.007
-0.063
0.039
0.013
0.061
0.091
0.025
0.100
0.037
0.002
0.016
0.009
0.013
0.080
0.067
0.071
0.010
0.096
0.028
-0.028
0.084
0.111
-0.057
-0.023
0.055
-0.008
0.074
0.086
0.029
0.151
0.016
0.049
0.054
-0.060
0.014
0.052
0.040
0.002
-0.065
0.173
0.014
-0.015
-0.052
0.042
0.122
-0.016
0.007
0.013
0.026
0.060
0.024
-0.036
-0.037
0.061
-0.050
0.077
0.044
0.114
-0.044
0.128
-0.156
0.045
0.120
-0.045
-0.021
0.122
-0.091
0.058
-0.029
0.071
0.036
-0.050
-0.069
0.136
0.046
-0.045
0.037
0.004
0.036
-0.132
0.049
0.138
-0.013
0.066
0.068
-0.149
-0.017
0.029
0.100
-0.037
0.041
-0.076
0.054
-0.012
0.066
0.060
-0.117
0.045
0.083
0.054
-0.049
0.063
0.109
0.071
0.031
-0.044
0.040
-0.065
0.007
0.143
0.076
0.024
-0.066
-0.015
0.014
0.051
-0.022
-0.096
0.184
0.051
-0.014
0.058
0.007
-0.021
-0.053
-0.046
0.000
-0.033
0.066
0.097
-0.026
-0.008
-0.045
0.113
-0.016
0.042
-0.009
-0.040
-0.018
0.003
0.115
0.078
0.091
-0.011
-0.014
-0.027
0.036
0.096
0.031
-0.020
-0.122
0.121
0.042
0.068
-0.007
-0.139
-0.034
0.129
-0.012
0.046
-0.146
0.052
0.088
-0.057
-0.039
-0.021
0.009
0.080
-0.006
0.080
-0.012
-0.090
-0.028
0.140
0.057
-0.013
0.029
0.110
-0.039
0.002
-0.059
0.018
-0.045
0.012
0.040
0.016
0.005
0.090
-0.039
0.022
0.029
-0.006
-0.059
0.092
-0.044
0.044
-0.017
0.035
0.135
-0.061
0.038
-0.008
0.111
-0.016
0.033
-0.107
0.121
0.062
0.118
-0.044
0.116
0.066
-0.018
-0.064
0.057
0.002
-0.103
0.049
0.138
0.080
-0.150
-0.140
-0.009
-0.021
0.022
0.009
0.016
-0.029
0.046
-0.036
-0.030
0.012
0.126
0.148
0.059
0.117
0.032
0.021
0.037
0.099
0.029
0.137
0.036
0.028
0.013
-0.032
-0.014
0.063
0.040
0.000
-0.003
0.063
0.052
0.109
-0.029
0.025
-0.057
0.065
0.078
-0.030
0.049
-0.078
-0.011
0.107
-0.058
-0.011
0.093
-0.158
-0.097
0.155
-0.021
0.178
0.003
-0.020
-0.082
0.043
0.112
0.091
-0.022
-0.007
-0.040
0.065
-0.127
0.050
0.037
0.082
0.010
-0.092
0.012
0.083
0.012
0.144
0.051
0.133
0.049
-0.055
-0.029
0.047
-0.025
-0.049
0.076
0.117
0.067
0.032
-0.098
0.100
0.061
-0.041
0.033
-0.014
0.054
0.027
0.018
0.072
0.013
0.025
-0.049
0.047
0.091
0.048
0.049
-0.078
0.055
-0.007
-0.041
-0.038
0.039
0.024
0.054
0.057
-0.052
0.161
-0.015
-0.003
-0.010
0.025
-0.082
0.103
0.120
0.026
-0.011
-0.033
0.001
0.017
-0.040
0.050
0.009
0.094
-0.020
0.101
0.005
-0.042
0.047
0.055
-0.074
0.085
0.110
0.094
-0.112
-0.024
0.082
0.053
0.013
0.080
-0.023
-0.009
0.146
-0.088
0.034
0.095
0.069
-0.038
0.053
0.046
0.028
-0.011
-0.013
-0.080
0.250
0.012
-0.049
0.030
0.055
-0.017
-0.059
-0.096
0.001
0.051
0.208
0.101
0.004
-0.084
0.012
-0.071
0.050
-0.033
0.053
0.016
0.062
-0.031
0.001
-0.008
0.265
-0.013
0.067
-0.087
0.149
0.030
0.080
0.083
0.144
-0.028
0.061
0.003
0.076
0.085
-0.032
-0.077
0.039
0.108
0.046
-0.045
0.056
-0.023
0.000
-0.124
0.014
0.045
0.045
0.004
-0.060
0.041
-0.028
0.010
-0.051
0.045
0.074
0.154
0.044
-0.017
0.061
0.069
0.075
-0.040
0.047
0.122
0.206
-0.018
-0.075
0.027
0.073
0.007
0.087
0.060
0.010
0.021
0.043
0.089
0.025
0.054
-0.102
0.042
-0.129
0.061
0.133
-0.043
0.023
0.007
-0.007
0.051
0.049
-0.059
-0.034
0.005
-0.001
0.027
0.029
0.133
-0.026
-0.030
-0.041
-0.018
0.051
0.046
-0.030
0.090
0.006
0.010
0.030
-0.063
-0.028
-0.027
-0.010
0.116
0.009
0.106
0.026
0.000
-0.037
-0.055
0.023
0.195
-0.063
0.070
-0.093
0.102
0.009
0.070
-2.523
-1.728
1.283
2.045
1.354
0.452
-0.340
-0.654
-0.564
-0.406
-0.018
0.361
0.480
0.891
0.664
0.617
0.629
0.457
0.388
0.177
0.010
-0.580
-0.512
-0.024
0.148
-0.070
-0.168
-0.093
-0.275
-1.229
-0.508
0.428
0.613
0.538
-0.349
-0.175
-0.215
0.047
-0.027
0.174
0.376
0.063
-0.102
0.054
0.108
0.257
0.503
0.476
-0.210
-0.170
0.117
0.077
0.180
0.194
0.179
0.185
-0.085
0.014
-0.052
0.054
0.134
0.223
0.084
0.131
0.058
-0.062
0.193
0.092
0.070
0.076
-0.037
0.101
0.113
-0.038
0.151
0.018
0.080
-0.049
0.003
0.046
-0.077
0.014
0.082
-0.074
-0.054
-0.093
-0.088
-0.107
0.086
0.022
-0.086
0.002
-0.024
0.048
-0.042
-0.077
0.011
0.043
-0.034
-0.077
0.171
0.096
-0.256
-0.072
-0.027
0.159
0.052
0.121
0.061
0.158
0.014
-0.137
0.246
0.108
-0.507
-0.040
0.084
0.149
0.146
0.048
0.183
-0.003
-0.222
0.004
-0.003
0.052
-0.013
0.025
0.209
0.087
0.183
0.211
0.032
-0.217
-0.314
-0.133
0.120
0.341
0.198
0.088
-0.015
-0.018
-0.025
-0.076
-0.092
0.075
0.028
0.094
0.035
0.028
0.039
0.069
0.166
0.030
0.071
0.010
-0.009
0.019
0.067
-0.047
0.102
0.002
-0.008
-0.018
0.074
-0.060
0.059
0.103
0.057
0.008
0.180
0.028
-0.149
0.061
0.068
-0.028
-0.061
-0.058
0.108
0.085
0.029
0.044
0.026
0.075
-0.019
-0.025
0.032
-0.011
0.020
0.006
0.087
0.072
0.045
-0.070
0.150
0.124
0.178
0.082
0.063
-0.026
0.098
0.110
0.016
0.153
-0.932
-0.520
0.359
0.478
0.457
0.046
-0.196
-0.598
-0.453
-0.033
0.147
0.348
0.176
-0.164
0.073
0.294
0.419
0.334
0.135
-0.048
0.019
-0.221
-0.310
0.034
0.050
0.067
-0.007
0.117
-0.023
-0.033
-0.049
-0.184
-0.184
-0.038
0.030
0.141
0.131
0.118
0.004
-0.014
0.096
0.070
0.113
0.022
-0.032
0.154
0.038
-0.031
0.025
-0.090
-0.018
0.058
0.123
0.029
0.011
-0.126
-0.085
0.146
-0.043
0.040
-0.008
0.013
0.029
-0.007
-0.110
-0.028
0.045
0.059
0.066
0.044
-0.056
0.031
-0.088
0.018
0.139
-0.069
0.102
0.092
-0.002
0.115
0.160
-0.052
-0.109
-0.100
-0.014
0.006
0.061
0.057
-0.007
-0.161
0.068
-0.027
0.142
0.047
-0.039
-0.183
-0.146
0.129
0.182
0.125
0.155
0.007
-0.238
-0.407
-0.136
0.134
0.206
0.080
-0.075
-0.078
-0.056
-0.045
0.047
-0.051
-0.006
0.122
-0.050
0.111
0.043
0.028
0.062
0.114
0.112
-0.004
-0.057
-0.012
0.029
0.097
0.030
0.019
-0.008
0.027
-0.065
0.120
0.041
-0.026
0.063
-0.027
0.091
0.064
-0.018
-0.014
-0.044
0.075
0.158
0.019
0.055
0.120
0.119
-0.105
0.053
-0.062
0.011
0.051
0.075
0.042
-0.141
0.027
0.026
0.084
0.016
0.050
0.009
0.305
0.084
0.070
0.043
-0.195
-0.374
-0.115
0.174
0.208
0.139
0.087
-0.002
-0.088
0.036
0.023
-0.111
0.079
0.020
-0.090
0.047
0.169
0.094
0.206
0.118
-0.006
0.059
0.026
0.004
0.068
-0.159
0.034
-0.044
0.080
0.072
0.019
-0.059
0.099
-0.076
-0.022
0.098
0.070
0.034
-0.077
-0.034
0.007
0.103
-0.029
-0.037
0.112
-0.018
0.086
0.054
-0.030
0.008
0.004
-0.032
0.002
0.107
0.008
-0.085
0.013
0.083
-0.062
0.028
0.038
0.054
0.042
0.017
0.089
0.045
0.009
-0.010
-0.029
0.038
-0.009
-0.021
0.111
0.079
-0.061
0.050
0.047
-0.023
0.053
-0.021
0.031
0.073
0.026
0.009
0.065
-0.113
0.004
0.073
0.061
0.016
0.022
0.041
0.013
0.028
-0.028
0.037
0.008
-0.025
0.033
0.165
0.085
-0.107
-0.021
-0.027
-0.085
0.094
0.020
0.051
-0.051
0.029
0.068
0.207
-0.162
-0.105
0.025
0.123
-0.046
0.042
-0.043
0.022
-0.106
0.033
0.165
-0.081
-0.047
-0.047
0.003
-0.024
0.045
0.068
0.010
-0.084
-0.031
0.153
0.065
-0.060
-0.033
-0.015
0.036
-0.016
-0.035
0.023
-0.051
0.006
0.013
0.058
-0.016
0.149
-0.021
-0.012
-0.099
0.060
0.080
0.130
0.051
-0.009
-0.120
0.112
-0.042
-0.077
0.000
0.079
-0.001
0.000
0.132
-0.013
-0.016
0.012
0.005
0.012
0.102
-0.013
0.026
0.074
0.110
-0.048
0.082
0.040
-0.035
0.122
0.088
-0.026
-0.026
0.038
0.078
-0.062
0.059
0.046
0.006
0.046
0.055
0.003
-0.095
0.046
0.043
0.088
0.060
0.012
-0.067
0.083
0.072
-0.035
0.106
0.029
0.085
-0.100
-0.063
0.217
-0.135
0.027
0.139
0.085
-0.032
0.085
0.062
0.032
-0.024
0.045
0.022
0.049
0.030
0.140
-0.064
-0.070
0.073
0.052
0.103
-0.070
0.017
0.070
-0.061
-0.126
0.097
0.062
-0.082
0.128
0.003
0.052
-0.033
-0.100
-0.071
0.043
-0.010
-0.019
0.192
0.104
-0.028
-0.052
-0.016
-0.036
0.087
0.010
0.087
0.071
0.029
-0.039
0.083
0.047
-0.073
-0.074
0.041
0.125
0.072
-0.061
-0.011
-0.088
-0.088
0.106
0.097
0.026
-0.139
0.101
0.033
0.023
0.007
-0.064
-0.032
0.146
-0.078
0.133
-0.003
-0.012
0.008
0.079
0.009
0.054
0.026
0.007
-0.033
0.063
0.102
0.086
-0.009
-0.118
0.020
0.011
0.019
-0.009
0.082
-0.029
0.084
0.094
-0.020
0.159
-0.030
0.040
0.017
-0.029
0.045
-0.078
0.109
0.049
0.014
-0.035
0.030
-0.072
0.015
0.080
0.013
0.008
-0.005
-0.108
0.154
0.032
0.019
0.012
-0.007
0.083
0.011
-0.030
0.090
-0.116
-0.070
0.009
0.171
0.000
-0.094
-0.049
0.081
-0.016
0.039
-0.010
0.011
-0.003
-0.026
0.058
0.018
-0.017
0.090
0.099
0.015
0.012
0.097
0.041
-0.121
-0.131
0.052
0.040
0.088
0.085
-0.048
-0.067
0.044
-0.071
-0.022
-0.031
0.098
0.045
0.000
0.096
0.049
0.125
-0.006
0.011
0.144
0.014
-0.088
0.005
0.027
0.150
-0.025
-0.050
0.060
0.006
-0.022
-0.020
-0.000
0.121
0.050
-0.031
-0.071
-0.068
0.016
0.126
0.159
-0.066
0.009
-0.031
0.015
0.080
0.127
-0.053
0.005
0.074
0.054
0.050
-0.068
-0.009
0.053
0.071
0.019
0.016
-0.101
0.097
0.120
0.054
0.109
-0.038
-0.006
0.023
0.024
0.019
0.076
0.026
0.074
-0.005
-0.103
0.041
0.071
0.076
0.074
-0.042
0.023
0.093
-0.099
-0.077
0.071
0.115
0.153
-0.017
-0.071
-0.002
-0.075
0.042
-0.060
-0.065
0.067
0.146
-0.023
0.055
0.084
0.015
0.019
-0.021
0.128
0.035
-0.076
-0.064
0.049
-0.091
0.069
0.208
-0.052
-0.095
-0.044
-0.018
0.052
0.082
0.009
0.077
0.044
-0.028
-0.037
0.052
0.027
-0.030
0.077
0.135
0.083
0.082
0.083
-0.090
0.020
-0.128
0.114
0.115
0.017
0.093
-0.125
0.009
0.063
0.033
-0.001
-0.035
-0.018
0.053
0.027
0.018
-0.017
0.085
-0.093
-0.017
-0.002
0.137
0.035
-0.018
-0.090
0.045
0.115
0.079
-0.026
-0.016
-0.131
0.035
0.040
-0.011
0.108
0.029
0.062
0.167
-0.048
0.095
0.261
0.085
0.093
0.123
0.020
0.084
0.047
0.091
-0.012
0.024
-0.007
0.122
0.001
-0.151
-1.253
-0.377
0.289
0.297
0.299
0.301
0.167
-0.096
-0.201
-0.151
-0.153
0.136
0.254
0.318
0.308
0.432
0.305
0.160
0.108
-0.024
-0.104
0.083
-0.163
-0.107
-0.114
0.043
-0.003
-0.143
0.027
-0.067
0.141
0.138
-0.054
-0.031
-0.043
-0.030
0.016
0.052
0.006
0.006
0.020
0.069
0.086
-0.122
0.111
-0.040
-0.089
0.010
0.215
0.005
0.068
-2.697
-1.188
1.260
1.773
1.280
0.273
-0.323
-0.594
-0.360
-0.297
0.163
0.346
0.582
0.637
0.609
0.611
0.524
0.285
0.149
0.016
-0.086
-0.056
-0.255
-0.219
-0.317
-0.286
-0.169
-0.101
-0.107
0.003
0.037
0.008
-0.045
-0.105
0.090
0.016
0.118
-0.082
-0.017
0.085
-0.038
0.062
0.019
0.026
0.007
0.118
0.093
0.057
0.086
0.130
0.169
0.083
0.095
0.189
0.083
-0.027
0.141
0.147
0.063
0.103
0.198
0.077
0.006
0.023
-0.006
0.114
0.133
0.089
0.031
0.074
0.061
-0.003
0.068
0.014
-0.010
0.046
-0.008
0.086
0.138
0.032
0.168
0.150
0.097
0.015
0.032
0.017
0.067
0.016
-0.017
0.050
-0.038
-0.017
0.160
-0.039
-0.069
-0.078
0.067
-0.089
-0.377
-0.706
-0.820
-0.646
0.211
0.523
0.259
0.161
0.083
-0.310
-0.199
-0.019
0.052
0.213
0.169
0.201
0.479
0.359
0.257
0.238
0.173
0.051
0.072
0.075
-0.114
-0.142
-0.023
-0.099
-0.006
0.028
-0.089
0.032
-0.016
0.080
0.069
-0.002
-0.084
0.040
0.045
-0.026
0.000
0.016
-0.050
-0.010
0.101
-0.005
-0.015
0.035
-0.027
0.035
0.041
0.058
-0.096
0.008
0.156
0.177
0.100
0.048
0.199
0.194
-0.056
-0.063
0.110
0.158
0.086
0.130
0.122
0.050
0.034
0.096
0.072
-0.191
-1.684
-0.744
0.357
0.730
0.447
0.212
-0.138
-0.142
-0.146
-0.021
0.023
0.154
0.282
0.455
0.221
0.400
0.189
0.267
0.102
0.155
0.025
0.077
-0.110
-0.053
-0.223
-0.025
-0.117
-0.118
0.035
-0.016
-0.096
-0.138
0.044
0.057
-0.041
-0.007
-0.051
-0.030
0.036
0.051
0.017
-0.057
-0.029
-0.079
0.025
0.075
-0.021
-0.057
-0.073
0.075
0.052
-0.047
-0.110
-0.099
0.063
0.073
0.039
-0.064
-0.022
0.034
-0.044
0.005
0.089
-0.046
0.018
0.059
0.116
-0.039
0.011
0.014
0.075
-0.005
-0.008
0.147
0.143
-0.011
-0.114
0.060
0.118
0.018
0.137
0.107
0.025
0.119
0.049
-0.034
0.014
-0.067
0.132
0.020
-0.008
-0.104
-0.001
0.047
-0.037
-0.014
0.086
-0.098
-0.015
-0.062
0.019
0.038
0.074
0.104
-0.010
0.100
0.073
-0.072
0.043
0.098
0.057
0.030
-0.046
-0.058
0.097
-0.014
0.066
0.029
-0.055
0.109
-0.052
-0.043
0.069
0.126
0.097
0.021
0.023
0.011
0.055
0.113
-0.009
0.017
0.084
0.092
0.053
-0.101
0.019
-0.048
0.045
0.017
-0.003
0.048
-0.029
-0.034
0.015
0.124
0.009
0.002
0.046
0.103
0.077
-0.121
-0.028
0.018
0.189
-0.056
0.031
0.107
0.037
-0.015
-0.025
-0.019
-0.043
0.107
0.127
0.120
0.045
-0.054
-0.035
0.000
0.115
-0.068
0.033
0.045
-0.021
0.029
0.212
-0.014
-0.093
-0.010
0.154
-0.040
-0.036
0.109
0.018
-0.053
0.069
0.022
0.134
0.039
-0.075
0.035
0.141
0.092
0.022
-0.077
0.023
-0.021
0.163
0.080
0.096
-0.048
-0.053
0.042
0.039
0.143
-0.051
0.081
-0.024
-0.064
0.011
0.134
0.042
0.042
-0.089
0.075
0.035
-0.006
0.031
-0.002
0.026
0.072
-0.048
0.092
0.048
0.095
0.036
0.130
-0.094
-0.035
0.052
0.038
-0.070
0.034
0.095
-0.008
0.024
0.054
0.013
0.073
0.105
0.061
-0.031
0.103
-0.018
-0.062
0.126
0.083
-0.114
0.074
0.052
0.114
-0.053
0.092
0.179
-0.072
-0.039
-0.075
0.008
0.069
0.035
0.089
-0.013
0.227
0.105
0.023
-0.418
-0.127
-0.052
0.149
0.197
-0.029
0.076
0.192
-0.173
-0.292
-0.058
0.146
0.180
0.128
0.033
0.018
0.053
0.083
0.073
-0.020
0.080
0.027
0.020
0.061
0.135
-0.023
0.035
-0.029
-0.061
-0.033
-0.003
0.078
-0.014
0.049
0.001
-0.016
0.009
0.044
0.057
-0.031
0.017
0.024
0.024
0.071
0.059
0.014
-0.018
-0.095
0.138
-0.001
0.056
-0.035
0.030
-0.066
0.027
-0.074
-0.009
0.014
0.174
0.022
-0.042
-0.050
0.015
0.054
0.114
-0.095
0.065
-0.028
0.094
-0.075
0.082
-0.029
0.046
0.063
-0.117
0.096
0.040
0.180
-0.109
-0.031
-0.060
0.154
0.030
0.055
-0.125
0.083
0.345
0.149
0.150
-0.057
0.018
0.099
-0.069
0.082
-0.655
-0.710
0.013
0.402
0.455
0.216
-0.088
-0.093
-0.163
-0.191
-0.112
0.055
-0.061
0.065
0.248
0.237
0.085
0.185
0.283
-0.013
0.083
-0.101
-0.124
0.012
0.046
0.019
0.065
-0.015
-0.056
-0.076
-0.002
0.051
-0.037
0.118
0.062
-0.012
-0.050
0.133
-0.068
-0.038
0.088
0.008
-0.013
0.012
0.082
-0.083
0.018
-0.124
0.042
-0.011
0.177
0.259
-0.105
-0.294
-0.181
0.135
0.092
0.051
0.034
0.082
0.005
0.007
0.065
0.099
-0.049
-0.072
0.223
0.039
0.032
0.028
-0.081
0.004
0.075
0.068
0.084
0.049
0.012
-0.024
0.038
0.013
-0.022
-0.001
0.048
-0.013
0.002
0.075
0.058
0.028
0.101
0.123
-0.033
0.079
-0.103
0.007
0.048
-0.019
0.168
-0.043
-0.014
-0.033
0.022
0.052
-0.037
0.006
0.113
-0.077
0.046
0.064
0.085
-0.105
0.047
0.005
0.040
0.004
0.107
0.071
0.034
0.021
-0.053
-0.022
0.046
0.113
-0.020
0.010
0.002
0.077
0.017
-0.022
-0.036
-0.043
0.079
0.094
0.045
-0.031
-0.094
0.022
0.040
0.076
-0.009
0.095
0.100
-0.038
-0.067
0.110
0.077
0.003
-0.024
-0.071
0.037
0.039
0.031
0.073
-0.038
0.017
0.011
0.056
0.057
0.032
-0.033
0.090
-0.171
0.137
0.157
-0.016
0.049
0.034
-0.006
-0.030
0.204
0.113
-0.135
-0.106
0.047
-0.014
-0.011
0.132
0.025
-0.074
-0.030
0.169
-0.003
-0.079
-0.014
0.102
0.120
-0.061
0.031
0.031
0.087
0.086
-0.020
-0.051
0.025
-0.011
0.015
0.048
0.104
0.022
-0.025
0.097
0.165
0.047
-0.061
0.081
-0.005
0.018
0.082
0.072
-0.031
0.040
-0.014
-0.074
0.170
-0.048
0.129
-0.031
-0.047
0.057
0.042
0.008
-0.174
0.071
-0.039
0.069
0.045
0.102
-0.056
-0.071
0.033
-0.009
0.021
0.070
0.091
-0.007
0.046
0.020
-0.037
0.005
0.034
0.095
0.005
0.059
-0.061
-0.068
0.012
-0.017
0.126
0.003
0.048
-0.043
-0.090
0.075
-0.036
-0.011
0.010
0.066
0.050
0.084
-0.074
-0.047
0.057
-0.154
0.018
-0.015
0.009
-0.035
0.195
0.024
0.010
0.040
-0.051
-0.015
0.016
-0.007
0.021
0.052
-0.090
0.062
0.038
0.031
-0.000
-0.012
0.001
0.078
0.038
0.093
-0.029
0.045
-0.012
-0.006
0.176
-0.013
-0.010
-0.025
-0.007
0.062
-0.058
0.043
0.010
0.014
-0.070
-0.059
0.058
0.077
0.015
0.012
-0.011
0.096
0.005
0.047
-0.076
0.002
-0.018
0.084
-0.077
0.023
0.040
0.074
0.026
0.041
-0.031
0.082
0.036
0.070
-0.136
-0.060
0.084
0.042
0.093
0.010
0.067
0.112
0.022
-0.139
0.004
0.121
0.044
0.064
-0.055
-0.053
-0.000
0.053
-0.133
0.032
0.063
0.070
0.009
-0.022
0.075
0.021
-0.103
-0.011
0.053
-0.016
0.031
0.055
-0.021
0.070
0.043
-0.075
-0.006
0.047
0.034
0.115
-0.020
-0.041
0.015
0.059
-0.008
0.057
0.025
0.090
0.047
0.024
-0.020
-0.114
0.017
0.002
0.077
-0.029
0.074
0.035
0.036
0.032
-0.002
0.086
-0.044
-0.137
0.109
-0.066
0.075
0.151
-0.073
-0.031
0.055
0.144
0.097
0.050
0.034
-0.043
0.050
0.096
0.083
0.078
0.000
-0.066
0.018
0.084
0.024
-0.088
0.067
0.059
-0.095
-0.030
0.117
0.074
-0.102
0.112
-0.006
0.030
0.039
0.100
-0.025
0.047
-0.034
-0.087
0.016
0.096
0.092
0.000
0.055
-0.007
0.192
-0.017
-0.086
0.019
0.074
0.120
0.018
0.007
0.008
0.020
0.010
0.075
0.020
0.046
0.056
0.098
0.123
-0.118
-0.104
0.027
0.122
-0.027
0.079
-0.003
0.038
0.025
-0.034
-0.046
0.049
-0.005
0.016
0.139
-0.017
0.008
0.055
0.004
0.013
0.028
-0.019
0.100
-0.038
-0.073
0.046
-0.022
0.067
-0.020
-0.098
-0.015
0.112
-0.002
0.039
0.023
-0.004
0.077
-0.008
0.081
0.065
0.111
-0.029
0.044
-0.004
-0.070
0.003
-0.051
0.022
0.140
-0.012
0.081
0.014
-0.011
0.043
-0.055
0.039
0.073
-0.043
-0.012
0.060
0.043
-0.044
0.054
0.050
-0.013
-0.061
0.010
0.005
0.063
0.052
0.060
0.003
0.067
-0.019
-0.005
0.059
0.064
-0.036
-0.047
0.040
0.078
-0.071
-0.039
-0.101
0.083
0.083
0.085
-0.003
0.036
0.005
-0.060
0.046
0.148
-0.043
0.001
-0.144
0.069
0.120
0.060
0.091
-0.077
0.058
-0.074
0.080
0.068
0.045
-0.082
0.049
0.057
0.041
0.047
-0.119
0.077
-0.010
0.082
0.107
-0.002
0.029
0.034
-0.049
-0.018
0.035
-0.024
0.004
-0.012
0.110
0.088
0.004
0.045
0.015
-0.036
0.056
0.028
-0.033
0.088
0.064
-0.060
0.084
0.033
0.005
0.016
0.052
-0.014
-0.105
-0.106
0.065
0.079
0.141
-0.018
0.012
0.030
0.083
-0.082
0.209
0.048
-0.035
-0.030
-0.043
0.008
0.064
0.042
-0.005
-0.079
-0.009
0.036
0.067
-0.001
-0.061
0.052
-0.001
-0.079
0.161
0.054
0.101
-0.048
-0.023
0.023
0.114
0.018
0.093
0.055
-0.038
-0.068
0.015
0.248
-0.077
-0.040
0.091
0.099
0.012
-0.014
0.097
-0.079
0.070
-0.042
0.148
-0.018
-0.054
0.003
0.112
0.088
0.148
-0.002
-0.053
-0.062
-0.051
-0.012
-0.007
0.059
-0.023
0.128
0.025
0.030
0.034
0.096
-0.001
-0.014
-0.038
0.053
0.015
-0.005
0.090
0.007
-0.039
0.046
0.036
0.070
-0.048
0.030
0.003
0.004
0.019
-0.038
0.074
0.159
0.098
-0.037
-0.079
-0.004
0.005
0.148
0.147
-0.034
0.105
0.073
-0.042
-0.070
0.105
-0.009
-0.045
-0.020
-0.065
0.086
-0.109
-0.092
0.074
0.035
-0.004
0.037
-0.109
-0.068
0.106
0.036
-0.013
-0.002
-0.004
0.017
-0.001
-0.089
-0.022
0.036
0.014
-0.025
0.062
0.089
0.070
-0.039
-0.004
0.045
-0.088
0.071
0.090
-0.007
-0.081
0.049
-0.028
0.023
-0.080
0.016
-0.081
0.125
0.078
0.046
-0.024
0.040
-0.049
0.001
-0.097
0.105
0.038
0.065
0.038
0.004
-0.044
-0.057
0.006
-0.022
0.017
-0.088
0.055
-0.026
0.019
-0.113
0.109
-0.008
0.094
-0.141
0.040
0.005
-0.017
0.072
0.041
-0.084
-0.055
0.045
0.048
0.242
0.040
-0.020
-0.002
-0.061
-0.032
0.013
0.218
0.068
-0.086
-0.105
0.061
0.124
0.081
0.107
-0.036
-0.035
0.033
0.029
-0.031
0.047
0.036
0.183
0.074
-0.015
-0.197
0.032
0.094
-0.000
0.031
-0.003
-0.071
-0.028
0.125
0.013
-0.004
0.017
0.023
0.012
-0.039
0.019
0.068
0.071
-0.110
-0.018
0.145
0.058
0.002
0.058
-0.010
-0.031
0.002
0.006
0.043
0.102
0.019
0.083
-0.038
0.033
0.120
-0.047
0.031
0.022
-0.041
0.021
0.054
0.065
0.097
-0.025
-0.037
0.050
0.108
-0.066
0.050
0.073
0.171
-0.045
-0.006
0.032
-0.058
0.070
-0.021
0.026
0.095
-0.031
0.001
0.001
0.115
-0.031
0.030
-0.004
-0.138
0.044
-0.021
0.068
0.034
0.012
-0.025
0.050
0.078
-0.047
-0.017
0.125
0.152
0.007
0.014
0.129
-0.001
0.025
-0.068
0.068
-0.043
-0.028
-0.029
0.053
0.069
0.051
0.089
-0.083
-0.012
0.049
-0.090
0.119
0.025
0.118
-0.052
0.020
0.042
0.004
-0.056
0.075
-0.053
0.068
0.081
-0.139
0.082
0.050
0.022
0.098
0.063
-0.071
0.072
-0.015
-0.000
-0.020
0.040
0.176
-0.000
0.065
-0.053
-0.073
-0.051
0.117
0.078
0.097
-0.033
-0.054
-0.036
0.135
-0.045
0.098
-0.158
0.047
0.082
0.035
0.026
0.023
-0.065
0.044
0.046
0.061
-0.035
0.108
-0.022
-0.171
0.060
0.062
-0.018
0.125
0.060
-0.047
-0.053
0.025
0.012
-0.023
0.020
0.015
0.129
-0.015
-0.019
0.064
0.026
0.028
-0.051
0.021
0.051
0.051
-0.032
0.013
0.079
-0.050
0.054
0.014
0.015
0.047
0.085
-0.034
0.117
-0.036
-0.041
0.051
-0.020
-0.062
-0.020
0.081
0.134
-0.041
-0.043
0.039
0.043
-0.019
-0.029
0.069
-0.049
0.071
0.045
0.040
0.113
0.006
-0.110
0.017
-0.018
0.050
0.133
0.012
0.002
0.046
0.019
-0.011
0.016
0.086
-0.152
0.152
-0.039
0.057
0.092
0.079
0.015
0.189
-0.067
-0.049
0.143
-0.109
0.123
0.093
0.127
0.021
0.051
-0.076
-0.019
-0.026
0.022
0.023
0.023
-0.022
0.141
0.023
-0.009
0.029
-0.052
-0.086
0.011
0.207
0.012
0.023
-0.038
0.098
-0.033
0.118
0.008
0.035
-0.051
0.000
0.058
-0.033
0.106
0.047
0.059
0.034
0.026
-0.047
0.058
0.104
-0.088
0.087
0.054
0.133
-0.149
-0.028
-0.006
0.126
0.024
-0.026
-0.013
-0.035
0.005
0.106
0.094
-0.036
0.021
0.077
0.107
0.086
-0.087
0.030
-0.052
0.025
0.036
0.031
-0.009
0.069
0.040
0.011
-0.029
0.003
-0.081
0.092
0.193
0.056
-0.097
0.039
-0.014
0.090
-0.121
0.123
-0.013
0.078
-0.055
0.083
-0.114
-0.000
0.179
-0.035
0.019
0.108
-0.040
0.041
0.019
0.146
-0.022
-0.026
0.066
0.140
0.078
-0.166
-0.023
0.049
0.108
0.047
0.144
-0.058
-0.117
0.027
0.097
0.070
0.035
0.060
0.052
0.035
-0.057
0.075
0.008
0.069
-0.064
-0.039
0.210
0.028
0.016
0.015
0.043
0.011
0.069
-0.065
0.059
-0.044
0.023
0.012
0.073
0.095
-0.047
0.091
0.134
0.072
-0.007
0.068
-0.074
0.023
-0.053
0.062
-0.070
-0.002
0.016
0.077
0.085
-0.002
0.035
-0.051
-0.049
0.024
0.063
0.089
-0.009
0.020
-0.002
0.039
0.027
0.046
0.007
-0.090
0.012
0.065
0.064
0.010
0.073
-0.024
-0.022
0.074
-0.003
-0.025
-0.013
0.022
-0.020
0.107
-0.022
0.047
0.009
-0.047
0.042
0.089
0.046
0.028
-0.080
-0.059
0.044
0.100
0.153
0.053
-0.054
-0.029
0.017
-0.091
0.018
0.044
-0.002
0.134
0.006
0.069
-0.051
-0.068
0.071
0.070
0.078
-0.073
0.111
0.051
-0.239
-0.150
0.043
0.270
0.182
0.188
-0.277
-0.126
0.127
0.040
-0.206
-0.169
0.069
0.028
0.147
0.048
0.069
-0.091
0.022
0.019
0.082
0.072
0.053
-0.116
0.113
0.124
-0.002
0.065
0.102
0.027
0.093
0.004
-0.117
-0.007
0.040
0.073
-0.008
-0.087
-0.045
0.102
0.087
0.047
-0.042
0.005
0.086
0.014
0.099
-0.093
-0.118
0.064
0.125
-0.098
-0.030
0.101
0.020
0.063
-0.046
0.050
-0.087
0.134
0.054
0.154
0.006
-0.046
0.019
0.030
0.107
0.002
0.090
-0.069
0.018
0.008
0.113
0.016
-0.025
-0.023
0.049
0.129
0.003
0.037
-0.064
0.060
0.047
0.080
-0.047
0.021
0.047
0.119
0.005
0.096
0.119
-0.000
-0.140
-0.029
0.124
0.029
-0.026
0.078
-0.029
0.010
0.060
0.080
0.066
-0.048
0.172
-0.066
0.086
0.011
-0.018
0.072
0.018
-0.027
-0.026
0.033
-0.014
0.071
0.004
-0.027
0.041
-0.031
0.019
0.126
0.073
-0.035
0.020
-0.049
0.061
0.009
0.081
0.090
-0.076
-0.012
0.138
-0.015
0.070
-0.006
-0.007
0.039
0.304
-0.197
-0.063
-0.061
0.265
-0.161
-0.072
0.338
0.256
0.090
0.032
-0.092
-0.670
-0.232
0.137
0.391
0.100
0.026
-0.043
-0.174
-0.023
-0.003
-0.020
0.054
0.079
0.183
-0.090
0.071
0.008
0.151
-0.051
0.084
0.063
-0.018
0.145
-0.042
0.026
-0.055
-0.015
0.041
0.013
0.083
-0.001
-0.056
-0.011
0.099
-0.014
0.147
-0.017
0.066
0.089
-0.133
0.048
0.024
0.016
0.058
0.012
-0.048
0.009
-0.049
0.026
0.129
0.056
-0.063
-0.045
0.077
0.120
0.042
-0.119
0.018
0.132
0.036
0.014
0.033
0.143
0.029
0.081
0.007
-0.067
0.004
0.105
0.008
-0.060
0.072
-0.102
0.078
0.002
-0.027
0.041
-0.031
0.009
-0.009
-0.014
0.179
0.040
-0.007
0.006
0.047
0.112
-0.155
-0.002
0.132
-0.053
0.007
0.114
-0.128
0.088
0.068
0.008
0.051
0.078
-0.008
0.012
-0.029
-0.003
0.191
0.030
-0.037
0.048
0.094
0.020
-0.090
0.045
0.049
0.003
0.022
0.003
-0.089
0.049
0.000
0.066
0.054
-0.040
0.018
0.012
-0.094
0.058
0.112
0.044
0.101
-0.093
0.087
-0.139
0.062
0.055
0.034
0.021
-0.120
0.055
0.018
0.022
0.019
0.016
0.050
0.015
-0.048
0.109
0.100
0.105
0.023
-0.008
0.020
-0.039
0.147
-0.002
-0.025
-0.013
0.053
0.104
-0.046
0.011
0.104
-0.048
0.041
-0.031
-0.017
0.069
0.028
-0.029
0.080
0.008
0.091
-0.047
0.011
0.084
-0.015
0.011
-0.016
0.127
0.013
-0.021
0.117
-0.055
-0.094
0.052
-0.031
0.149
0.049
-0.184
0.049
0.005
0.075
-0.075
-0.002
-0.084
0.019
-0.030
0.063
-0.005
-0.069
0.102
0.071
-0.049
0.094
-0.042
-0.092
0.066
0.069
-0.004
0.042
0.043
0.036
0.067
-0.021
0.089
-0.092
-0.031
0.039
0.117
0.029
0.038
0.000
0.018
0.066
0.063
0.002
-0.047
-0.028
0.002
-0.034
0.032
0.013
0.120
0.037
0.010
0.080
0.051
-0.129
-0.105
0.043
0.066
0.013
-0.016
0.018
0.020
0.059
-0.063
0.110
-0.044
0.039
-0.071
0.052
0.180
-0.046
-0.002
-0.083
-0.009
-0.127
0.131
0.069
-0.014
0.069
0.008
0.002
0.129
-0.105
0.024
0.043
0.143
-0.082
0.018
0.048
0.164
-0.090
0.106
-0.032
0.069
-0.007
-0.002
0.065
-0.009
0.027
0.081
-0.054
-0.020
0.066
0.005
0.001
-0.015
0.012
-0.022
0.090
-0.014
-0.058
-0.071
0.130
0.023
0.086
-0.053
-0.028
0.114
0.035
-0.019
0.013
-0.043
-0.061
0.060
0.038
0.010
0.020
0.105
0.020
-0.115
-0.023
0.040
0.040
0.030
-0.041
-0.124
-0.011
0.054
0.078
0.002
0.073
-0.058
-0.039
0.014
0.082
0.053
0.007
-0.028
0.015
-0.096
-0.058
0.064
0.032
0.135
0.056
-0.128
0.105
0.062
-0.026
-0.103
0.032
0.020
0.054
0.001
-0.056
0.119
0.039
-0.003
0.135
0.065
-0.062
-0.081
0.031
0.017
0.124
0.038
0.027
-0.062
0.112
0.114
0.084
-0.080
-0.234
-0.060
0.120
0.016
0.017
0.040
0.030
-0.092
0.087
0.099
-0.053
0.052
-0.004
0.035
-0.053
0.132
-0.108
-0.038
0.072
0.143
0.078
0.004
-0.025
-0.074
0.120
-0.010
-0.006
-0.020
-0.001
0.105
0.098
0.024
-0.017
0.029
-0.049
0.005
0.134
-0.030
0.004
0.028
-0.017
0.086
-0.041
0.064
-0.033
0.041
-0.047
0.008
0.043
0.078
0.039
-0.034
0.089
0.041
-0.051
0.154
0.041
0.044
-0.055
0.048
0.068
0.064
0.041
-0.002
0.031
-0.078
-0.008
0.018
0.025
0.030
0.011
0.045
-0.030
0.030
-0.021
-0.013
0.023
-0.133
0.031
0.137
0.076
0.081
-0.041
0.005
0.039
0.025
0.040
0.067
0.010
0.038
0.022
-0.049
-0.011
0.069
0.051
0.101
-0.066
0.046
0.093
0.035
0.102
-0.042
-0.041
0.049
0.047
-0.037
-0.070
0.014
0.128
0.059
-0.043
0.038
0.090
0.087
-0.052
-0.106
-0.000
0.110
0.051
-0.048
0.077
-0.041
0.047
-0.037
-0.052
0.063
-0.002
0.082
0.014
0.058
0.048
0.070
0.003
0.074
-0.061
-0.019
-0.041
0.155
0.114
-0.078
-0.081
0.003
-0.026
0.007
-0.012
0.092
0.153
-0.021
0.098
-0.009
0.134
-0.023
0.022
0.035
-0.042
0.096
-0.045
0.086
-0.008
-0.081
0.014
-0.020
0.093
0.027
0.099
-0.040
-0.022
-0.096
0.063
0.088
0.021
0.073
-0.137
0.002
-0.035
0.082
0.050
0.115
0.053
-0.056
0.018
0.003
0.054
0.026
-0.103
0.086
0.146
0.005
0.117
-0.141
-0.144
0.117
-0.026
0.071
0.101
-0.140
0.087
0.178
0.046
0.035
0.115
-0.022
-0.105
0.129
0.038
0.010
0.159
0.021
-0.051
-0.055
-0.021
0.095
-0.014
-0.018
0.061
0.060
-0.006
0.037
-0.086
0.148
-0.030
-0.055
0.022
0.030
0.110
-0.034
-0.109
-0.010
0.083
0.091
0.037
0.021
0.097
0.015
-0.062
0.017
0.000
0.028
-0.008
-0.023
0.063
0.115
-0.091
-0.073
0.061
-0.034
-0.093
0.041
0.162
-0.006
0.092
-0.105
0.009
0.101
0.066
0.101
-0.077
-0.064
0.126
0.071
-0.031
0.176
0.096
0.017
0.000
-0.055
0.042
0.056
-0.084
0.052
-0.004
-0.065
0.071
0.009
0.061
-0.002
-0.062
0.068
-0.142
0.008
0.018
0.025
-0.045
0.017
0.141
0.131
0.055
-0.094
0.099
0.016
0.087
-0.059
0.041
0.058
0.043
-0.043
0.035
0.059
-0.011
0.132
-0.072
0.086
0.004
0.094
-0.023
-0.020
0.085
-0.016
0.190
-0.120
-0.008
0.105
0.006
0.119
0.089
-0.073
-0.055
-0.078
0.006
0.115
-0.028
0.057
0.037
0.057
0.056
0.023
-0.059
0.034
-0.018
-0.010
0.108
0.025
0.016
0.029
-0.057
0.036
0.139
-0.019
0.066
0.053
-0.049
0.099
-0.142
-0.053
0.177
0.050
0.009
-0.017
0.057
0.136
-0.033
-0.043
0.005
0.049
-0.026
-0.032
-0.070
0.030
0.059
0.002
0.042
0.037
-0.080
0.134
-0.091
0.007
0.044
0.085
0.016
0.013
-0.119
0.027
0.089
0.154
0.038
0.003
0.094
-0.003
-0.084
-0.021
-0.031
0.008
0.166
-0.075
-0.120
0.073
0.045
0.009
0.081
0.130
-0.056
0.000
0.041
0.110
-0.064
0.101
0.039
0.128
-0.088
0.057
0.026
0.074
-0.034
-0.079
0.039
0.115
0.049
0.130
-0.140
0.086
0.013
0.089
-0.022
0.152
-0.055
0.018
0.024
0.024
-0.017
0.122
0.002
-0.013
-0.025
0.012
0.102
0.065
0.046
0.029
0.010
0.093
0.031
-0.026
-0.094
0.134
0.040
0.137
0.128
-0.151
-0.057
0.072
0.003
0.043
-0.049
0.116
0.091
0.036
-0.038
-0.048
0.107
0.103
-0.079
-0.038
-0.090
0.117
0.096
0.112
-0.009
-0.047
0.076
0.063
-0.013
-0.020
-0.009
-0.052
0.018
0.050
-0.021
0.084
0.084
-0.054
0.007
0.032
0.110
0.046
0.025
-0.114
-0.092
0.064
0.067
0.060
-0.097
0.061
0.037
-0.116
0.037
0.173
0.027
-0.039
0.101
-0.047
0.041
0.116
-0.058
0.023
-0.069
-0.013
-0.003
-0.013
0.122
-0.013
0.033
0.096
-0.047
0.022
0.012
-0.020
-0.001
0.110
0.142
-0.026
0.065
-0.039
-0.059
0.136
0.025
-0.053
-0.003
0.059
-0.018
0.084
0.000
0.032
0.074
-0.018
-0.008
-0.047
0.100
0.046
0.031
0.031
0.007
0.060
-0.104
0.003
0.032
0.038
0.078
0.038
-0.021
-0.029
-0.021
0.055
-0.060
0.080
-0.150
0.083
0.074
0.048
-0.059
0.056
0.101
-0.001
0.133
0.052
-0.070
-0.047
-0.050
-0.126
0.080
0.088
0.022
0.103
0.018
0.051
0.051
0.160
-0.048
0.041
-0.021
0.090
-0.007
0.034
0.001
-0.058
-0.009
0.041
-0.046
0.182
0.045
0.082
0.011
0.035
-0.082
0.031
0.039
-0.071
-0.043
-0.064
0.071
0.008
-0.003
-0.014
-0.004
-0.036
-0.003
-0.061
-0.003
0.001
0.054
0.090
0.082
0.064
0.084
0.049
-0.001
0.146
0.080
0.010
-0.023
-0.006
0.037
0.073
0.046
-0.015
0.039
-0.040
-0.083
0.022
0.033
0.024
0.128
0.087
-0.023
0.013
-0.019
-0.022
0.064
-0.034
-0.068
0.045
-0.010
0.068
0.152
0.036
-0.119
-0.041
0.008
-0.021
0.075
0.107
0.019
0.050
-0.015
-0.016
0.024
-0.039
0.036
0.079
0.023
0.098
0.020
-0.141
-0.261
0.023
-0.007
0.159
0.048
0.011
0.097
-0.014
0.003
-0.049
-0.071
-0.031
0.048
0.119
0.065
0.108
0.186
0.163
0.133
-0.046
-0.090
0.035
0.059
0.072
-0.107
-0.199
-0.009
0.105
0.286
0.001
-0.097
-0.345
-0.209
-0.241
0.054
0.041
0.107
-0.131
-0.052
0.020
-0.009
0.100
0.111
0.111
0.012
-0.000
0.026
0.190
0.228
0.054
0.063
0.186
-0.053
-0.014
0.171
-0.236
-0.196
-0.034
0.092
0.126
-0.050
0.079
-0.067
-0.002
0.055
0.023
-0.027
-0.004
0.074
0.019
0.045
-0.022
0.030
-0.028
0.033
0.005
-0.043
0.076
-0.089
-0.036
0.020
0.192
0.036
-0.017
-0.143
0.072
0.044
-0.018
0.125
0.049
0.060
-0.033
-0.010
0.013
-0.016
0.106
-0.014
0.040
0.100
-0.024
0.055
0.013
0.037
0.116
0.126
0.013
0.107
0.070
0.067
0.150
0.012
0.131
-0.094
-0.150
-0.774
0.030
0.391
0.573
-0.080
-0.375
-0.183
0.164
0.212
-0.042
-0.193
0.058
0.035
0.050
0.111
0.294
0.415
0.167
0.052
-0.025
0.021
0.014
0.033
-0.802
-0.369
0.102
0.414
0.494
0.144
0.091
-0.480
-0.435
0.032
-0.310
-0.126
0.266
0.406
0.295
0.081
0.178
0.140
-0.166
-0.208
-0.146
0.119
0.025
0.001
0.060
0.041
0.004
-0.023
0.099
0.092
0.201
0.155
0.125
-0.153
-0.073
0.005
0.029
0.121
-0.063
0.018
0.046
-0.173
-0.423
0.035
0.285
-0.751
-0.232
0.151
0.205
0.507
-0.111
-0.305
-0.034
0.050
0.240
0.330
-0.066
0.027
-0.078
0.170
0.245
0.192
0.142
-0.132
0.057
-0.012
-0.057
-0.079
-0.030
-0.143
0.137
0.099
-0.040
0.020
-0.089
0.008
0.109
0.104
-0.096
0.005
-0.005
0.080
0.042
0.123
0.085
0.069
-0.179
0.039
-0.218
-0.002
0.164
0.132
0.015
0.032
-0.139
0.080
0.001
0.076
0.046
0.083
-0.016
0.056
-0.027
0.062
0.053
0.055
0.206
0.054
-0.119
0.038
0.048
-0.058
0.167
-0.063
0.030
-0.020
-0.059
0.133
0.279
0.271
0.181
-0.036
-0.027
-0.390
-0.631
0.171
0.487
0.379
0.201
0.020
-0.183
-0.839
-0.351
0.128
0.272
0.329
0.031
-0.039
0.021
-0.010
-0.009
0.111
-0.129
-0.013
0.004
0.251
0.252
0.045
0.071
0.144
0.026
-0.125
0.072
0.054
0.064
-0.083
0.045
-0.163
-0.010
0.104
0.032
-0.066
-0.177
0.007
0.082
-0.023
0.024
0.043
0.108
0.044
-0.005
0.098
0.090
0.048
-0.044
-0.143
-0.263
-0.070
0.048
0.087
0.090
0.079
-0.026
-0.065
-0.089
-0.114
-0.101
0.098
0.048
0.081
0.051
0.208
-0.020
0.036
-0.004
0.056
0.106
0.093
-0.047
0.070
-0.074
0.013
0.095
-0.080
0.186
-0.062
0.053
0.025
0.036
-0.061
-0.039
0.008
0.076
-0.086
-0.001
-0.059
0.025
-0.020
0.051
-0.060
0.029
0.039
0.098
-0.011
-0.004
0.077
-0.057
-0.074
0.003
0.072
-0.030
0.071
-0.033
0.069
0.055
0.097
-0.079
0.057
-0.057
0.023
0.030
0.002
0.102
0.047
-0.008
0.036
-0.015
0.078
0.039
0.035
-0.041
0.021
-0.112
0.106
-0.019
0.054
-0.018
-0.018
-0.071
0.017
0.122
-0.042
-0.028
0.028
0.026
0.018
0.054
0.124
-0.020
0.021
-0.074
-0.006
0.052
0.146
-0.055
0.047
0.043
-0.087
0.091
0.046
0.016
-0.077
0.085
0.096
-0.048
-0.020
0.083
0.015
0.101
-0.010
-0.020
-0.060
0.088
0.064
-0.008
-0.003
0.016
-0.018
0.063
-0.046
0.039
-0.026
0.083
0.025
0.063
0.104
-0.022
0.070
0.179
-0.119
-0.001
-0.025
0.089
-0.017
-0.016
0.084
-0.005
0.033
0.011
0.005
-0.083
-0.051
0.185
-0.040
0.004
0.126
0.043
-0.009
-0.020
0.070
-0.030
0.021
-0.032
0.127
0.008
0.035
0.050
0.127
0.050
-0.018
-0.014
0.097
0.021
-0.017
-0.006
0.120
-0.089
0.004
0.046
0.076
0.055
0.059
-0.067
-0.031
0.009
0.105
-0.015
0.081
0.078
-0.028
0.104
-0.037
-0.045
0.039
-0.096
0.048
-0.011
0.172
-0.013
-0.013
-0.175
0.071
0.028
-0.021
0.041
0.154
-0.104
0.042
-0.052
0.062
-0.071
0.092
0.032
0.105
0.010
0.066
0.036
0.016
-0.089
-0.035
0.057
0.031
-0.017
-0.044
0.058
0.077
-0.021
0.043
0.025
0.083
0.109
-0.049
-0.072
-0.091
0.118
0.189
-0.041
0.048
0.019
-0.058
0.074
-0.059
-0.032
0.014
0.065
0.139
0.049
-0.010
-0.064
0.029
-0.005
0.001
0.031
0.001
0.075
-0.026
0.095
-0.057
-0.059
-0.002
0.046
0.090
0.041
-0.014
0.060
-0.066
0.068
0.007
0.067
0.097
-0.029
-0.057
0.071
0.061
0.119
0.052
-0.026
0.018
0.020
-0.019
0.095
0.067
0.071
0.038
-0.072
0.067
0.121
0.018
-0.026
0.036
-0.033
0.062
-0.026
0.011
0.020
0.078
0.035
0.067
-0.091
-0.013
-0.008
-0.033
0.059
-0.022
0.134
0.006
0.116
0.014
-0.012
-0.006
-0.107
-0.010
0.180
0.036
0.033
-0.005
0.076
0.027
0.127
-0.009
-0.106
0.116
0.004
0.128
0.044
-0.115
0.045
0.054
0.179
0.007
-0.064
-0.010
-0.031
0.017
0.156
0.009
-0.100
-0.034
0.027
-0.042
0.005
0.180
0.074
0.056
-0.027
0.071
-0.003
-0.077
-0.043
0.162
0.114
0.174
-0.031
-0.088
0.037
-0.014
0.061
-0.006
0.107
-0.043
0.025
0.033
0.056
0.069
-0.044
-0.099
0.008
0.032
-0.008
0.076
0.014
0.014
-0.004
-0.025
0.053
0.126
0.003
-0.031
0.123
0.053
0.040
-0.016
0.092
0.143
0.003
-0.003
0.027
0.098
-0.026
0.072
0.063
-0.058
-0.075
0.034
0.104
0.036
-0.077
0.006
0.022
-0.048
0.111
0.036
0.153
-0.026
0.071
0.032
0.028
0.001
-0.054
-0.073
0.026
0.002
0.008
0.084
-0.003
-0.030
0.019
0.060
0.042
0.045
0.079
0.044
-0.079
-0.007
0.041
-0.055
-0.005
0.017
0.099
0.126
-0.141
0.067
-0.016
0.085
0.050
-0.110
0.133
-0.039
-0.023
0.009
0.116
0.058
-0.101
0.032
0.083
0.018
0.017
0.071
0.093
0.025
-0.145
-0.092
0.091
-0.024
-0.070
0.122
0.106
-0.027
-0.092
0.053
0.075
-0.097
0.064
0.025
0.001
-0.011
0.075
0.068
0.112
0.001
-0.036
0.061
0.002
-0.054
0.042
0.006
0.031
0.068
-0.004
0.040
-0.064
0.046
-0.004
0.047
-0.042
0.134
0.014
-0.169
0.053
0.037
-0.014
0.109
-0.065
-0.048
0.002
0.087
-0.004
0.037
0.081
0.013
0.057
0.013
0.060
-0.057
0.111
0.030
-0.047
0.010
-0.056
0.133
0.126
-0.019
0.014
-0.055
-0.034
0.121
0.061
-0.023
0.019
0.148
0.047
-0.051
-0.079
-0.037
0.064
-0.001
0.054
0.004
0.108
-0.024
-0.017
0.055
0.097
0.040
-0.012
0.029
0.089
0.010
-0.074
-0.016
-0.070
-0.124
0.163
0.021
0.047
-0.013
0.059
-0.010
-0.031
0.095
0.073
-0.094
0.055
0.190
-0.074
0.001
0.019
0.005
-0.011
0.066
0.045
-0.035
0.080
0.020
-0.170
0.077
0.007
0.047
-0.011
-0.027
0.149
0.066
-0.011
-0.034
0.052
0.075
-0.058
0.025
0.014
0.080
0.053
0.075
0.024
0.003
-0.126
-0.027
0.012
-0.038
0.062
0.122
-0.007
0.079
0.045
-0.016
-0.013
0.112
-0.026
-0.013
-0.007
0.035
0.037
0.017
-0.006
0.132
-0.068
-0.003
-0.055
0.087
-0.073
0.014
0.096
0.021
0.082
0.000
-0.105
0.023
0.031
0.214
-0.056
-0.076
-0.085
0.068
0.071
0.037
-0.004
-0.007
0.089
-0.108
0.081
0.033
0.120
0.133
0.001
-0.053
-0.049
0.097
0.076
0.053
0.089
-0.007
0.020
0.002
0.051
-0.032
0.055
-0.015
-0.064
-0.038
-0.031
0.090
0.057
-0.017
0.023
-0.023
-0.027
-0.025
0.118
0.099
0.018
0.019
0.046
-0.085
0.050
0.121
0.035
0.027
-0.061
0.018
0.139
-0.053
-0.011
-0.042
0.030
0.066
0.084
0.135
0.032
0.054
0.049
-0.139
0.078
0.013
0.116
-0.031
-0.037
0.019
0.033
0.130
0.066
-0.116
-0.008
0.122
-0.025
-0.060
0.186
0.031
0.021
-0.143
-0.017
0.076
0.092
0.023
0.009
0.051
0.060
-0.031
0.028
-0.044
0.056
0.016
0.004
-0.034
0.067
0.012
-0.106
0.045
0.109
0.023
-0.089
0.017
0.145
0.089
0.037
-0.045
-0.002
0.090
0.058
-0.150
0.057
-0.021
0.049
0.096
0.036
0.086
0.040
0.033
-0.028
0.035
-0.138
0.014
0.087
-0.031
0.057
0.020
0.107
0.001
-0.075
-0.011
-0.008
0.106
0.018
-0.029
0.221
0.076
0.020
-0.207
0.014
0.126
0.080
0.051
0.018
0.137
0.026
-0.100
-0.032
0.069
0.001
-0.064
0.126
-0.032
0.073
0.016
-0.017
-0.112
0.055
-0.012
-0.083
-0.033
0.026
0.080
0.148
-0.031
0.062
0.006
-0.018
0.090
0.099
0.118
0.032
0.005
-0.025
0.095
0.075
0.039
0.071
0.095
0.018
0.028
0.057
-0.030
0.091
0.129
0.117
-0.115
0.022
-0.068
-0.033
0.072
0.026
0.022
0.023
-0.028
-0.066
0.090
0.070
-0.058
-0.056
0.006
0.037
0.043
-0.037
-0.016
0.052
0.040
0.030
0.121
-0.014
-0.059
0.085
0.008
0.068
-0.032
0.039
0.134
0.061
0.020
-0.018
0.094
0.008
-0.030
-0.078
0.086
0.070
-0.091
-0.030
0.031
0.050
0.009
-0.038
0.104
0.009
0.005
0.062
-0.028
0.060
0.018
0.032
0.071
-0.120
0.138
-0.071
-0.075
0.069
0.011
-0.010
0.003
0.056
-0.008
0.018
-0.029
0.101
-0.045
-0.059
0.065
-0.063
0.054
0.027
-0.026
0.115
-0.106
0.052
0.078
0.027
-0.049
0.053
0.059
0.006
0.004
-0.066
0.020
0.166
-0.000
-0.010
-0.058
0.056
0.066
-0.008
-0.057
-0.041
0.064
0.084
-0.020
0.021
0.012
0.065
0.021
0.012
0.127
-0.140
0.101
-0.017
-0.028
0.126
-0.049
-0.056
0.118
0.045
0.030
-0.025
0.041
-0.044
0.033
0.042
0.017
-0.030
0.030
0.066
-0.044
-0.021
-0.022
0.040
-0.001
0.069
0.155
-0.053
0.024
0.098
-0.054
-0.140
0.059
0.032
0.036
-0.042
0.046
-0.014
-0.005
0.075
0.059
0.027
-0.034
-0.088
0.194
0.160
0.079
-0.124
-0.115
0.050
0.040
-0.035
0.032
0.019
0.109
0.024
-0.111
0.027
-0.020
0.061
0.048
-0.099
-0.000
0.159
-0.036
0.008
-0.001
0.065
-0.031
-0.050
-0.008
0.067
0.053
0.040
0.049
-0.026
0.024
0.055
0.011
-0.035
0.027
-0.000
0.101
0.018
0.060
-0.037
0.066
-0.060
-0.033
-0.014
0.136
-0.053
-0.072
-0.020
0.115
0.172
0.032
-0.093
0.074
0.032
0.104
-0.076
0.070
0.066
-0.151
-0.025
0.091
0.084
0.074
0.012
-0.068
0.016
-0.018
0.047
-0.011
-0.002
0.002
0.009
0.059
0.011
0.059
0.040
0.035
0.127
-0.008
0.064
-0.090
0.060
0.036
0.077
-0.055
-0.018
0.067
0.030
-0.015
0.005
0.041
-0.101
0.042
0.082
0.082
0.012
0.011
0.130
-0.070
0.204
0.036
-0.013
-0.045
0.063
-0.075
0.065
-0.017
0.057
0.038
-0.146
0.093
0.157
0.087
-0.145
0.001
-0.032
0.017
0.036
0.235
-0.019
0.015
0.013
0.051
0.015
-0.017
-0.027
-0.128
0.088
0.112
0.111
-0.071
-0.133
-0.008
0.044
-0.056
-0.035
0.062
0.077
0.011
0.056
0.017
0.199
0.026
0.081
-0.094
0.008
0.034
0.062
0.043
-0.002
0.062
0.086
-0.033
0.026
0.047
0.022
-0.046
0.053
0.039
-0.039
0.073
-0.063
-0.053
0.018
0.149
0.066
-0.081
0.073
0.071
0.033
0.002
0.066
-0.111
0.009
0.095
0.005
0.130
0.030
-0.075
-0.027
0.013
-0.023
0.055
0.078
0.119
-0.047
0.100
-0.068
0.013
0.008
0.044
-0.074
-0.018
0.024
0.140
-0.009
0.064
-0.009
0.053
-0.062
-0.148
0.035
0.070
-0.004
0.044
0.127
0.057
-0.185
0.097
0.131
0.072
-0.058
0.015
-0.025
0.062
0.010
0.042
0.159
0.077
-0.062
0.038
0.074
0.056
-0.072
-0.088
0.045
0.029
0.156
0.031
-0.071
-0.090
0.049
0.011
-0.071
0.094
0.056
-0.022
0.091
0.013
0.176
0.109
-0.287
-0.250
-0.094
0.168
0.186
0.021
0.063
-0.070
0.059
0.007
-0.003
0.209
-0.056
0.045
0.066
0.187
0.161
0.078
-0.036
0.048
0.188
-0.105
-0.353
-0.507
0.165
0.509
0.343
-0.255
-0.385
-0.158
0.008
0.114
0.021
0.025
0.139
0.008
0.044
0.145
0.082
0.256
0.205
-0.275
-0.046
-0.030
0.184
0.058
0.168
0.001
-0.014
-0.036
0.033
-0.120
-0.112
-0.027
0.176
0.030
0.140
0.153
0.009
-0.163
-0.140
-0.013
0.138
0.232
-0.005
-0.039
-0.085
0.068
0.048
-0.000
0.135
-0.075
-0.171
-0.032
0.182
-0.022
-0.020
0.016
0.010
0.010
0.079
-0.011
0.007
0.101
-0.090
0.068
0.062
0.094
0.005
0.110
-0.075
0.045
0.138
-0.080
0.049
-0.056
-0.082
0.042
0.040
0.085
-0.048
0.112
0.004
-0.055
-0.046
0.068
0.044
-0.049
-0.023
0.069
0.091
-0.051
0.043
0.114
0.123
-0.118
-0.024
0.022
0.057
0.053
0.023
0.066
0.072
-0.020
0.075
-0.119
-0.019
0.078
-0.049
0.076
0.010
0.026
0.063
0.013
0.113
-0.045
0.132
-0.022
-0.045
0.021
-0.118
0.100
0.007
0.118
-0.041
0.061
0.112
0.046
-0.027
-0.027
0.052
0.082
-0.029
0.042
0.041
0.065
0.039
0.038
0.008
-0.014
0.117
0.012
0.032
-0.060
0.021
0.024
0.125
-0.048
0.035
-0.061
0.024
0.178
0.022
-0.088
-0.103
0.100
0.070
0.025
-0.055
0.039
0.056
0.029
0.075
0.016
0.006
0.087
0.072
0.046
0.037
0.028
-0.023
0.016
-0.033
0.118
-0.003
-0.030
0.086
-0.021
-0.056
0.072
-0.019
-0.023
-0.037
0.038
-0.003
-0.023
-0.009
0.059
0.058
0.062
0.056
0.039
0.005
0.007
-0.069
-0.037
0.142
-0.043
0.017
-0.032
0.017
0.029
0.085
0.010
-0.114
-0.058
0.122
0.001
-0.034
0.087
0.058
0.092
-0.027
-0.010
0.048
-0.099
0.041
0.111
0.016
-0.103
-0.031
0.004
0.043
0.068
0.019
0.099
-0.107
-0.020
-0.104
0.157
0.013
0.079
0.025
0.266
-0.034
0.059
-0.069
-0.025
-0.036
-0.052
0.011
0.117
0.009
0.008
-0.013
-0.014
0.028
0.044
0.052
-0.010
0.023
-0.018
0.118
0.062
-0.017
-0.009
0.118
-0.047
0.056
-0.006
0.021
0.038
0.035
0.161
-0.091
0.046
0.068
-0.053
0.015
-0.032
0.039
0.144
-0.023
-0.054
0.182
-0.103
0.005
0.046
0.023
0.058
-0.077
-0.038
0.168
0.087
0.030
0.135
0.016
-0.089
-0.089
0.037
0.144
0.041
-0.084
0.129
0.088
-0.062
-0.032
0.090
0.026
-0.033
0.142
0.081
-0.125
-0.081
0.039
0.079
-0.025
0.028
-0.160
0.120
0.116
0.115
-0.112
-0.047
0.125
0.012
0.145
-0.007
-0.013
-0.057
0.067
0.089
-0.086
-0.030
0.085
0.040
0.104
0.007
-0.083
-0.023
-0.003
0.126
0.074
-0.019
-0.066
0.030
0.022
0.030
0.052
0.092
-0.072
-0.034
0.048
-0.030
-0.002
0.040
0.029
0.067
-0.017
-0.111
0.069
0.027
0.027
0.094
0.096
-0.107
0.069
0.101
0.068
-0.085
0.031
-0.040
-0.017
0.028
-0.007
-0.008
0.120
0.022
-0.037
0.002
0.000
0.121
-0.032
-0.036
0.030
0.012
0.063
0.033
0.020
0.053
0.085
0.008
-0.018
0.071
-0.016
-0.088
0.105
0.010
0.039
-0.003
0.045
0.009
0.036
0.066
0.014
0.051
0.026
0.033
-0.113
0.098
0.029
0.081
-0.011
0.015
0.076
-0.015
0.024
-0.055
-0.079
0.066
0.095
0.030
0.066
0.058
0.114
-0.122
-0.044
0.077
-0.024
0.002
0.078
0.103
0.020
-0.043
0.075
0.052
-0.003
0.032
0.068
0.033
0.001
-0.034
-0.016
0.173
0.003
0.075
0.052
-0.019
-0.121
0.118
-0.034
0.045
0.056
-0.144
0.064
0.080
-0.017
0.134
0.014
0.018
-0.075
-0.050
0.066
0.018
-0.025
0.069
0.024
0.099
0.002
-0.045
0.076
0.033
0.032
0.033
0.102
0.024
-0.103
0.055
0.012
-0.098
0.020
0.120
-0.138
0.113
-0.023
0.082
0.064
-0.068
-0.067
-0.053
0.056
0.115
-0.110
0.095
0.039
-0.036
-0.122
0.119
0.035
0.068
-0.131
0.016
0.050
0.037
0.122
-0.049
0.088
-0.035
-0.100
0.091
-0.120
-0.004
0.045
-0.034
0.128
0.110
0.026
-0.005
-0.151
0.042
0.045
0.036
0.042
-0.035
-0.005
0.045
0.040
-0.055
0.001
0.089
0.122
-0.160
0.026
0.183
0.013
-0.037
0.008
-0.019
-0.045
0.005
0.214
0.045
0.048
-0.088
0.120
0.053
-0.038
-0.014
-0.008
0.054
0.149
-0.105
0.045
0.026
-0.066
0.064
0.071
-0.008
0.048
-0.044
-0.001
0.045
0.074
0.074
0.026
0.012
0.100
-0.004
-0.021
0.062
0.038
-0.045
0.062
-0.059
0.048
-0.005
0.061
0.016
0.062
0.069
0.023
0.012
0.011
0.081
-0.058
0.040
0.083
0.066
0.018
0.033
0.015
0.054
-0.032
-0.089
0.055
-0.049
0.008
0.073
0.054
0.055
0.111
-0.048
0.021
-0.047
0.041
0.000
0.013
0.029
0.052
0.029
0.050
0.055
-0.045
0.022
-0.002
-0.031
-0.161
0.093
0.008
-0.039
0.036
-0.004
-0.047
0.148
0.002
0.043
0.082
-0.042
-0.026
0.086
0.117
-0.017
0.024
0.115
0.038
0.060
-0.098
-0.006
0.045
0.177
-0.025
0.074
-0.012
-0.016
0.086
0.078
-0.116
0.036
0.011
-0.005
-0.085
0.008
0.024
-0.111
0.026
0.102
0.095
0.010
-0.041
0.109
0.015
0.037
0.084
0.069
-0.082
-0.065
0.001
0.110
-0.004
-0.068
0.083
0.098
0.005
0.015
0.017
0.009
0.120
0.104
-0.027
0.001
0.040
-0.062
-0.020
0.030
0.043
0.027
0.139
0.016
0.086
-0.046
0.013
0.012
0.132
-0.055
0.018
-0.100
0.157
0.024
-0.037
-0.075
-0.100
0.084
0.075
0.015
-0.038
0.093
-0.019
-0.009
0.083
0.132
-0.012
0.092
-0.060
0.050
0.026
0.015
-0.043
-0.032
0.016
0.106
-0.017
0.038
0.061
0.003
-0.012
0.006
-0.087
-0.025
-0.032
0.031
0.080
0.038
0.014
0.092
-0.094
-0.088
0.088
0.063
0.091
0.003
0.085
-0.080
0.192
0.018
0.020
-0.218
0.030
0.022
0.150
0.056
0.029
-0.062
0.061
-0.031
-0.071
0.112
0.101
0.050
-0.037
-0.003
-0.055
0.177
0.037
0.118
-0.072
-0.030
-0.022
0.030
0.049
0.008
-0.011
-0.016
0.029
-0.042
-0.031
0.059
0.014
0.135
-0.016
-0.122
0.065
0.177
0.031
0.056
-0.054
-0.034
-0.075
-0.001
-0.050
-0.030
-0.046
0.059
0.143
0.086
-0.022
-0.069
0.051
-0.044
0.144
0.064
0.023
-0.041
-0.044
-0.057
0.077
0.059
-0.088
-0.043
0.050
0.125
-0.002
0.017
0.058
0.006
0.119
0.057
0.002
-0.002
0.090
0.054
0.044
-0.089
0.072
-0.109
0.101
-0.007
0.021
0.062
-0.052
-0.078
-0.001
-0.014
0.006
0.027
0.198
0.002
-0.062
0.049
0.018
-0.021
0.039
0.006
-0.024
-0.049
0.035
0.060
-0.070
0.049
-0.038
0.123
-0.114
-0.020
0.101
0.011
0.029
0.110
0.042
0.069
0.089
-0.027
0.094
-0.063
-0.094
0.091
0.095
0.119
-0.058
-0.071
0.016
-0.045
0.034
-0.003
0.143
0.118
-0.061
-0.126
0.070
0.012
0.091
0.033
-0.028
0.056
0.033
0.033
-0.008
0.092
-0.034
-0.030
-0.114
0.027
0.108
-0.044
0.086
0.021
0.024
0.028
0.010
0.083
-0.055
0.036
-0.019
0.045
-0.010
-0.054
-0.060
0.115
-0.040
-0.047
0.022
0.077
0.029
-0.043
0.125
-0.019
0.067
0.017
-0.099
0.008
0.010
0.121
-0.049
0.114
-0.001
0.123
0.002
0.029
0.126
-0.025
0.022
0.122
0.067
-0.077
-0.057
-0.062
0.072
0.059
-0.009
0.101
-0.074
-0.089
-0.011
0.057
0.039
0.061
0.085
-0.049
0.137
0.043
0.058
0.049
0.018
-0.053
-0.053
0.021
0.116
-0.033
-0.039
0.049
-0.021
0.085
0.042
-0.100
0.038
0.088
0.034
0.031
0.080
-0.107
-0.010
-0.035
0.097
0.107
0.106
-0.080
-0.021
0.114
0.011
-0.009
0.012
-0.043
0.081
-0.008
0.100
0.068
-0.106
0.068
0.080
0.070
0.009
-0.027
0.029
0.106
-0.039
0.025
-0.016
0.025
-0.074
0.022
0.017
-0.005
-0.048
0.036
0.094
0.021
-0.003
-0.052
0.016
-0.080
0.116
0.220
0.015
-0.039
0.017
-0.167
0.112
-0.012
-0.013
0.049
0.088
0.003
-0.005
0.086
0.009
0.100
0.039
-0.132
0.089
0.010
0.128
-0.006
-0.012
0.059
-0.005
-0.024
0.085
0.086
-0.032
0.080
-0.028
-0.022
0.021
-0.024
0.112
0.089
0.033
0.015
-0.037
-0.025
0.056
-0.032
0.083
0.138
-0.027
-0.040
-0.018
0.041
0.103
0.113
0.002
0.059
-0.066
-0.039
0.017
-0.049
0.048
0.078
-0.011
0.122
0.150
-0.093
0.043
-0.023
-0.066
0.023
0.111
-0.007
0.035
0.098
0.162
-0.038
-0.133
0.052
-0.020
-0.013
0.047
0.096
0.038
0.099
0.030
-0.150
0.108
0.096
0.080
-0.012
-0.057
0.016
-0.088
-0.046
0.066
0.035
0.058
-0.037
0.038
0.102
0.107
0.048
0.132
-0.012
-0.095
0.073
0.052
-0.041
-0.069
0.147
-0.027
0.100
-0.007
-0.018
-0.062
-0.031
-0.008
-0.003
0.028
0.178
-0.036
-0.007
-0.031
0.084
-0.087
0.083
-0.038
0.102
0.026
0.002
-0.110
-0.005
0.074
0.058
0.087
0.057
-0.039
0.093
0.085
0.069
0.015
-0.048
0.041
0.012
0.011
0.161
-0.099
0.184
-0.077
0.062
-0.061
-0.019
-0.023
0.109
0.059
0.011
0.055
0.022
-0.122
0.074
0.043
-0.005
0.011
-0.013
0.097
0.038
0.078
-0.037
0.072
0.145
-0.134
0.032
0.048
0.051
0.017
-0.054
0.008
-0.081
-0.026
0.053
0.046
0.077
-0.091
-0.085
0.043
0.180
-0.029
-0.002
0.064
-0.003
0.073
0.005
0.029
0.026
0.057
-0.030
0.106
0.022
0.018
-0.003
0.001
-0.065
0.009
0.059
-0.011
-0.005
0.053
0.088
0.012
-0.102
0.054
-0.027
0.034
0.021
0.057
0.043
0.132
-0.037
-0.110
0.090
0.059
0.137
0.015
-0.115
0.024
-0.107
0.090
0.073
-0.038
0.031
0.127
-0.064
0.021
0.001
0.086
-0.069
0.144
-0.012
-0.087
0.003
0.040
0.096
0.082
0.041
-0.047
0.032
-0.105
0.057
0.114
-0.052
-0.001
0.041
0.106
-0.070
0.048
0.166
0.075
-0.001
0.002
-0.003
0.038
-0.049
0.056
-0.035
0.001
0.102
0.104
-0.035
0.063
-0.066
-0.135
0.026
0.037
0.061
-0.005
0.026
0.154
-0.021
0.128
-0.100
-0.052
-0.016
-0.020
0.030
0.075
-0.026
0.023
0.005
-0.060
0.114
0.018
0.044
0.031
0.012
-0.109
-0.101
0.001
0.094
0.015
0.014
-0.077
0.114
0.041
0.066
-0.025
-0.032
0.131
-0.050
0.019
0.010
0.029
0.064
-0.014
-0.000
-0.019
0.000
0.149
-0.056
0.011
-0.019
-0.048
0.012
0.066
0.002
0.065
0.039
-0.016
0.026
0.101
-0.110
0.098
0.132
-0.079
-0.054
0.007
-0.107
0.059
0.010
0.120
0.094
-0.068
-0.027
0.023
0.027
-0.058
0.111
0.103
-0.022
0.038
0.065
-0.034
-0.162
0.111
0.181
-0.029
0.049
0.007
0.018
-0.033
-0.030
0.049
0.143
-0.002
0.071
0.160
-0.086
0.224
0.020
0.117
-0.051
0.037
-0.201
-0.048
0.193
-0.004
0.070
0.121
0.002
-0.103
0.062
-0.144
-0.031
0.133
-0.012
-0.039
0.060
0.036
0.075
-0.029
0.073
0.054
-0.028
-0.037
-0.030
0.110
0.158
-0.058
0.045
0.013
0.018
0.150
0.255
-0.015
-0.113
-0.038
0.202
0.105
0.043
-0.216
0.124
-0.667
-0.545
0.134
0.429
0.285
0.076
-0.004
-0.502
-0.414
-0.011
0.097
0.242
0.230
0.134
0.030
0.037
-0.037
0.145
0.011
0.021
-0.086
0.109
0.132
0.053
-0.114
-0.022
-0.005
0.007
0.090
0.045
-0.003
-0.043
0.038
0.101
-0.043
-0.027
0.100
0.068
0.005
-0.044
-0.075
0.029
-0.144
0.060
-0.021
0.076
0.062
0.006
0.122
-0.057
-0.076
0.014
0.012
0.118
0.200
-0.156
0.058
-0.020
-0.115
-0.036
-0.022
0.170
0.099
-0.050
-0.035
0.069
0.053
-0.007
-0.043
0.002
0.077
0.101
0.139
0.140
-0.063
-0.062
0.113
-0.041
0.120
0.027
0.036
0.029
0.024
-0.068
-0.032
0.100
0.133
-0.044
0.074
-0.049
0.240
-0.033
0.014
-0.087
0.019
-0.009
0.007
0.039
0.036
0.096
0.037
0.003
-0.037
0.151
-0.030
-0.074
0.070
0.007
0.047
0.104
-0.020
0.121
-0.071
0.012
0.009
0.094
0.023
0.028
-0.036
-0.028
0.072
0.081
0.094
0.032
-0.019
-0.006
-0.031
-0.067
-0.039
0.166
-0.029
0.031
0.033
0.059
-0.087
0.091
0.093
0.000
0.002
0.041
0.083
0.003
0.031
0.026
0.022
-0.153
0.122
0.230
-0.016
-0.004
0.008
-0.060
-0.018
0.054
-0.008
0.154
0.063
-0.001
-0.052
0.124
0.038
0.002
0.042
0.091
-0.003
-0.067
0.101
0.063
0.041
-0.036
0.060
0.094
-0.033
0.054
-0.002
-0.027
0.082
0.088
-0.024
0.107
0.001
0.116
-0.052
0.004
-0.075
0.132
0.022
0.027
-0.066
-0.023
0.186
0.002
0.047
0.013
-0.030
-0.047
0.104
0.107
0.010
-0.139
0.029
-0.044
-0.021
0.051
0.021
0.097
0.059
-0.055
0.069
0.031
-0.088
0.016
0.003
0.001
-0.071
0.158
0.001
0.153
-0.012
-0.073
-0.037
0.008
0.197
0.115
0.070
-0.113
0.051
0.011
-0.016
-0.010
0.012
0.082
0.126
-0.002
0.055
-0.091
0.017
-0.016
0.090
-0.017
-0.095
-0.010
0.029
0.054
-0.021
-0.039
0.076
0.155
0.010
0.003
-0.070
-0.001
-0.035
-0.020
0.107
0.057
-0.005
0.039
0.011
0.030
-0.002
-0.023
0.054
-0.038
-0.030
0.070
0.108
-0.072
0.068
0.023
0.082
-0.019
0.000
0.030
-0.009
0.111
-0.110
-0.044
0.085
0.082
0.032
0.008
-0.027
0.039
0.076
0.108
0.021
-0.098
-0.047
0.080
-0.044
0.101
-0.014
-0.054
0.009
0.065
0.031
0.012
0.071
-0.046
0.077
-0.035
0.013
0.148
0.015
-0.007
0.104
-0.120
0.118
0.026
-0.045
0.080
0.034
0.032
-0.051
-0.032
-0.017
-0.027
0.065
-0.100
0.051
-0.016
0.128
-0.040
0.038
0.088
-0.030
-0.024
0.097
0.071
-0.051
-0.021
0.043
-0.005
0.122
0.024
-0.084
-0.077
0.154
0.080
-0.028
0.109
0.114
-0.030
0.059
-0.027
0.083
0.119
0.017
0.012
-0.034
0.010
-0.076
-0.149
0.044
0.001
0.152
0.021
-0.013
-0.002
-0.061
0.091
-0.002
0.110
-0.014
-0.072
-0.000
0.012
0.037
0.093
0.169
-0.034
-0.052
-0.048
0.024
0.067
-0.041
0.038
0.018
0.029
0.068
0.010
-0.062
0.054
-0.074
0.043
-0.023
-0.053
0.119
0.069
0.157
-0.023
0.003
-0.067
0.050
-0.092
0.136
0.136
-0.009
-0.106
-0.047
0.021
0.078
0.115
0.085
-0.016
-0.060
0.015
-0.025
0.061
-0.019
-0.022
0.086
0.083
0.012
-0.021
-0.106
-0.007
0.058
0.015
0.093
0.023
-0.112
0.031
-0.018
0.021
0.060
-0.048
0.012
0.004
0.025
0.081
0.022
0.061
0.012
0.005
-0.022
0.096
0.071
0.020
0.010
0.011
-0.003
-0.054
0.083
0.003
0.208
0.010
0.024
0.100
-0.022
0.020
0.060
0.083
0.016
-0.043
0.081
-0.001
0.001
0.105
-0.035
0.023
0.041
0.085
0.037
-0.086
-0.077
0.069
0.123
-0.021
0.059
0.062
-0.086
0.048
0.025
0.106
0.124
0.034
0.063
-0.129
-0.016
0.051
0.008
-0.017
0.027
0.005
-0.005
-0.091
0.072
0.151
0.153
0.039
-0.097
0.056
-0.058
0.076
0.047
0.002
-0.080
0.105
-0.022
0.036
-0.016
0.109
0.105
0.104
-0.033
0.015
0.052
0.010
0.111
-0.091
0.039
0.073
0.035
0.027
-0.062
-0.077
-0.095
0.130
0.024
0.074
-0.012
0.026
-0.056
0.121
0.106
0.057
-0.090
-0.022
0.100
0.056
0.090
0.022
-0.170
0.030
0.082
0.020
0.153
-0.045
-0.049
-0.067
0.022
0.088
0.010
0.069
0.010
0.001
-0.063
0.063
0.031
-0.033
0.094
-0.047
0.060
0.054
0.202
-0.067
0.107
-0.107
-0.000
0.069
0.076
0.091
0.001
0.046
0.108
0.150
-0.027
-0.041
0.056
0.106
-0.030
-0.033
-0.021
-0.060
-0.066
0.188
0.055
0.034
-0.043
-0.037
-0.014
0.026
0.085
0.102
0.024
-0.007
0.032
0.079
0.047
-0.010
0.009
-0.010
0.057
0.095
-0.052
-0.064
-0.016
0.062
0.102
0.099
-0.007
0.046
-0.066
-0.060
0.078
0.168
-0.101
-0.046
0.076
0.059
-0.006
0.111
-0.098
-0.048
0.178
-0.092
0.039
0.026
-0.041
0.040
0.027
0.064
0.016
0.029
0.017
-0.009
0.034
-0.027
-0.010
0.042
-0.019
0.090
-0.043
0.010
-0.032
0.119
-0.022
0.053
-0.004
0.014
-0.096
-0.048
0.052
0.075
-0.015
0.068
0.074
-0.080
0.058
0.005
0.076
0.018
-0.153
0.057
0.032
0.074
0.103
-0.045
-0.043
0.009
0.083
0.058
-0.048
0.074
-0.055
0.089
0.057
-0.050
0.020
0.083
-0.005
-0.088
0.005
0.039
-0.033
-0.009
0.080
-0.057
0.102
-0.012
-0.068
0.126
0.080
-0.060
-0.022
0.115
0.046
0.031
0.007
0.061
-0.049
0.041
0.068
0.009
0.066
0.065
0.070
0.006
-0.049
-0.116
0.164
0.193
0.108
-0.107
0.075
0.008
-0.093
0.001
0.112
-0.071
0.074
0.141
0.151
-0.033
0.097
-0.072
-0.064
0.029
-0.034
-0.003
0.121
0.123
0.017
-0.022
-0.014
-0.043
-0.070
0.100
-0.016
0.023
-0.011
0.067
0.059
-0.085
0.027
0.049
0.048
0.134
-0.001
0.069
0.004
0.016
0.037
0.010
0.065
0.194
-0.044
0.006
-0.077
0.035
0.058
0.157
0.034
0.002
0.075
0.010
0.050
-0.039
-0.044
0.057
0.069
0.039
0.025
-0.051
-0.038
-0.017
0.102
-0.021
-0.177
0.023
0.030
0.016
0.137
-0.034
0.018
0.165
0.068
-0.078
-0.165
0.106
-0.026
0.035
0.101
0.081
-0.099
0.105
0.023
0.049
-0.021
0.028
0.128
-0.090
-0.173
0.056
-0.012
-0.069
0.015
0.109
-0.110
0.161
-0.053
-0.012
0.014
0.027
0.009
0.052
-0.050
0.080
0.069
0.134
-0.002
-0.072
0.025
0.094
-0.002
0.107
-0.035
-0.019
-0.035
0.065
0.025
0.023
-0.008
0.031
0.071
-0.035
0.047
0.083
-0.048
-0.051
0.040
0.044
-0.100
0.051
0.020
0.065
-0.008
-0.066
0.072
-0.017
0.097
-0.136
0.012
0.046
0.110
0.023
0.044
-0.023
0.035
-0.016
0.039
0.122
0.044
0.061
-0.017
0.054
0.099
0.017
-0.030
-0.004
-0.036
0.085
0.096
-0.019
0.113
0.064
0.035
-0.046
0.031
0.049
-0.052
0.095
-0.079
0.113
0.039
0.061
0.052
-0.076
0.018
0.166
-0.145
-0.103
0.040
0.052
-0.005
0.069
0.096
0.108
0.003
0.068
-0.082
0.163
-0.053
0.010
-0.017
-0.039
-0.029
-0.020
-0.025
0.062
0.036
-0.021
0.103
0.092
0.106
-0.071
0.007
-0.013
-0.054
0.031
-0.020
-0.058
0.086
0.016
-0.033
0.066
0.016
-0.014
-0.031
0.149
0.181
0.113
-0.007
-0.051
0.077
-0.018
0.057
-0.129
-0.157
0.005
0.131
0.088
0.007
-0.089
-0.028
-0.013
-0.028
-0.163
0.008
0.124
-0.027
0.077
0.027
-0.001
0.096
0.110
0.178
-0.067
0.045
-0.100
-0.038
0.037
-0.054
0.040
0.006
0.117
0.061
-0.063
0.054
0.064
0.060
0.018
0.016
0.115
-0.018
0.018
0.022
-0.065
0.054
-0.064
-0.104
0.068
0.087
-0.037
0.054
-0.026
0.012
-0.053
0.067
0.072
0.021
0.033
-0.019
0.014
0.034
0.006
-0.002
0.015
0.057
0.038
0.042
-0.013
0.154
-0.050
-0.066
0.044
-0.009
-0.106
0.040
0.137
0.181
0.048
-0.108
-0.025
0.053
0.056
0.070
-0.055
-0.119
0.059
-0.025
0.020
-0.106
0.068
0.062
0.033
-0.039
-0.037
-0.079
0.003
0.172
-0.047
0.011
0.060
0.095
0.072
-0.124
-0.004
-0.049
0.002
0.004
0.029
0.109
0.098
-0.119
-0.008
0.070
0.101
-0.014
-0.136
0.172
-0.016
0.042
0.049
0.023
-0.029
0.014
0.021
-0.058
0.040
0.095
0.024
-0.086
0.054
0.015
0.029
-0.023
0.003
-0.066
0.065
0.182
-0.057
0.059
-0.002
-0.030
-0.029
-0.050
0.081
0.102
0.009
-0.009
-0.049
-0.048
0.075
0.074
0.078
-0.017
0.017
-0.012
0.125
-0.002
0.002
0.153
0.037
0.022
0.063
-0.134
-0.056
0.006
0.068
0.011
0.103
-0.043
0.000
0.010
0.059
0.091
0.089
-0.033
0.024
-0.002
-0.021
0.074
0.026
-0.033
0.014
0.017
-0.063
-0.030
0.095
-0.106
0.100
0.005
0.104
-0.095
-0.086
0.091
0.162
0.054
-0.050
0.033
0.005
-0.138
0.018
0.077
0.026
0.143
-0.154
0.051
0.072
0.105
-0.065
-0.113
-0.084
0.028
0.002
0.053
0.168
-0.006
0.002
0.125
0.096
-0.065
-0.017
0.041
0.122
0.081
-0.138
0.004
0.071
-0.016
0.011
0.041
0.021
-0.026
0.027
-0.035
0.142
0.015
-0.084
0.076
-0.022
-0.049
-0.006
0.152
-0.018
-0.027
-0.001
0.067
0.022
0.002
-0.007
0.008
0.059
-0.043
-0.009
0.131
-0.027
0.104
-0.062
0.039
0.004
-0.069
0.186
0.010
-0.035
0.011
0.016
0.106
0.192
0.008
-0.122
0.056
0.036
0.016
-0.041
0.063
0.081
-0.043
-0.025
0.055
0.049
0.116
0.011
-0.068
0.007
-0.073
0.058
0.050
0.049
0.085
-0.031
-0.003
-0.060
-0.022
0.018
0.016
0.036
0.134
0.118
-0.042
0.076
-0.125
-0.084
0.006
0.152
0.026
0.028
-0.018
0.053
0.012
-0.069
-0.004
-0.018
0.138
0.058
-0.057
0.042
0.066
-0.034
0.052
-0.084
0.101
0.123
0.088
0.133
-0.040
0.008
-0.058
0.053
0.095
0.120
0.231
0.144
-0.355
-0.252
0.014
0.114
0.125
0.142
0.070
-0.043
-0.025
0.016
-0.059
0.060
0.045
0.026
-0.062
0.122
0.037
-0.066
0.216
-0.036
0.035
0.017
-0.043
0.085
0.090
0.030
-0.034
0.082
-0.110
0.174
0.097
-0.032
0.014
0.022
0.042
0.030
-0.028
0.101
0.078
-0.031
0.014
-0.010
0.117
-0.023
-0.096
0.090
-0.012
-0.060
0.004
0.001
-0.005
0.133
-0.009
0.030
0.124
-0.054
0.017
0.062
-0.002
0.017
0.072
0.085
0.023
-0.107
-0.074
0.082
0.119
0.162
-0.093
-0.082
0.057
0.071
0.000
0.086
0.083
-0.020
-0.088
-0.088
0.073
0.052
0.044
0.060
-0.053
-0.047
-0.025
-0.008
0.106
-0.081
0.054
-0.012
0.040
0.103
0.149
-0.003
-0.043
0.088
-0.053
0.010
0.013
-0.034
0.102
-0.051
-0.059
-0.045
0.095
0.064
0.010
-0.053
0.049
0.103
-0.001
-0.023
-0.051
-0.001
0.119
0.025
0.050
0.016
0.114
-0.056
0.070
0.063
0.059
0.083
0.000
0.004
-0.042
0.030
0.107
0.064
0.051
-0.103
-0.016
-0.001
0.057
0.058
-0.014
-0.025
0.070
0.067
-0.040
-0.061
-0.079
0.120
0.059
0.005
0.084
0.045
-0.039
-0.047
0.044
0.012
0.050
0.032
0.058
-0.014
0.061
0.098
0.052
0.017
0.048
-0.026
0.019
-0.028
-0.026
0.131
-0.036
-0.106
0.013
0.067
0.121
0.009
0.019
-0.083
0.078
-0.115
0.206
-0.028
0.057
-0.034
0.136
-0.063
-0.017
-0.041
0.138
0.177
0.097
-0.045
-0.071
0.039
0.070
0.046
-0.005
0.058
0.039
-0.009
0.036
0.017
0.031
0.039
0.001
-0.041
-0.044
0.107
0.100
0.001
0.013
0.036
0.020
-0.033
0.016
0.046
-0.083
0.040
0.013
0.083
-0.002
0.046
-0.039
0.078
0.038
0.014
0.013
0.035
0.046
-0.005
0.023
0.035
0.045
0.001
0.007
0.067
-0.023
0.137
0.026
0.063
0.031
0.026
-0.019
0.004
0.043
0.066
-0.047
-0.087
0.220
-0.003
0.082
-0.044
-0.000
0.065
0.070
0.099
-0.040
-0.057
0.039
0.152
0.044
-0.008
0.047
-0.015
0.009
0.060
-0.103
0.040
-0.001
-0.016
0.131
-0.021
0.113
-0.035
-0.005
-0.018
0.032
0.018
-0.066
0.047
0.112
0.029
-0.002
0.031
-0.037
0.048
0.076
-0.013
0.004
-0.043
0.028
0.186
0.113
-0.097
0.010
0.061
0.091
0.036
0.136
0.013
0.104
-0.160
0.031
0.032
0.077
0.014
-0.109
-0.051
0.158
0.069
-0.024
-0.042
0.074
-0.078
0.068
-0.021
0.049
0.031
0.107
-0.053
0.103
0.008
-0.013
0.044
0.079
0.125
-0.003
0.069
0.052
0.062
-0.004
0.070
-0.002
-0.011
0.022
0.091
0.002
-0.037
0.156
0.027
-0.027
0.118
0.071
-0.054
-0.135
0.082
0.086
0.086
0.063
-0.019
0.021
-0.009
0.009
0.040
0.084
-0.004
0.002
-0.060
-0.079
0.076
0.068
0.031
0.041
0.002
0.049
-0.012
0.014
-0.083
0.100
-0.004
0.079
0.109
-0.093
0.121
0.135
0.095
0.022
-0.099
0.073
0.001
0.095
-0.013
0.092
0.016
0.112
-0.054
0.161
-0.009
0.002
0.015
-0.016
-0.049
-0.036
0.171
0.087
-0.140
0.062
-0.072
0.082
0.096
0.047
0.053
0.022
-0.058
0.001
0.004
0.074
0.012
-0.046
-0.016
-0.041
-0.012
0.085
0.003
-0.075
0.017
0.091
0.019
0.075
0.069
0.012
0.038
-0.140
-0.003
0.120
0.063
0.050
-0.054
0.013
0.061
0.013
0.067
0.084
-0.004
0.035
-0.017
-0.007
0.058
0.127
0.002
-0.020
0.141
0.039
0.054
-0.044
-0.022
-0.084
0.028
0.038
-0.001
0.088
0.134
-0.000
-0.048
-0.014
-0.075
0.125
0.029
0.032
0.089
0.024
0.080
0.014
0.003
0.094
-0.055
0.064
0.011
-0.057
0.021
0.023
0.054
0.064
-0.039
-0.114
-0.028
0.022
0.122
-0.015
0.000
0.116
-0.067
-0.001
-0.038
0.049
0.017
0.053
0.082
0.076
0.037
0.031
-0.010
0.005
0.052
-0.030
0.035
0.021
0.013
0.136
0.041
0.127
-0.054
0.058
-0.007
0.039
0.009
0.019
-0.108
-0.044
0.079
-0.053
0.065
-0.051
0.079
0.039
0.044
-0.024
0.089
-0.004
0.022
-0.095
0.047
0.127
-0.069
-0.093
0.020
0.021
0.029
0.030
0.017
0.026
-0.023
-0.005
0.065
-0.018
0.038
-0.062
0.118
0.016
0.041
-0.010
0.080
0.076
0.007
0.045
0.064
-0.080
0.118
-0.020
-0.011
0.044
0.079
-0.082
0.026
0.057
0.051
0.060
0.017
0.089
0.020
-0.005
-0.039
0.100
-0.084
-0.004
-0.044
0.014
0.089
0.066
0.017
-0.037
0.007
0.005
0.050
-0.044
0.073
0.055
0.041
-0.014
0.003
0.103
-0.030
0.022
-0.007
0.054
-0.023
0.002
0.131
-0.005
-0.006
-0.000
0.106
-0.014
0.079
0.004
0.016
0.081
-0.004
0.022
0.045
-0.044
0.031
-0.021
0.017
0.025
-0.060
0.105
0.029
-0.062
0.087
0.119
-0.052
0.105
0.020
0.189
-0.080
-0.004
0.171
-0.087
-0.010
0.060
0.037
0.112
-0.029
-0.125
-0.044
0.055
0.035
0.069
0.070
-0.031
0.031
0.009
0.063
0.162
-0.005
0.000
-0.018
0.001
-0.107
0.064
0.140
0.061
-0.012
-0.040
0.021
-0.084
-0.121
0.086
0.019
0.029
-0.056
0.114
0.145
0.159
-0.016
-0.043
-0.048
0.068
0.075
0.100
-0.037
0.093
-0.002
0.016
0.077
-0.019
-0.033
0.082
0.026
0.123
0.041
-0.015
0.024
-0.061
0.035
0.023
-0.056
-0.015
0.023
0.086
0.005
-0.018
0.088
0.023
-0.002
-0.011
0.009
0.090
0.076
-0.121
0.102
-0.143
0.039
0.085
-0.038
-0.078
0.085
-0.049
0.060
-0.002
0.100
0.074
0.068
-0.040
0.082
-0.159
0.044
0.110
0.017
0.031
-0.026
0.082
-0.032
-0.026
0.128
-0.063
-0.012
0.073
0.035
0.052
0.016
0.137
-0.109
0.085
-0.021
-0.021
0.011
-0.033
0.064
0.051
-0.101
-0.020
0.167
0.042
-0.040
0.012
0.026
0.052
0.076
-0.012
-0.039
0.065
-0.029
-0.007
-0.029
0.130
-0.027
-0.026
0.148
0.069
-0.069
-0.004
0.100
-0.005
0.077
0.082
-0.003
-0.076
-0.018
-0.064
-0.004
0.133
0.103
-0.030
-0.020
0.180
0.040
-0.019
-0.018
-0.023
0.078
0.041
0.062
-0.001
0.105
0.031
0.027
-0.072
0.082
-0.028
0.048
0.075
0.097
0.022
-0.026
-0.047
0.050
-0.036
-0.063
0.132
-0.001
0.004
0.056
0.037
-0.019
0.191
-0.078
-0.084
0.087
0.087
0.047
0.087
-0.002
0.064
0.033
0.041
-0.053
0.124
0.004
-0.002
-0.110
0.062
0.081
0.180
0.144
-0.041
0.039
-0.000
-0.073
0.046
0.028
0.027
-0.019
0.137
-0.008
-0.113
0.087
0.092
0.038
-0.050
0.079
0.058
0.070
0.097
-0.015
0.041
-0.051
0.003
-0.027
0.061
-0.006
0.002
0.171
-0.051
0.015
0.048
0.016
0.015
0.042
-0.036
0.032
0.151
0.131
0.060
0.034
-0.047
0.058
0.122
0.070
-0.030
0.045
-0.055
-0.077
0.015
0.039
-0.055
0.013
0.047
-0.003
0.037
-0.036
0.029
0.154
0.059
-0.073
0.016
0.061
-0.018
0.046
0.151
-0.073
0.004
0.057
-0.087
0.040
-0.050
0.087
0.113
-0.025
-0.117
-0.053
0.036
0.147
0.107
-0.053
-0.027
0.035
-0.105
0.133
0.143
0.005
-0.030
0.021
0.144
0.076
-0.050
-0.028
-0.032
-0.080
0.166
-0.006
-0.014
0.075
0.020
0.025
0.009
0.063
0.009
-0.045
-0.034
0.034
0.128
-0.011
0.089
0.033
-0.025
0.019
0.018
0.075
0.014
-0.016
0.044
0.066
0.047
0.001
-0.015
-0.001
-0.016
-0.044
-0.033
0.023
0.211
-0.088
-0.046
-0.077
0.169
0.002
0.062
-0.016
0.046
-0.027
0.162
0.073
-0.026
-0.125
0.162
0.050
0.052
0.058
0.015
-0.071
0.088
0.028
-0.086
0.065
0.100
0.083
-0.070
-0.016
0.036
0.015
0.057
0.133
-0.066
-0.030
0.043
-0.115
0.010
0.142
0.042
0.010
0.041
0.030
-0.031
0.040
-0.064
0.162
0.083
-0.033
0.057
0.003
0.050
0.070
-0.099
0.093
0.047
-0.000
0.083
-0.053
-0.027
0.061
0.190
-0.019
-0.111
0.077
-0.017
-0.054
-0.016
-0.008
0.061
0.272
-0.056
-0.046
0.097
-0.082
-0.069
0.048
0.056
-0.039
-0.013
0.079
0.099
0.003
0.127
-0.020
0.022
0.016
-0.049
0.042
0.044
-0.008
0.105
-0.045
0.023
0.040
0.103
0.081
0.122
-0.076
0.065
0.080
-0.030
0.042
0.072
0.062
-0.030
-0.048
0.002
0.004
0.052
0.129
0.002
0.036
0.010
0.007
-0.001
-0.118
0.147
-0.071
0.093
-0.011
0.037
-0.033
0.012
0.055
0.073
0.064
-0.012
-0.085
0.094
0.031
0.102
-0.005
0.083
-0.128
0.020
-0.059
0.104
0.157
-0.101
0.043
-0.036
0.110
0.012
0.051
-0.025
0.104
-0.070
-0.011
0.079
0.026
0.039
0.026
-0.082
0.059
0.001
-0.062
-0.017
-0.014
0.057
0.072
-0.046
-0.064
0.095
0.046
0.010
-0.048
-0.007
0.031
-0.021
0.080
0.026
-0.009
-0.052
0.042
0.025
0.153
0.101
-0.105
-0.010
-0.004
0.171
-0.072
0.043
0.056
-0.007
-0.042
-0.017
0.024
-0.048
0.067
0.057
0.133
-0.005
-0.019
-0.065
0.009
-0.013
-0.008
0.024
-0.062
0.047
0.004
-0.042
0.129
0.041
0.000
0.014
0.053
-0.048
0.073
-0.052
-0.021
0.069
0.033
0.011
0.008
-0.095
-0.016
-0.035
0.116
0.046
-0.046
-0.039
0.044
0.038
-0.014
0.126
0.050
-0.091
0.078
0.121
-0.006
-0.043
0.180
-0.043
0.086
-0.022
0.104
-0.031
-0.091
0.082
0.018
0.019
0.097
0.162
0.150
-0.026
-0.217
0.078
0.010
0.082
-0.033
-0.041
0.096
0.108
-0.091
-0.128
-0.044
0.088
0.047
-0.076
0.080
0.059
-0.057
-0.006
0.075
0.011
-0.054
0.051
0.143
-0.018
-0.032
0.090
-0.044
0.001
0.010
0.058
0.012
0.121
0.093
0.006
-0.059
0.024
-0.007
0.052
0.024
0.005
0.135
-0.090
-0.089
0.129
0.003
0.008
-0.042
0.032
0.087
0.005
-0.091
0.137
0.004
-0.075
0.099
0.045
-0.007
-0.011
0.017
0.069
-0.132
0.063
-0.006
-0.022
0.080
0.005
0.099
0.007
0.050
0.085
-0.068
-0.006
0.023
0.049
-0.003
0.005
0.073
0.008
-0.069
0.007
-0.033
0.074
0.043
0.031
0.025
0.002
0.070
0.001
0.014
-0.016
0.042
-0.001
0.090
-0.003
-0.034
0.065
0.107
-0.003
0.079
-0.083
-0.008
-0.052
0.043
0.140
-0.018
-0.075
0.007
0.010
-0.040
-0.043
0.068
0.091
-0.035
-0.088
-0.074
0.108
0.003
0.125
-0.008
-0.046
0.128
0.096
-0.064
-0.013
0.041
0.108
-0.092
0.186
0.011
0.128
0.135
0.028
0.159
-0.240
-0.249
0.029
0.111
0.226
0.197
-0.078
-0.062
-0.033
-0.014
-0.061
0.083
-0.012
-0.102
-0.043
0.040
0.020
0.069
0.166
-0.015
-0.008
0.048
-0.014
0.027
-0.009
0.011
0.061
0.102
0.041
0.088
-0.015
-0.047
-0.032
0.025
-0.057
0.020
0.085
0.086
-0.044
0.005
0.128
0.086
-0.027
-0.064
-0.053
-0.039
0.102
0.027
0.031
0.099
0.000
-0.134
-0.007
-0.014
0.085
0.051
0.114
-0.124
0.058
0.200
-0.054
0.033
0.091
0.033
-0.039
0.025
0.015
0.048
0.108
-0.164
-0.051
0.124
0.032
-0.223
0.089
-0.022
0.082
0.137
0.030
0.120
0.129
0.175
0.103
0.075
0.075
-0.039
-0.004
-0.039
-0.029
0.233
0.124
-0.054
0.038
0.081
-0.085
-0.142
-0.264
-0.339
-0.315
0.354
-0.737
-0.223
0.417
0.124
0.093
0.035
0.118
0.002
-0.140
0.117
0.055
0.190
0.169
0.224
0.219
0.281
0.040
0.142
0.115
0.055
0.026
-0.124
-0.014
-0.060
-0.079
-0.029
-0.036
-0.049
-0.090
0.097
0.027
0.042
0.078
0.006
0.048
-0.060
0.103
-0.174
-0.053
-0.019
0.024
-0.057
-0.022
0.119
-0.021
-0.022
-0.013
0.198
-0.033
-0.092
0.035
-0.042
0.162
0.027
-0.019
0.001
0.099
0.113
-0.030
-0.080
0.187
-0.007
0.015
0.059
0.041
0.028
0.031
0.006
-0.081
0.073
0.016
0.025
0.038
0.041
-0.051
0.078
0.150
-0.062
-0.040
0.062
0.111
0.022
0.060
0.046
0.014
-0.002
-0.134
0.008
0.081
0.062
0.068
0.025
-0.039
0.100
-0.020
0.077
0.079
-0.107
-0.056
0.049
0.092
0.021
0.097
-0.098
0.054
-0.060
0.023
0.015
0.061
0.012
0.058
-0.008
-0.060
-0.002
-0.003
0.079
0.012
0.063
-0.124
-0.107
0.044
0.074
0.027
0.063
0.059
-0.104
0.059
0.023
-0.007
0.036
0.042
-0.005
0.124
-0.034
0.007
-0.049
-0.003
0.023
0.133
0.003
0.076
-0.056
0.059
0.034
0.079
-0.013
0.024
0.041
-0.057
0.016
-0.058
-0.008
0.084
0.152
0.007
-0.091
-0.050
0.049
0.047
-0.036
-0.050
0.035
0.059
-0.019
0.049
-0.069
-0.022
-0.032
0.057
-0.079
0.104
-0.022
-0.110
0.035
0.050
0.157
0.099
0.032
-0.022
0.014
0.006
-0.054
-0.040
0.090
0.064
0.119
0.083
-0.091
-0.092
0.101
0.147
-0.033
0.032
-0.056
0.046
0.028
0.083
0.107
-0.003
-0.051
-0.025
0.124
-0.019
-0.023
0.068
-0.083
0.093
-0.019
-0.007
0.029
-0.005
0.020
0.074
0.005
-0.031
-0.016
0.078
0.086
-0.075
-0.060
0.040
0.177
-0.041
0.081
-0.037
-0.023
0.145
0.041
0.080
-0.101
-0.094
-0.027
0.116
0.055
0.078
-0.036
0.052
0.041
-0.040
0.007
0.009
0.087
0.039
-0.093
0.138
0.032
-0.101
0.035
0.040
-0.072
0.055
-0.031
0.098
-0.017
-0.055
0.000
0.035
0.033
0.063
-0.058
0.032
0.156
0.018
-0.154
0.108
0.044
0.044
0.028
0.155
-0.003
-0.004
-0.082
0.013
-0.038
0.064
0.065
-0.013
-0.019
-0.028
-0.016
-0.046
0.003
0.082
-0.034
0.135
-0.062
-0.094
0.039
0.101
0.054
0.108
0.072
0.026
-0.015
-0.002
0.035
0.016
-0.013
0.026
-0.003
0.097
0.001
0.042
-0.019
0.028
0.009
0.033
-0.059
0.078
0.031
-0.048
-0.050
-0.075
0.032
0.102
0.017
0.000
0.055
-0.097
-0.069
0.006
0.062
-0.019
0.033
0.002
-0.210
0.152
0.120
0.106
0.034
-0.046
0.003
0.019
-0.003
0.033
0.056
0.078
0.079
-0.012
-0.001
-0.122
0.232
-0.010
-0.029
-0.013
-0.077
-0.017
0.060
-0.028
-0.056
0.030
0.002
0.051
0.042
-0.010
0.112
0.079
-0.078
-0.039
0.008
0.067
-0.059
-0.013
0.123
0.045
0.063
0.049
-0.101
-0.037
0.032
0.102
0.052
-0.036
-0.046
0.066
0.019
0.102
0.040
-0.041
0.025
-0.101
0.009
0.107
-0.043
0.046
0.073
-0.027
0.012
0.029
-0.025
-0.013
-0.026
0.034
-0.073
-0.078
0.052
0.058
0.035
0.015
0.114
0.030
0.038
-0.001
0.010
-0.096
0.066
0.034
0.060
0.153
0.017
-0.000
0.069
0.082
-0.134
-0.065
-0.031
0.119
0.077
0.003
0.006
0.014
-0.005
0.036
-0.061
0.034
0.036
0.056
0.113
0.094
-0.005
-0.062
-0.093
-0.060
0.030
-0.050
-0.058
0.072
-0.005
0.041
-0.020
0.158
-0.007
-0.018
0.019
-0.046
-0.056
0.028
-0.083
0.165
0.030
0.014
0.134
-0.011
-0.040
0.009
-0.013
0.115
0.029
0.104
0.021
0.053
0.086
0.002
-0.078
0.079
0.083
-0.112
0.112
-0.042
0.053
0.111
-0.049
-0.100
0.041
0.032
0.076
-0.018
0.128
-0.017
-0.004
0.088
-0.006
-0.054
0.029
0.162
-0.057
0.081
0.027
-0.022
0.023
0.089
0.127
-0.077
-0.071
0.019
0.013
-0.050
-0.028
0.073
0.032
0.022
0.112
-0.023
-0.023
-0.073
-0.011
0.026
0.119
-0.014
0.100
0.058
-0.009
0.025
-0.064
0.007
0.093
0.027
0.084
0.019
-0.037
0.029
0.125
-0.082
0.032
0.006
-0.024
0.003
-0.000
-0.052
0.092
0.019
0.040
0.007
-0.030
-0.094
0.011
0.082
0.024
0.108
-0.008
0.001
0.004
-0.044
0.058
-0.056
0.022
0.045
0.030
-0.026
-0.085
-0.051
0.008
0.007
0.215
-0.024
0.018
-0.037
0.011
0.091
0.015
0.030
-0.007
0.142
-0.020
0.045
-0.001
0.060
-0.011
0.042
-0.070
-0.083
0.009
0.036
0.038
-0.009
0.046
-0.005
-0.087
0.177
-0.007
0.021
0.100
0.008
-0.046
0.123
-0.116
0.070
0.012
0.081
0.007
-0.019
-0.057
-0.001
0.052
-0.002
-0.048
0.064
0.026
0.118
-0.152
-0.058
0.107
0.154
-0.050
0.163
0.036
-0.088
0.032
0.110
-0.053
-0.021
0.037
0.046
-0.017
0.117
-0.013
-0.038
-0.019
0.030
0.052
-0.003
-0.036
-0.009
0.118
-0.012
0.037
-0.043
0.061
0.172
-0.136
0.026
0.137
-0.064
-0.033
0.011
0.070
-0.060
0.154
0.094
-0.039
-0.035
0.098
0.046
0.087
0.003
0.012
0.010
-0.010
0.017
0.088
0.095
0.130
0.024
-0.046
-0.042
-0.013
0.035
0.169
0.012
0.173
-0.023
-0.023
-0.208
0.011
0.033
0.205
0.029
0.010
-0.027
0.026
0.062
0.095
-0.042
0.046
0.026
0.049
0.094
-0.099
-0.025
0.056
0.088
0.071
0.099
0.040
-0.029
0.038
0.045
0.031
0.012
0.007
0.119
-0.027
0.140
0.045
0.010
0.028
-0.011
0.061
-0.032
0.127
-0.025
0.126
0.054
-0.090
-0.001
-0.016
0.000
0.061
0.052
-0.014
-0.017
0.034
0.110
0.008
-0.013
-0.087
0.008
0.055
-0.003
0.027
-0.011
0.027
-0.059
0.056
-0.071
0.013
0.117
0.123
0.113
-0.066
-0.067
-0.012
0.038
0.035
0.100
-0.022
0.265
-0.097
-0.117
0.052
0.095
0.077
-0.046
-0.076
-0.016
0.031
0.090
-0.078
0.033
0.149
0.072
0.034
0.039
-0.049
0.013
-0.047
0.077
0.104
0.001
0.055
-0.029
-0.005
-0.059
0.116
-0.091
0.100
0.045
-0.047
0.013
0.163
0.218
-0.042
0.007
-0.002
-0.013
-0.011
0.067
0.006
0.007
0.035
0.084
0.023
0.014
0.010
0.098
0.084
0.101
-0.034
-0.012
0.026
0.043
0.015
0.156
-0.093
0.017
-0.052
0.145
-0.099
0.010
-0.063
0.115
0.072
0.062
0.066
-0.012
0.013
-0.018
0.112
0.054
-0.030
0.026
0.023
0.095
-0.021
-0.007
0.082
-0.038
0.029
0.107
-0.053
-0.026
-0.020
0.049
0.148
-0.001
0.008
0.055
0.026
0.021
-0.020
0.047
-0.034
-0.076
0.095
0.126
0.013
0.002
0.044
-0.110
0.040
0.097
-0.085
0.005
0.044
-0.034
0.000
0.021
0.076
-0.022
0.101
0.096
0.066
-0.067
-0.012
-0.021
-0.050
0.038
-0.030
0.074
-0.020
0.066
-0.029
-0.021
0.045
0.005
0.046
0.077
0.044
-0.030
0.077
-0.049
-0.014
0.034
0.110
0.041
0.007
-0.075
-0.136
0.048
0.051
0.093
-0.003
-0.127
0.046
0.025
-0.004
0.054
-0.000
0.065
0.046
-0.010
0.035
-0.123
-0.013
0.181
-0.057
-0.042
0.018
0.096
0.027
0.022
0.007
0.023
0.074
0.088
-0.044
-0.007
0.037
0.050
-0.016
-0.002
-0.020
-0.049
0.013
0.028
0.014
-0.094
0.039
0.060
0.005
0.089
-0.016
-0.042
0.166
0.008
0.020
-0.078
0.128
-0.063
-0.046
0.060
0.075
-0.012
0.076
-0.035
-0.047
0.027
0.073
-0.002
-0.144
0.109
0.161
0.045
-0.064
-0.039
-0.053
0.035
0.156
0.138
0.026
-0.014
0.042
-0.088
0.024
0.088
0.034
0.147
-0.035
0.098
0.020
0.047
-0.050
0.001
-0.004
0.121
0.059
-0.004
0.101
-0.091
-0.061
0.072
0.010
0.003
0.046
0.030
0.090
0.033
-0.094
0.074
0.010
-0.004
0.091
0.030
0.010
0.104
-0.055
0.015
0.104
0.004
0.003
0.077
-0.037
-0.086
0.057
0.133
0.061
-0.071
0.025
-0.006
-0.010
0.188
-0.018
-0.179
-0.007
0.025
0.073
-0.013
0.120
-0.013
-0.053
0.023
0.063
0.052
0.094
0.004
-0.111
-0.007
0.135
0.090
0.026
0.018
0.108
0.044
-0.083
0.036
0.094
-0.143
0.026
0.069
-0.062
-0.094
0.094
0.039
0.077
-0.047
0.030
0.014
-0.114
0.090
0.154
-0.058
-0.074
-0.067
0.084
0.090
0.056
-0.028
-0.050
0.004
0.148
0.061
0.012
-0.022
0.085
0.006
0.024
0.029
-0.072
0.097
0.144
-0.092
0.126
0.072
0.004
-0.112
0.002
0.008
0.042
-0.019
-0.035
0.088
0.115
-0.064
-0.027
0.168
0.001
-0.020
0.014
-0.001
-0.055
0.022
0.073
0.085
0.050
0.050
-0.037
0.033
-0.021
0.071
0.063
0.096
-0.061
0.113
0.005
0.028
-0.030
-0.008
-0.073
0.048
0.074
0.061
0.011
0.036
-0.021
0.060
0.092
0.133
-0.021
-0.031
-0.025
-0.030
0.005
0.032
0.128
-0.014
-0.033
0.044
-0.098
-0.048
0.070
-0.011
0.030
0.053
0.108
0.036
0.025
0.024
-0.033
-0.084
0.160
0.083
0.011
-0.040
-0.001
0.012
0.087
-0.009
-0.107
0.044
0.074
0.121
-0.097
-0.051
0.078
0.033
-0.044
0.099
-0.083
0.094
0.065
0.056
0.038
-0.033
0.055
0.070
-0.101
-0.039
0.182
0.054
-0.042
0.047
-0.004
-0.068
0.017
0.103
-0.012
0.052
-0.125
0.011
0.067
0.126
0.083
0.010
-0.018
-0.079
-0.026
0.049
-0.107
0.086
0.214
0.008
-0.021
0.067
0.001
0.007
-0.018
0.061
0.059
0.049
0.007
0.118
-0.006
0.005
0.069
0.098
0.058
-0.088
0.036
0.024
0.027
-0.101
0.092
-0.096
-0.057
0.112
0.044
0.013
0.053
0.020
-0.030
-0.072
0.051
0.135
-0.044
0.031
0.063
0.039
0.065
0.122
0.122
0.276
0.154
-0.065
-0.366
-0.478
-0.009
0.238
0.164
0.269
0.200
-0.045
0.078
-0.294
-0.060
0.008
-0.177
0.026
0.089
0.055
0.143
0.048
0.260
0.187
0.096
-0.150
-0.477
-0.059
0.230
0.312
0.130
-0.324
-0.144
0.415
-0.094
-0.314
0.040
-0.089
0.175
0.112
0.024
-0.178
-0.014
0.039
-0.000
0.024
0.099
0.046
0.131
0.113
0.074
0.066
0.051
0.001
-0.112
-0.018
0.054
0.015
-0.026
0.027
0.038
-0.003
0.061
0.014
0.083
0.027
0.034
0.061
-0.055
-0.091
0.054
-0.000
-0.026
-0.001
0.053
0.003
-0.037
0.099
0.034
-0.046
0.061
0.113
0.034
0.040
-0.080
0.023
0.048
0.100
0.006
-0.014
0.008
0.103
0.008
-0.121
0.042
0.027
0.092
0.099
0.065
0.048
-0.001
-0.015
0.098
-0.059
0.112
0.015
0.050
-0.026
0.034
0.023
-0.091
0.059
0.069
-0.020
0.002
0.127
0.031
-0.083
0.007
0.079
0.064
0.121
0.026
0.083
-0.054
-0.006
0.059
0.025
-0.031
0.060
0.016
0.038
-0.009
-0.012
0.056
0.025
-0.044
-0.002
0.057
0.068
-0.056
-0.112
0.168
0.051
-0.040
0.010
0.084
0.068
0.045
0.017
-0.016
0.117
0.089
-0.012
-0.028
0.034
0.013
-0.031
0.014
-0.093
-0.178
0.111
0.136
0.079
0.119
-0.096
-0.064
0.075
-0.007
-0.131
0.012
0.041
0.018
0.070
0.103
0.076
-0.032
0.021
0.028
-0.047
0.099
0.142
-0.020
0.044
0.155
-0.085
-0.020
0.021
0.065
0.087
0.077
-0.029
0.062
0.088
0.087
-0.064
0.065
0.007
0.082
0.071
-0.043
-0.044
-0.034
0.024
-0.067
0.056
0.051
0.030
0.059
-0.047
0.098
-0.101
0.059
-0.052
0.037
-0.060
0.101
-0.004
0.179
0.208
-0.110
-0.203
0.048
0.151
0.012
0.040
-0.027
0.069
0.136
-0.052
0.220
-0.204
-0.206
-0.023
0.067
0.179
0.159
0.016
0.089
0.216
0.024
-0.043
0.020
-0.105
-0.356
-0.057
0.179
0.277
-0.055
-0.049
-0.037
-0.017
-0.094
-0.034
-0.015
0.160
0.081
-0.033
-0.028
0.063
0.058
0.170
0.082
0.062
0.054
0.079
0.087
-0.130
-0.016
0.034
-0.004
-0.092
0.124
-0.090
0.004
0.057
-0.001
-0.042
-0.035
-0.016
-0.023
0.074
0.120
-0.024
0.001
0.107
-0.044
-0.080
0.019
0.111
0.073
-0.062
0.055
0.101
-0.034
-0.038
0.044
0.021
0.008
0.078
-0.081
0.053
-0.039
-0.097
0.142
0.050
-0.001
0.072
0.008
0.021
0.117
0.048
0.103
0.099
-0.030
-0.019
0.058
-0.068
0.028
0.173
0.059
0.055
0.055
0.123
-0.002
-0.032
0.112
0.059
-0.036
-0.031
0.016
0.125
0.031
-0.021
-0.106
-0.008
0.039
-0.054
0.050
0.041
0.015
-0.044
0.032
0.081
0.132
-0.064
-0.111
0.150
0.047
0.094
-0.126
-0.000
0.100
0.105
0.013
-0.107
-0.038
0.047
-0.050
0.054
-0.009
-0.000
-0.030
-0.010
0.072
0.000
-0.034
0.118
0.049
-0.009
0.171
-0.019
-0.062
0.024
0.032
0.002
0.085
0.110
-0.010
-0.012
0.091
-0.094
0.003
0.035
-0.018
-0.006
-0.007
0.048
-0.008
0.038
0.011
-0.033
0.116
-0.091
0.023
0.116
0.022
-0.040
0.010
0.033
0.039
0.004
-0.105
0.118
0.158
-0.186
0.044
-0.095
0.039
0.112
0.014
-0.045
-0.032
0.025
-0.114
-0.040
0.009
0.115
0.095
-0.058
-0.040
0.037
-0.034
0.051
-0.079
0.166
0.114
0.021
-0.006
0.078
0.071
0.043
0.102
-0.003
-0.046
-0.006
-0.051
0.031
0.039
0.057
-0.017
0.047
0.021
0.113
-0.054
0.019
0.013
0.012
0.037
-0.023
-0.007
0.065
-0.065
-0.027
0.041
0.053
0.125
-0.038
-0.022
0.045
-0.071
0.201
-0.010
-0.051
0.054
-0.040
0.051
-0.020
0.052
-0.022
0.033
0.079
0.044
0.064
0.025
0.084
-0.100
0.035
0.000
-0.032
0.062
-0.130
0.110
-0.031
0.126
0.031
0.044
-0.103
0.039
0.084
0.078
0.089
-0.061
0.001
0.044
0.095
-0.031
0.007
0.076
-0.072
0.041
0.058
0.100
-0.005
0.038
-0.011
0.001
-0.046
-0.037
0.026
0.137
-0.022
0.066
-0.027
0.048
0.009
-0.032
-0.004
0.021
0.047
0.048
0.116
-0.008
-0.009
0.051
0.021
0.032
-0.001
0.039
-0.024
-0.016
0.049
0.018
0.010
0.039
-0.031
-0.078
-0.021
0.049
0.053
0.038
0.049
0.045
-0.116
0.029
0.030
0.042
0.083
-0.034
0.014
0.083
0.084
-0.075
-0.030
-0.003
0.039
0.054
0.112
-0.045
-0.046
0.118
0.029
-0.094
0.057
0.022
-0.017
0.050
0.029
-0.094
0.060
0.067
0.017
-0.118
-0.019
0.095
0.097
-0.066
0.054
0.011
-0.032
-0.066
-0.012
0.070
0.017
-0.068
0.112
-0.002
-0.048
-0.003
0.045
0.150
0.019
-0.034
0.047
0.093
0.044
-0.051
0.075
0.045
0.150
0.013
-0.046
-0.030
0.024
-0.029
-0.026
0.173
-0.063
0.007
0.026
0.033
0.089
0.022
0.066
0.087
0.056
0.008
-0.001
0.090
0.012
-0.024
0.038
-0.022
0.040
0.005
0.000
0.024
-0.004
0.091
0.035
-0.013
0.020
-0.068
0.099
0.068
0.028
-0.181
0.174
0.056
0.053
0.042
-0.073
-0.010
-0.105
0.084
0.136
-0.016
0.111
0.090
0.014
0.076
-0.022
-0.003
-0.089
-0.042
0.085
-0.113
0.006
0.172
-0.017
0.083
-0.001
-0.015
0.048
0.077
0.106
-0.101
-0.097
0.128
0.155
0.065
0.034
-0.021
-0.014
0.134
-0.177
0.017
0.036
0.050
0.153
-0.060
0.041
0.042
-0.032
-0.001
-0.101
0.088
0.067
0.025
-0.141
0.111
0.147
-0.049
-0.132
-0.047
0.080
0.005
0.119
0.021
0.076
0.035
-0.064
-0.054
-0.001
0.090
-0.002
-0.039
0.061
0.023
-0.076
-0.009
0.094
0.088
0.077
-0.044
-0.014
0.023
0.108
0.038
0.082
0.048
0.057
-0.003
0.043
-0.053
0.107
-0.027
0.025
-0.008
0.101
0.043
-0.088
-0.013
0.045
0.100
0.114
-0.047
-0.000
0.034
0.189
-0.119
-0.014
0.091
-0.023
-0.103
0.086
0.170
0.015
0.021
0.002
0.076
-0.109
-0.001
-0.054
-0.040
0.064
0.054
0.139
0.017
0.018
0.071
-0.002
-0.001
0.036
0.034
0.096
-0.078
0.175
0.006
0.046
-0.061
0.151
-0.021
0.011
0.025
0.160
-0.046
0.073
-0.031
0.078
-0.144
-0.010
0.030
0.133
0.010
0.048
0.021
0.013
-0.070
0.085
0.092
-0.039
0.063
0.007
0.018
-0.017
0.016
-0.045
-0.004
0.123
0.114
0.075
0.118
0.065
-0.010
-0.075
0.086
-0.005
0.054
0.011
0.064
0.125
0.013
0.017
0.015
-0.021
0.024
0.070
0.057
-0.150
-0.045
0.041
0.113
0.056
-0.060
-0.062
0.020
0.045
0.029
-0.029
-0.009
0.044
0.184
-0.027
0.003
0.088
0.252
-0.013
-0.325
0.042
0.079
0.023
0.025
0.011
0.054
0.012
-0.042
0.053
0.019
0.037
-0.023
0.079
0.136
0.009
-0.055
-0.102
0.021
0.075
0.042
0.063
-0.037
0.142
-0.038
0.079
-0.089
0.109
0.043
0.010
-0.091
0.075
0.111
-0.045
0.066
-0.142
-0.004
0.185
0.087
-0.137
-0.028
0.178
0.061
0.093
0.045
-0.062
0.047
0.021
-0.007
-0.078
0.080
0.036
0.085
-0.085
0.122
0.012
0.041
-0.064
0.033
0.020
0.006
0.153
0.050
-0.025
-0.077
0.028
0.014
0.042
0.034
0.093
0.071
0.022
-0.012
0.083
-0.026
-0.037
0.104
0.077
0.010
0.079
0.050
-0.007
0.056
-0.066
0.014
-0.000
0.064
0.097
0.038
0.049
-0.019
-0.108
0.000
0.025
0.091
0.023
0.046
-0.074
0.009
0.083
0.105
0.052
-0.034
-0.026
-0.039
-0.012
0.130
0.061
0.012
0.057
-0.076
-0.005
0.050
-0.032
-0.012
0.013
0.092
-0.043
0.136
-0.037
-0.089
-0.051
0.097
0.027
0.061
0.107
