-0.018
0.065
-0.042
0.038
-0.007
0.018
-0.006
-0.062
0.158
0.094
-0.060
0.018
-0.053
0.134
0.025
-0.051
0.017
-0.039
0.094
0.013
0.017
-0.003
-0.023
-0.049
-0.017
-0.005
0.080
-0.086
0.067
0.052
-0.001
0.024
-0.011
-0.028
0.024
-0.011
0.133
0.033
-0.121
0.007
-0.006
-0.027
0.073
0.126
-0.044
0.098
0.071
-0.163
-0.062
0.017
0.021
0.045
0.063
0.055
0.002
0.062
-0.043
0.101
-0.049
-0.014
0.028
-0.008
-0.115
-0.046
0.172
0.047
0.035
-0.401
-0.018
0.183
-1.254
-0.419
3.101
4.098
4.313
4.073
0.737
-2.931
-4.433
-4.655
1.344
3.495
4.068
4.129
2.345
-0.729
-1.753
-1.354
-0.221
1.328
3.094
3.714
3.868
3.815
3.469
2.459
1.156
-0.118
-1.051
-1.644
-1.014
-0.635
-0.751
-0.876
-0.920
-2.860
-1.123
1.033
1.990
0.900
-2.282
0.661
3.511
4.042
2.545
1.095
0.036
0.002
0.433
0.923
1.485
1.921
2.135
2.246
1.973
1.578
1.390
1.077
0.875
0.669
0.362
0.263
0.256
0.330
0.216
0.545
0.657
0.500
0.436
0.453
0.471
0.512
0.369
0.345
0.388
0.284
0.134
0.105
0.053
0.001
0.053
-0.116
-0.074
-0.189
-0.171
-0.274
-0.186
-0.149
-0.283
-0.226
-0.234
-0.215
-0.340
-0.325
-0.297
-0.327
-0.358
-0.414
-0.308
-0.288
-0.285
-0.475
-0.380
-0.288
-0.375
-0.329
-0.276
-0.156
-0.276
-0.301
-0.220
-0.133
-0.235
-0.264
-0.143
-0.125
-0.108
-0.081
-0.153
-0.201
-0.116
-0.018
0.009
0.006
-0.098
0.010
0.001
-0.052
-0.056
0.033
0.083
0.015
0.074
0.097
-0.001
0.062
0.094
0.018
0.065
0.268
0.144
0.086
0.029
0.097
0.004
0.110
0.157
0.103
0.112
-0.022
0.043
0.050
0.100
0.148
0.152
-0.000
0.085
0.080
0.065
0.108
0.078
0.072
0.109
0.161
0.097
0.040
0.156
0.104
0.079
0.092
0.135
0.191
0.086
0.165
-0.074
0.162
0.112
0.023
0.085
0.058
0.017
0.237
0.073
-0.045
0.127
0.139
0.129
0.004
0.083
0.026
-0.047
0.142
0.067
0.041
-0.035
-0.013
0.054
-0.074
-0.060
-0.042
-0.074
0.052
0.049
-0.090
-0.074
-0.127
-0.036
-0.065
-0.058
-0.096
-0.005
-0.035
-0.078
-0.007
-0.155
-0.240
-0.140
0.114
-0.049
-0.161
-0.130
0.015
-0.129
-0.104
-0.077
0.014
-0.016
-0.025
-0.007
-0.064
-0.106
-0.046
-0.019
0.012
-0.056
-0.028
-0.027
0.097
0.038
-0.081
-0.062
0.021
0.130
0.084
0.016
0.020
0.122
0.080
-0.036
0.011
-0.353
0.079
0.360
0.299
0.282
0.044
0.010
0.032
0.163
0.237
0.170
0.220
0.143
0.064
0.173
0.155
0.096
0.149
0.125
0.047
-0.167
-0.004
0.069
0.015
0.023
0.123
0.085
0.076
0.049
0.007
-0.045
0.065
0.000
0.098
-0.118
0.147
0.087
-0.013
-0.053
-0.121
0.003
-0.025
-0.059
-0.022
0.022
-0.178
0.009
-0.027
-0.053
0.021
-0.101
0.013
-0.092
-0.083
-0.034
0.084
-0.065
-0.083
-0.058
0.026
-0.037
-0.006
-0.021
-0.055
-0.044
0.002
-0.069
-0.026
-0.007
0.135
-0.095
0.026
0.114
0.001
0.005
0.019
-0.021
-0.034
-0.013
0.037
0.114
0.116
0.062
0.080
-0.019
0.109
-0.053
-0.026
0.154
0.054
0.112
-0.025
-0.007
0.118
-0.056
0.053
0.160
0.214
0.066
-0.049
-0.177
-0.175
0.059
0.146
-1.104
-3.447
-0.960
3.056
4.226
4.457
3.366
-1.550
-3.873
-4.469
-3.103
-0.071
3.073
4.164
4.367
4.326
4.153
3.950
3.147
1.679
0.018
-1.412
-2.347
-2.657
-2.853
-2.512
-2.244
-1.623
-1.054
-0.598
-0.082
0.271
0.386
0.561
0.662
0.647
0.583
0.586
0.532
0.339
0.362
0.419
0.501
0.448
0.283
0.493
0.460
0.529
0.635
0.527
-0.625
-2.908
0.896
3.965
4.802
4.836
0.771
-2.805
-3.896
-4.050
-2.156
1.010
3.740
4.562
4.677
4.540
4.344
4.125
3.353
1.875
0.329
-0.881
-1.834
-2.410
-2.432
-2.494
-1.988
-1.654
-1.184
-0.767
-0.476
-0.092
0.028
0.127
0.327
0.275
0.186
0.201
0.120
0.069
0.179
-0.059
0.212
0.077
0.238
0.264
0.390
0.508
0.945
1.276
1.093
0.780
0.521
0.577
0.604
0.786
0.772
0.841
0.659
0.604
0.575
0.522
0.407
0.113
-0.004
0.050
0.108
0.005
0.033
0.142
-0.002
0.270
0.175
0.048
0.010
0.038
0.128
0.035
0.087
0.071
-0.030
0.023
-0.091
-0.005
-0.106
-0.198
-0.071
-0.069
-0.064
-0.120
-0.115
-0.189
-0.173
-0.238
-0.087
-0.154
-0.122
-0.097
-0.181
-0.132
-0.147
-0.232
-0.079
-0.131
-0.161
-0.093
-0.152
-0.125
-0.189
-0.047
0.053
0.036
0.033
-0.134
-0.236
0.061
0.081
0.064
-0.049
-0.012
0.005
0.131
0.030
0.101
0.048
-0.020
0.025
0.050
-0.056
0.057
0.047
0.133
0.017
0.046
0.105
0.066
0.014
0.071
-0.048
0.055
0.049
0.019
0.050
-0.073
0.186
0.068
-0.045
-0.061
0.025
0.012
-0.125
-0.084
0.093
-0.022
-0.079
0.047
0.025
-0.034
0.009
0.047
-0.090
-0.036
-0.065
0.079
-0.100
0.079
0.035
0.109
-0.131
0.001
-0.020
-0.014
0.048
0.030
0.055
-0.035
0.031
0.075
0.017
0.068
-0.008
0.088
0.095
0.043
0.102
0.112
0.013
-0.108
0.023
0.056
0.142
0.023
0.055
-0.006
0.024
0.090
0.153
0.118
0.090
0.107
0.020
0.112
0.101
0.079
0.098
0.081
-0.082
-0.053
-0.015
0.049
0.021
0.006
0.030
-0.050
-0.079
0.177
-0.013
-0.142
-0.067
0.071
0.000
-0.006
-0.021
0.106
-0.008
0.011
-0.175
-0.041
0.012
0.029
-0.034
-0.014
-0.040
-0.066
0.027
-0.023
0.053
-0.029
-0.098
0.057
-0.056
0.067
0.110
-0.060
-0.019
0.056
0.076
0.152
0.005
-0.112
-0.073
0.025
0.099
0.063
-0.005
0.111
0.274
-0.107
-0.067
0.143
0.016
0.035
0.056
0.114
0.024
0.022
-0.007
0.084
0.025
0.152
0.072
0.047
-0.027
0.115
0.024
-0.021
0.086
0.167
0.046
0.163
-0.004
-0.063
0.061
0.021
0.019
0.035
0.108
-0.100
0.003
-0.020
0.023
-0.019
0.012
0.013
-0.021
-0.064
-0.024
-0.078
0.036
0.013
-0.063
0.142
-0.006
-0.226
-0.206
0.152
0.049
-0.016
0.013
-0.121
-2.353
-3.836
1.661
3.824
4.356
4.409
0.040
-3.411
-4.372
-4.330
-1.324
2.441
3.993
4.379
4.348
4.211
4.046
3.839
2.628
0.957
-0.889
-2.275
-2.961
-3.220
-3.282
-2.781
-2.193
-1.328
-0.921
-0.233
-2.161
-3.577
0.273
3.704
4.097
-1.577
1.612
2.656
0.976
-0.354
-0.820
0.139
1.427
2.768
3.805
4.070
4.028
3.401
2.630
1.667
0.854
-0.113
-0.629
-1.053
-1.208
-1.223
-1.010
-0.793
-0.550
-0.329
-0.148
0.128
0.286
0.292
0.236
0.448
0.367
0.369
0.385
0.286
0.219
0.240
0.118
0.370
0.091
0.304
0.319
0.216
0.162
0.215
0.365
0.455
0.113
0.165
0.207
0.183
0.254
0.214
0.230
0.034
0.065
0.072
0.099
0.075
0.189
0.084
-0.007
-0.133
0.010
-0.035
-0.013
-0.133
-0.060
-0.106
-0.107
-0.052
-0.115
-0.225
-0.034
-0.116
-0.186
-0.098
-0.127
-0.188
-0.064
-0.217
-0.188
-0.191
-0.144
-0.116
-0.245
-0.177
-0.136
-0.227
-0.062
-0.189
-0.074
-0.143
-0.150
-0.219
-0.041
-0.120
-0.122
-0.107
-0.073
-0.005
0.044
0.042
0.031
0.017
0.007
-0.119
0.044
0.108
0.055
-0.017
0.065
0.161
-0.034
0.094
0.072
0.026
0.062
0.154
0.109
0.133
0.009
0.174
0.055
0.069
0.046
0.155
0.136
0.014
0.002
0.185
0.012
0.158
0.130
0.086
0.062
0.069
0.048
0.072
0.076
0.091
0.074
0.026
0.064
0.113
0.012
0.014
-0.004
0.113
0.002
0.081
0.049
-0.002
-0.126
-0.069
0.018
-0.063
-0.267
-0.498
-0.700
-0.581
-0.466
-0.149
-0.064
-0.323
-0.798
-0.929
-0.553
-0.109
-0.173
-0.288
-0.430
-0.252
-0.072
0.308
0.265
0.218
0.067
0.077
0.384
0.358
0.345
0.404
0.225
0.169
-0.054
-0.209
-0.502
-1.229
-0.872
-0.954
-0.191
1.714
2.145
1.140
0.043
-0.523
-0.591
-0.259
0.063
0.497
0.651
0.704
0.742
0.450
0.232
-0.055
-0.358
-0.622
-0.676
-0.698
-0.694
-0.592
-0.611
-0.531
-0.351
-0.066
-0.084
-0.055
0.158
0.213
0.259
0.063
0.288
0.168
0.420
0.429
0.393
0.084
0.289
0.354
0.403
0.417
0.392
0.298
0.349
0.346
0.473
0.365
0.478
0.403
0.346
0.328
0.394
0.320
0.229
0.263
0.191
0.268
0.168
0.257
0.211
0.138
0.144
0.074
0.039
0.137
0.040
-0.119
0.029
-0.098
-0.036
-0.094
0.005
-0.089
-0.142
-0.086
-0.230
-0.134
-0.124
-0.123
-0.131
-0.204
-0.198
-0.182
-0.129
-0.186
-0.038
-0.167
-0.111
-0.283
-0.098
-0.143
-0.035
-0.033
-0.149
-0.035
-0.115
-0.081
-0.131
-0.029
0.041
-0.102
-0.068
-0.124
0.097
0.048
-0.065
-0.036
-0.055
0.162
0.009
0.106
-0.086
0.039
0.102
0.040
0.010
0.022
0.101
0.203
0.151
0.033
0.100
0.027
-0.033
-0.026
0.179
0.175
0.108
-0.015
-0.019
-0.024
0.061
0.033
0.070
0.048
0.097
0.072
0.020
-0.191
0.108
0.091
0.061
0.100
-0.048
-0.058
0.144
-0.025
0.021
0.030
0.058
-0.010
0.136
0.040
0.021
0.058
-0.744
-3.095
2.269
3.941
0.615
3.074
1.639
-0.793
-2.321
-2.336
-1.254
0.429
1.977
3.173
3.135
3.218
3.082
2.639
1.341
0.439
-1.175
-3.680
-4.638
-0.536
2.870
3.872
3.530
0.774
-2.130
-4.036
-4.109
-4.223
-0.141
3.401
4.436
4.674
4.624
4.524
4.294
3.235
1.837
0.451
-0.474
-1.137
-1.652
-1.833
-1.657
-1.319
-0.979
-0.544
-0.075
0.137
0.469
0.659
0.392
-2.554
-2.533
2.435
4.618
4.477
1.970
-0.494
-1.404
-1.129
-0.284
0.735
1.703
2.371
2.691
2.733
2.272
1.559
-2.509
-0.617
3.131
4.238
1.838
-0.243
-1.666
-1.246
-1.377
-1.000
-0.389
0.602
0.729
1.378
2.217
2.186
2.323
1.833
0.860
0.125
-0.489
-0.969
-1.050
-1.250
-1.158
-0.908
-0.717
-0.626
-0.257
-0.243
-0.113
-0.078
-0.085
0.036
0.069
0.004
0.134
0.069
0.024
0.107
0.167
0.217
0.218
0.221
0.227
0.242
0.276
0.355
0.320
0.373
0.333
0.337
0.299
0.358
0.374
0.375
0.304
0.219
0.296
0.270
0.249
0.172
0.181
0.048
0.249
0.179
0.145
0.027
0.048
-0.003
-0.029
0.033
-0.013
-0.048
0.000
-0.092
-0.039
-0.085
-0.136
-0.150
-0.114
-0.239
-0.152
-0.227
-0.104
-0.230
-0.149
-0.198
-0.186
-0.203
-0.345
-0.309
-0.305
-0.167
-0.202
-0.204
-0.225
-0.108
-0.166
-0.077
-0.044
-0.107
-0.128
-0.029
0.146
0.037
0.001
-0.051
-0.135
0.157
0.089
-0.009
-0.125
-0.088
-0.064
-0.044
-0.244
-0.250
0.205
0.399
0.432
0.221
-0.111
-0.004
-0.011
0.136
0.295
0.465
0.548
0.437
0.154
0.060
0.103
0.199
0.072
-0.014
-0.063
-0.083
-0.215
-0.068
-0.175
-0.126
-0.082
-0.195
-0.046
-0.055
-0.123
-0.163
-0.169
-0.250
0.003
-0.063
-0.023
0.003
-0.047
-0.124
-0.023
0.055
0.042
0.106
-0.052
0.005
0.120
0.143
0.068
0.102
0.157
0.188
0.074
0.270
0.167
0.134
-0.024
0.039
0.330
0.296
0.237
0.165
0.107
0.142
0.146
0.141
0.220
0.141
0.190
0.154
0.071
0.226
0.056
0.045
0.174
0.096
0.096
0.091
0.067
0.062
0.069
0.003
-0.005
-0.037
0.013
0.001
0.045
0.050
-0.022
-0.120
-0.040
-0.041
0.020
-0.111
-0.128
0.030
-0.074
-0.056
0.029
-0.070
-0.050
-0.068
-0.187
0.029
0.001
-0.055
-0.164
-0.059
-0.196
-0.140
-0.072
0.092
-0.086
-0.125
0.002
-0.137
-0.050
0.023
-0.084
0.044
-0.046
-0.067
-0.053
0.042
0.102
0.012
0.042
0.069
-0.051
-0.151
-3.044
-0.801
3.059
4.182
4.408
1.609
-2.789
-4.185
-4.404
-1.839
1.659
3.749
4.341
4.421
4.308
4.137
3.972
3.624
2.651
1.163
-0.419
-1.638
-2.447
-2.859
-2.767
-2.579
-2.126
-1.516
-1.004
-0.532
-0.121
0.165
0.562
0.788
0.732
0.682
0.664
0.527
-1.915
0.490
1.744
-1.655
-3.055
0.756
4.151
4.863
2.658
-0.064
-1.249
-1.196
-0.276
0.815
1.963
2.703
3.088
2.966
2.602
2.005
1.411
0.747
0.125
-0.369
-0.467
-0.856
-0.928
-0.692
-0.699
-0.599
-0.421
-0.344
-0.158
-0.079
0.079
-0.012
-0.138
-0.137
-0.190
-0.257
-0.139
-0.209
-0.074
-0.271
-0.294
-0.150
-0.105
-0.216
-0.133
-0.181
-0.171
-0.070
-0.103
0.012
-0.029
-0.131
-0.053
-0.012
-0.001
-0.001
-0.188
0.014
0.103
0.054
0.042
-0.089
-0.018
0.101
0.079
-0.014
0.135
0.060
0.078
0.024
0.196
0.073
-0.055
0.226
-0.056
0.067
0.033
0.173
0.040
0.067
0.008
0.095
-0.031
0.121
-0.050
0.108
-0.073
-0.076
-0.030
0.028
-0.008
0.041
-0.033
-0.047
-0.036
-0.182
-0.012
-0.048
-0.082
0.028
-0.013
-0.081
-0.029
-0.074
0.044
0.055
-0.038
-0.025
-0.020
0.015
0.069
0.006
-0.074
0.093
-0.044
0.057
-0.003
0.041
0.072
0.129
0.064
0.004
0.115
0.093
0.080
0.100
-0.029
-1.164
-3.437
-3.974
2.015
4.036
4.572
2.312
-2.079
-3.829
-4.228
-2.957
-0.321
2.346
4.118
4.528
4.517
4.373
4.073
3.028
1.804
0.630
-0.449
-1.146
-1.687
-2.132
-2.267
-1.976
-1.736
-1.308
-1.123
-0.600
-0.256
0.086
0.288
0.293
0.418
0.227
0.302
0.277
0.322
0.255
0.186
0.109
0.096
0.251
0.455
0.656
1.044
1.049
0.743
0.554
0.511
0.595
0.668
0.703
0.806
0.675
0.768
0.712
0.443
0.214
0.393
0.342
0.207
0.124
0.150
0.135
0.061
0.171
0.131
0.215
0.183
0.141
0.213
0.140
0.168
0.063
0.073
0.195
0.044
0.063
0.057
-0.016
0.023
-0.082
-0.031
-0.162
-1.391
-3.468
-3.990
-0.365
3.250
3.709
1.664
-0.468
-1.687
-2.714
-2.306
0.432
1.733
1.920
1.725
1.424
0.391
-0.957
-0.234
0.928
-2.167
-2.400
-0.849
0.151
0.454
0.259
0.318
-0.680
-2.007
-1.157
0.274
0.305
0.682
1.261
1.497
1.072
0.657
0.473
0.194
0.019
-0.127
-0.678
-0.043
0.141
-0.030
-0.188
-0.341
-0.282
-0.306
-0.344
-0.254
-0.210
-0.080
0.143
0.018
0.145
0.110
0.106
0.061
0.231
0.136
0.018
0.239
0.325
0.247
0.154
0.172
0.280
0.278
0.298
0.243
0.315
0.316
0.185
0.403
0.252
0.247
0.211
0.253
0.377
0.346
0.375
0.256
0.211
0.065
0.227
0.173
0.110
0.149
0.244
0.181
0.164
0.139
-0.017
0.119
-0.095
0.070
0.050
0.044
0.022
-0.027
-0.030
0.069
0.018
-0.048
-0.020
-0.055
-0.054
-0.224
-0.074
-0.140
-0.095
-0.059
-0.097
-0.168
-0.099
-0.137
-0.071
-0.162
-0.152
-0.186
-0.068
-1.352
-0.221
0.512
0.325
0.223
0.053
-0.278
-0.301
-0.336
-3.244
1.374
3.626
3.878
0.872
-2.557
-4.108
-2.037
2.038
3.789
3.935
3.254
1.043
-0.474
-0.836
-1.517
-2.187
1.667
3.124
3.576
3.181
2.161
0.751
-0.127
-0.668
-0.988
-0.619
-0.303
-0.293
-0.297
-0.348
0.025
0.164
0.337
0.595
0.556
0.681
0.618
0.560
0.387
0.286
0.303
0.347
0.224
0.371
0.342
0.549
0.510
0.553
0.765
0.849
0.811
0.699
0.903
0.861
0.772
0.791
0.820
0.735
0.772
0.588
0.693
0.571
0.535
0.652
0.518
0.469
0.442
0.358
0.282
0.337
0.232
0.276
0.133
0.095
0.043
0.090
-0.116
-2.797
-4.002
1.652
3.707
4.010
1.252
-1.492
-2.806
-2.502
-1.630
-0.740
-2.936
-3.065
1.865
3.652
3.874
2.816
1.076
-0.494
-1.460
-1.711
-1.475
-0.869
-0.171
0.242
0.749
0.739
0.614
0.426
0.157
-0.098
-0.463
-0.489
-0.747
-0.781
-0.695
-0.621
-0.542
-0.276
-0.257
-0.136
-0.089
0.009
0.124
0.226
0.396
0.333
0.229
0.330
0.215
0.403
0.272
0.450
0.318
0.294
0.584
0.322
0.361
0.327
0.433
0.475
0.368
0.352
0.417
0.273
0.323
0.372
0.423
0.318
0.252
0.170
0.158
0.342
0.237
0.343
0.175
0.077
0.158
0.054
0.049
0.105
0.026
-0.033
0.043
0.059
-0.034
-0.158
-0.066
-0.091
-0.058
0.058
-0.054
-0.212
-0.069
-0.072
-0.127
-0.111
-0.066
-0.084
-0.141
-0.136
0.079
-0.063
-0.238
-0.000
0.020
-0.019
-0.103
-0.167
-0.030
-0.065
-0.153
-0.007
-0.105
-0.002
0.014
-0.006
-0.208
-0.016
0.013
-0.009
-0.014
0.013
-0.031
-0.014
-0.065
0.075
0.032
-0.034
-0.001
0.015
-0.051
0.008
-0.039
0.071
0.010
-0.022
-0.010
-0.000
-0.075
-0.020
-0.069
0.005
-0.007
0.022
-0.009
-0.017
-0.065
-0.031
0.075
0.039
-0.097
-0.025
0.040
0.031
0.031
-0.042
0.088
0.103
0.040
0.110
0.054
-0.037
0.114
0.116
0.111
0.248
-0.011
0.053
0.031
-0.005
0.082
0.225
0.008
0.076
0.091
0.069
0.220
0.115
0.082
0.024
0.162
0.209
0.149
0.007
0.097
-0.023
0.115
0.086
0.084
-0.024
0.130
0.022
0.074
0.135
0.040
0.107
0.053
-0.036
-0.024
-0.057
0.051
-0.026
0.086
0.041
-0.056
0.004
-0.075
-0.095
-0.061
0.092
0.063
-0.040
-0.250
-1.297
-3.575
1.267
3.624
4.221
4.227
-0.369
-3.600
-4.493
-4.173
-0.723
2.590
3.960
4.274
4.238
4.103
3.942
3.782
3.200
1.961
0.536
-0.987
-1.758
-2.532
-2.771
-2.602
-2.372
-1.818
-1.405
-0.861
-0.495
0.145
0.248
0.505
0.613
0.659
0.659
0.613
0.755
0.509
0.602
0.668
0.767
0.624
0.656
0.684
0.791
0.826
0.774
0.756
0.975
0.862
0.943
0.811
0.938
0.758
0.748
0.555
0.504
0.568
0.545
0.578
0.357
0.413
0.301
0.274
0.200
0.167
0.212
0.176
0.013
-0.046
-0.096
-0.207
-0.096
-0.151
-0.300
-0.155
-0.309
-0.349
-0.285
-0.462
-0.464
-0.356
-0.342
-0.400
-0.397
-0.505
-0.490
-0.450
-0.369
-0.503
-0.356
-0.348
-0.343
-0.254
-0.267
-0.367
-0.313
-0.346
-0.249
-0.180
-0.257
-0.097
-0.159
-0.240
-0.023
-0.063
-0.142
-0.061
0.011
0.030
-0.062
0.049
-0.054
0.049
0.029
0.114
0.256
0.151
0.006
0.130
0.076
0.154
0.083
0.200
0.353
0.141
0.033
0.107
0.158
0.145
0.098
0.068
0.127
0.079
0.137
0.135
-0.075
0.093
0.115
0.086
0.137
-0.004
0.104
0.083
0.001
0.117
0.042
0.121
-0.025
0.021
-0.010
0.080
0.046
0.017
-2.351
-3.241
2.320
4.004
4.265
1.172
-2.226
-3.356
-3.013
-1.704
-2.418
-3.690
0.153
3.548
4.510
4.671
2.178
-1.257
-3.349
-3.354
-2.195
-0.362
1.493
2.945
3.691
3.913
3.690
2.979
2.083
1.159
0.219
-0.434
-0.902
-1.362
-1.673
-1.420
-1.301
-1.315
-0.917
-0.557
-0.279
-0.217
-0.217
0.042
0.232
0.218
0.085
0.113
0.147
0.199
0.140
0.232
0.217
0.141
0.262
0.263
0.383
0.224
0.386
0.419
0.284
0.467
0.529
0.438
0.375
0.365
0.351
0.391
0.441
0.468
0.496
0.371
0.397
0.771
1.020
0.794
0.497
0.336
0.242
0.380
0.421
0.354
0.268
0.338
0.292
0.229
0.042
0.051
-0.041
-0.203
-0.227
-0.242
-0.109
-0.167
-0.058
-0.247
-0.150
-0.112
-0.017
0.051
-0.121
0.011
-0.151
-0.174
-0.154
-0.072
-1.254
-2.314
-0.829
0.033
0.531
1.012
-0.027
-0.359
-0.278
-0.241
-0.278
0.578
0.764
0.682
0.658
0.653
0.639
0.644
0.512
0.393
0.467
0.284
0.027
-0.182
-0.249
-0.269
-0.374
-0.416
-0.356
-0.462
-0.318
-0.336
-0.140
-0.262
-0.227
-0.094
-0.044
-0.205
-0.092
0.026
-0.030
-0.168
-0.015
0.005
0.022
-0.139
-0.096
0.053
0.026
0.110
-0.064
-0.021
0.121
-0.047
0.087
0.060
0.130
-0.074
0.224
0.132
0.042
0.139
0.232
0.243
0.079
0.123
0.085
0.151
0.124
0.191
0.120
0.206
0.288
0.161
0.147
0.022
0.172
0.131
0.091
0.029
0.072
0.253
0.111
0.143
-0.005
0.019
0.056
0.089
0.047
-0.149
0.077
0.086
-0.039
0.127
-0.987
-3.348
1.577
3.669
2.795
0.921
-0.476
-1.266
-1.277
-0.800
-0.153
0.283
0.617
0.882
0.832
0.829
0.499
0.423
0.078
-0.255
-0.391
-0.415
-0.518
-0.572
-0.364
-0.345
-0.297
-0.295
-0.212
-0.107
0.012
0.117
-2.207
0.462
3.423
4.249
1.547
-2.145
-2.506
-2.664
-0.479
-0.703
-3.136
2.267
2.201
3.004
4.121
2.777
1.315
0.221
-0.726
-0.881
-0.093
0.796
2.299
2.690
2.365
1.892
1.399
0.969
0.566
0.232
-0.062
-0.275
-0.505
-0.695
-0.637
-0.761
-0.671
-0.332
-1.789
-3.602
0.976
3.250
2.676
0.915
0.022
-0.323
-0.308
-0.060
0.391
0.909
1.197
1.384
1.308
1.195
0.917
0.839
0.572
0.480
0.281
0.223
-1.640
-1.826
2.945
4.281
2.407
-0.006
-2.995
-0.943
0.728
1.016
1.006
0.797
0.959
1.163
1.273
1.008
0.183
1.071
1.066
-1.617
-2.765
0.851
2.323
1.577
0.272
-0.925
-1.406
-1.347
-1.307
-0.486
0.796
1.178
1.160
0.853
0.843
-0.738
-0.835
1.024
1.580
1.013
0.209
-0.366
-0.587
-0.603
-0.514
-0.382
-0.203
-0.010
0.195
0.314
0.279
0.096
0.121
0.129
0.025
0.088
0.136
0.108
0.067
0.040
0.190
0.044
0.138
0.191
0.212
0.237
0.087
0.315
0.246
0.419
0.318
0.156
0.229
0.281
0.119
0.176
0.150
0.243
0.032
0.167
0.224
0.156
0.036
0.106
0.160
0.063
0.088
-0.044
-0.027
0.017
0.086
0.012
0.005
-0.117
0.039
-0.065
-0.186
0.028
-0.009
-0.127
-0.099
-0.163
0.009
-0.150
-0.137
-0.034
-0.018
-0.140
-0.148
-0.003
0.058
-0.126
0.007
-0.121
-0.029
0.029
0.026
-0.168
-0.070
-0.062
0.042
-0.019
-0.111
0.030
-0.076
0.026
-0.051
-0.030
0.069
-0.077
0.120
-0.043
-0.006
0.020
0.080
0.066
-0.119
-0.010
-0.006
-0.016
0.042
-0.062
-0.076
-0.033
0.162
0.028
0.030
0.020
0.113
0.041
0.060
0.191
-0.122
-0.023
-0.059
-0.066
0.129
0.045
-0.047
0.022
0.082
-0.019
0.027
0.046
-0.138
0.032
-0.028
-0.101
0.068
-0.074
0.043
0.002
-0.095
-0.122
-0.113
0.091
-0.135
-0.101
-0.008
-0.050
-0.161
0.007
-0.018
0.008
-0.032
0.060
-0.041
0.050
0.205
0.079
-0.080
-0.083
-0.003
0.009
0.185
0.141
0.073
-0.058
-0.046
-0.030
0.153
0.021
0.181
0.007
-0.081
-0.174
-0.074
-0.036
0.150
0.083
-0.062
-0.059
-0.096
-0.023
0.007
0.024
0.051
-0.046
-0.161
0.109
-0.134
-0.095
0.041
0.049
-0.082
-0.008
-0.070
0.067
-0.038
-0.161
0.095
-0.009
-0.036
0.005
-0.041
0.005
0.044
-0.030
-0.091
-0.230
-0.090
-0.004
-0.061
0.089
0.091
-0.061
0.020
-1.675
-2.925
2.389
3.973
1.218
-0.709
-1.399
-2.324
-2.381
-1.674
-0.217
1.585
3.160
4.198
4.400
4.308
4.008
3.096
2.128
1.118
0.388
-0.392
-1.005
-1.289
-1.562
-1.428
-1.455
-1.272
-1.128
-0.905
-0.715
-0.281
0.014
-0.085
0.155
-0.481
-3.114
0.054
3.575
4.158
2.399
0.366
-0.358
-0.217
-0.261
-0.143
0.518
1.359
1.956
2.305
2.478
2.231
1.808
1.463
1.063
0.599
0.289
-0.120
-0.167
-0.382
-0.291
-0.167
-0.165
-0.076
0.043
0.092
0.356
0.334
0.424
0.313
0.338
0.165
0.218
0.297
0.189
0.167
0.178
0.113
0.053
0.054
0.164
0.070
0.077
-0.017
-0.034
-0.029
0.052
-0.061
0.046
0.030
-0.078
-0.078
-0.053
-0.014
-0.112
-0.207
-0.093
0.017
-0.037
-0.073
-0.182
-0.175
-0.170
-0.153
-0.089
-0.042
-0.072
-0.109
-0.083
-0.198
-0.078
-0.101
-0.064
-0.107
-0.098
-0.111
-0.107
-0.065
-0.078
-0.073
-0.035
-0.098
-0.154
-0.043
-0.100
0.005
-0.123
-0.043
-0.053
-0.067
0.071
0.051
-0.088
-0.016
-0.066
-0.063
-0.016
-0.079
0.006
0.106
0.130
0.010
-0.084
0.038
0.060
0.053
0.040
0.106
0.015
0.035
0.025
0.161
0.034
0.070
0.071
-0.060
0.168
0.102
0.033
0.075
0.074
0.157
-0.052
0.015
0.064
-0.005
0.158
0.107
-0.001
0.048
-0.036
0.003
0.073
-0.068
-0.135
0.042
0.040
-0.042
0.057
0.090
0.155
-0.051
-0.144
0.261
0.237
0.285
0.086
0.122
0.341
0.156
0.258
0.054
0.251
0.107
0.247
0.102
0.048
0.076
-0.128
0.085
-0.047
-0.058
-0.182
-0.092
-0.140
-0.160
-0.058
-0.141
-0.020
-0.005
-0.088
-0.135
-0.047
-0.007
0.015
-0.049
-0.083
0.070
-0.089
-0.084
0.029
-2.422
-3.815
0.253
3.438
4.342
3.342
-1.320
-3.658
-4.223
-3.058
-0.622
1.702
3.553
4.352
4.492
4.306
3.542
2.487
1.285
0.199
-0.907
-1.394
-1.834
-1.928
-1.877
-1.601
-1.266
-0.803
-0.574
-0.252
-0.019
0.083
0.318
0.232
0.199
0.346
0.304
0.175
0.183
0.361
0.234
0.263
0.367
0.199
0.264
0.401
0.444
0.421
0.436
0.483
0.501
0.409
0.364
0.497
0.356
0.440
0.328
0.195
0.462
0.318
0.411
0.266
0.186
0.129
0.193
0.077
0.147
0.160
0.190
0.052
-0.193
0.089
0.028
0.066
-0.121
-0.135
-0.124
0.043
-0.130
-0.094
-0.188
-0.230
-0.187
-0.246
-0.260
-0.188
-0.163
-0.235
-0.074
-0.179
-0.213
-0.209
-0.293
-0.195
-0.156
-0.158
-0.218
-0.246
-0.265
-0.151
-0.070
-0.217
0.023
-0.102
-0.022
-0.212
-0.018
0.091
-0.011
-0.075
0.005
0.071
0.116
-0.062
0.070
0.066
0.009
-0.009
0.093
0.079
0.115
0.087
0.069
0.165
-0.007
0.042
0.094
0.091
0.062
0.003
-0.576
0.162
0.445
0.291
0.252
0.074
-0.078
-1.200
-0.066
0.603
0.589
0.373
0.130
-0.026
0.122
-0.060
-0.011
0.032
0.231
0.160
0.133
-2.677
-2.845
2.453
4.016
4.251
0.305
-3.135
-4.212
-3.873
-1.761
0.419
2.705
3.964
4.337
4.307
2.924
2.688
1.806
-1.935
-4.147
1.325
3.219
3.380
-0.812
-3.729
-4.687
-4.550
-2.793
-0.808
1.196
2.848
3.970
4.313
4.056
3.611
2.673
1.687
0.785
-0.162
-0.564
-1.048
-1.258
-1.203
-1.089
-0.697
-0.513
-0.218
0.169
0.278
0.434
0.657
0.682
0.650
0.743
0.717
0.651
0.586
0.693
0.485
0.647
0.514
0.610
0.588
0.616
0.636
0.679
0.634
0.664
0.456
0.598
0.523
0.641
0.473
0.512
0.415
0.333
0.271
0.329
0.326
0.274
0.147
0.156
0.070
0.030
-0.072
0.122
0.048
0.042
-0.072
-0.181
-0.095
-0.069
-0.131
-0.162
-0.249
-0.156
-0.294
-0.197
-0.154
-0.233
-0.262
-0.365
-0.271
-0.016
0.257
0.326
-1.288
-1.078
0.246
0.704
0.475
0.218
-0.031
-0.148
-0.204
-0.202
-0.016
0.059
-0.010
0.040
-0.001
0.119
-0.153
-0.049
-0.223
-0.195
-0.128
-0.156
-0.094
-0.053
-0.088
0.004
-0.004
0.029
0.017
0.151
0.054
0.073
0.212
0.185
0.202
0.092
0.114
0.121
0.220
0.151
0.108
0.127
0.105
0.139
0.203
0.238
0.116
0.094
0.077
-0.026
0.255
0.199
0.018
0.033
0.010
0.003
0.095
0.180
0.132
0.017
-0.020
0.118
-0.146
0.058
0.046
0.142
0.049
-0.008
0.144
0.049
0.059
0.123
0.110
0.083
0.046
-0.059
0.122
-0.005
0.007
-0.022
0.012
0.049
-0.065
0.043
0.007
0.018
-0.004
-0.025
0.015
0.168
-0.017
-0.058
-0.060
0.044
-0.067
-0.005
0.034
0.076
-0.123
-0.044
0.038
0.002
-0.014
-0.057
0.145
-0.097
-0.174
-0.056
0.104
-0.038
-0.090
-0.150
-0.104
-0.046
-0.108
-0.013
-0.033
-0.014
-0.050
-0.042
-0.077
-0.047
0.064
-0.026
-0.093
0.039
-0.101
0.049
-0.096
-0.075
-0.131
-0.020
-0.015
-0.083
0.034
0.045
-0.036
0.060
-0.038
-0.023
-0.019
0.046
0.020
0.136
0.045
-0.002
0.102
0.010
0.047
0.133
0.092
0.104
0.137
-0.077
0.135
0.108
0.054
0.080
0.096
-0.012
0.170
0.114
0.088
0.176
0.036
0.144
0.072
0.014
0.178
0.063
0.074
0.098
0.000
-0.047
0.181
0.180
0.025
-0.005
0.097
0.072
0.116
-0.030
0.127
0.058
-0.066
0.028
0.005
-0.012
-0.000
-0.066
-0.044
-0.069
0.019
-0.083
-0.119
0.196
0.024
-0.126
-0.111
-0.007
-0.030
-0.096
-0.068
-0.070
-0.049
-0.052
0.182
-0.075
-0.115
-0.036
0.006
-0.993
-3.464
1.941
3.822
4.306
4.272
-0.280
-3.546
-4.471
-4.195
-1.414
2.093
3.888
4.326
4.350
4.229
4.062
3.630
2.237
0.562
-0.967
-2.263
-2.710
-2.877
-2.761
-2.186
-1.904
-1.213
-0.668
0.001
0.315
0.430
0.707
0.861
0.763
0.836
0.839
0.694
0.583
-0.671
0.413
1.201
1.026
0.654
0.460
0.372
0.425
0.389
0.570
0.635
0.687
0.777
0.615
0.763
0.689
0.504
0.461
0.411
0.425
0.236
0.226
0.227
0.078
-0.015
0.170
0.118
0.055
-0.045
-0.134
0.004
-0.122
-0.074
0.005
-0.219
-0.062
-0.174
-0.209
-0.290
-0.354
-0.250
-0.212
-0.159
-0.312
-0.304
-0.238
-0.443
-0.302
-0.298
-0.312
-0.259
-0.195
-0.271
-0.264
-0.183
-0.110
-0.205
-0.215
-0.214
-0.136
-0.135
-0.197
-0.109
-0.066
-0.012
-0.093
-0.017
-0.029
-0.059
0.041
-0.021
-0.056
0.001
-0.022
-0.051
0.025
0.083
-0.030
0.082
0.141
0.064
0.011
0.171
0.121
0.026
0.174
0.083
0.067
0.108
0.162
0.022
0.150
0.018
0.149
0.025
0.104
0.055
-0.014
0.092
0.032
0.054
0.126
0.016
0.122
0.082
0.079
-0.011
0.063
0.125
0.080
-0.030
0.080
0.021
0.007
0.035
-0.089
0.104
0.050
-1.123
-3.454
-4.072
1.969
3.998
4.504
2.479
-2.295
-3.922
-4.309
-3.416
-0.448
2.716
4.240
4.585
4.538
4.396
4.197
3.817
2.483
0.968
-0.379
-1.440
-2.132
-2.314
-2.229
-2.173
-1.794
-1.364
-0.898
-0.309
-0.097
0.180
0.301
0.317
0.399
0.308
0.495
0.331
0.314
0.227
0.209
0.154
0.224
0.271
0.304
0.322
0.477
0.523
0.464
0.453
0.438
0.509
0.470
0.470
0.556
0.421
0.501
0.447
0.443
0.350
0.419
0.567
1.037
0.971
0.690
0.424
0.288
0.355
0.273
0.252
0.411
0.473
0.372
0.175
-0.004
-0.080
-0.143
-0.319
-0.332
-0.237
-0.187
-0.240
-0.349
-0.248
-0.028
-0.269
-0.221
-0.077
-0.216
-0.039
-0.100
-0.069
-0.029
-0.152
-0.009
-0.032
-0.108
-0.079
-0.112
-0.147
0.031
0.165
-0.094
0.017
0.092
0.097
-0.158
0.110
0.018
0.029
0.073
-0.039
-0.052
0.137
0.158
0.042
-0.015
-0.019
-0.041
-0.025
0.133
0.042
0.001
0.034
-0.164
0.077
0.082
-0.007
-0.033
-0.041
-0.093
0.044
0.025
0.022
-0.038
0.023
0.002
-0.057
-0.143
0.012
-0.122
-0.360
-0.473
-0.759
-0.416
-0.429
-0.481
0.821
0.918
0.438
-0.061
-0.301
-0.270
-0.074
0.061
0.319
0.313
0.389
0.345
0.437
0.399
0.115
-0.086
-0.208
-0.146
-0.072
-0.148
-0.113
-0.240
-0.153
0.054
0.079
-0.100
-0.115
-0.079
-0.063
-0.514
-1.400
-0.197
1.120
1.043
0.583
0.038
-0.138
-0.271
-0.064
0.149
0.277
0.360
0.400
0.578
0.361
0.257
0.274
0.102
-0.025
-0.101
-0.080
-0.156
-0.152
-0.270
0.008
-0.130
-0.040
-0.078
-0.035
-0.156
-0.033
0.041
-0.012
-0.122
-0.001
-0.072
-0.055
-0.056
-0.055
-0.001
-0.115
-0.232
-0.043
0.163
0.064
-0.051
-0.021
-0.043
-0.121
0.024
-0.010
-0.086
-0.066
0.025
0.136
0.240
-0.063
-0.521
-1.862
2.056
3.104
2.158
-1.159
-1.972
2.499
3.832
4.129
2.838
-1.204
-3.757
-3.904
-2.517
-0.253
2.301
3.733
4.161
4.182
4.061
3.677
2.794
1.580
0.469
-0.483
-1.344
-1.550
-1.972
-1.672
-1.358
-1.117
-0.728
-0.413
-0.033
0.254
0.513
0.688
0.745
0.762
1.115
0.465
0.543
0.747
0.757
0.801
0.646
0.861
0.785
0.676
0.967
1.033
0.962
1.528
1.518
1.286
0.743
0.839
0.794
0.767
0.813
0.895
0.842
0.613
0.481
0.448
0.341
0.322
0.197
-0.018
-0.726
-0.256
0.443
-0.762
-1.846
-1.156
-0.047
0.758
1.212
0.693
0.068
-0.391
-1.865
-3.308
0.343
2.605
2.465
1.248
0.107
-0.648
-0.436
-0.057
-0.093
-0.099
-0.003
0.213
0.430
0.564
0.484
0.269
0.097
0.067
-0.378
-0.450
-0.591
-0.702
-0.712
-0.678
-0.669
-0.562
-0.332
-0.296
-0.128
-0.014
-0.036
-0.032
0.116
0.143
0.283
0.261
0.132
0.075
0.284
0.203
0.087
0.321
0.194
0.455
0.304
0.248
0.290
0.312
0.344
0.391
0.329
0.325
0.319
0.283
0.250
0.271
0.385
0.192
0.306
0.206
0.136
0.078
0.225
0.209
0.147
0.046
-0.042
-0.038
0.254
0.119
0.126
0.016
0.027
-0.067
0.020
-0.113
-0.094
-0.001
-0.046
-0.030
-0.106
-0.015
-0.106
-0.020
-0.082
-0.119
-0.056
0.012
0.043
-0.003
-0.084
-0.096
-0.168
-0.042
-0.059
-0.029
0.005
-0.045
-0.143
0.015
0.084
-0.020
-0.112
0.089
0.039
-0.052
0.012
0.010
0.043
-0.107
0.062
0.023
-0.228
0.054
-0.001
-0.031
-0.069
-0.115
0.050
0.120
-0.054
-0.064
-0.117
-0.130
-0.116
-0.039
-0.165
-0.088
0.055
-0.110
-0.025
-0.012
-0.026
-0.148
-0.209
-0.119
0.052
-0.094
-0.036
-0.185
-0.046
-0.025
0.069
-0.049
-0.047
-0.511
-0.349
-0.248
-0.080
0.142
-0.029
-0.107
-0.064
-0.144
-0.102
-0.062
-0.138
0.071
-0.062
0.034
0.165
0.229
0.182
0.030
0.078
0.125
0.163
0.104
0.061
0.057
0.141
-0.003
0.245
0.114
0.125
-0.008
0.068
0.157
0.213
0.063
-0.086
-0.001
0.096
-0.034
0.140
0.203
0.035
-0.070
-0.100
-0.126
-0.144
-0.284
-0.159
0.042
-0.066
0.078
-0.088
0.040
-0.097
-0.309
-0.236
-0.066
-0.071
0.248
0.354
0.341
-0.008
-0.024
-0.134
-0.098
-0.073
-0.022
-0.038
0.254
0.147
-0.013
-0.077
-0.232
-0.072
-0.148
-0.103
-0.002
-0.077
-0.000
0.055
-0.042
-0.112
0.027
-0.023
-0.029
-0.022
0.003
0.110
0.029
0.142
0.049
-0.006
0.103
-0.029
0.093
0.118
0.135
0.039
0.045
-0.039
0.037
0.157
-2.959
-0.741
3.069
4.188
4.383
1.930
-1.327
-2.964
-2.948
-1.521
0.297
1.897
2.983
3.583
3.316
2.930
1.994
1.260
0.234
-0.581
-0.947
-1.434
-1.570
-1.433
-1.217
-1.177
-0.701
-0.505
-0.055
0.015
0.087
0.342
0.361
0.539
0.362
0.485
0.379
0.480
0.378
0.293
0.266
0.480
0.374
0.432
0.525
0.437
0.458
0.343
0.492
0.623
0.583
0.520
0.471
0.457
0.466
0.339
0.356
0.287
0.361
0.187
0.199
0.105
0.270
0.123
0.141
0.103
-0.101
-0.054
-0.123
0.070
-0.242
-0.116
-0.097
-0.128
-0.072
-0.169
-0.202
-0.328
-0.157
-0.164
-0.150
-0.128
-0.217
-0.327
-0.165
-0.392
-0.256
-0.103
-0.219
-0.206
-0.264
-0.223
-0.116
-0.321
-0.089
-0.078
-0.136
-0.102
-0.018
-0.096
-0.204
-0.117
-0.050
0.007
0.016
-0.044
0.066
-0.003
-0.138
0.038
0.099
0.087
0.045
0.059
-0.028
0.069
0.190
0.065
0.096
0.016
0.097
-2.329
-1.826
2.774
4.138
3.352
0.704
-1.518
-2.259
-1.853
-0.871
0.278
1.095
1.390
2.092
2.316
2.049
1.478
0.985
0.262
-0.515
-0.778
-0.794
-0.759
-0.730
-0.398
-0.268
-0.143
-0.104
0.052
0.075
0.107
0.109
0.070
0.083
0.175
0.131
0.111
0.141
0.256
0.139
0.217
0.225
0.301
0.270
-0.182
-1.321
0.879
1.349
0.822
0.502
0.317
0.123
0.162
-2.075
-2.293
2.795
4.324
4.175
1.268
-1.382
-2.215
-2.022
-0.986
0.285
1.403
2.050
2.415
2.338
2.047
1.317
0.799
0.239
-0.517
-0.730
-1.072
-1.105
-0.977
-0.996
-0.948
-0.756
-0.449
-0.303
-0.255
-0.146
-0.047
0.102
0.103
-0.002
0.002
0.091
0.002
-0.095
0.049
-0.013
0.067
0.142
0.034
-0.007
0.232
0.252
0.197
0.165
0.131
0.101
0.336
0.216
0.266
0.157
0.221
0.180
0.153
0.229
0.151
0.239
0.199
0.279
0.152
0.178
0.115
0.050
0.072
0.167
0.042
0.159
0.142
0.077
-0.004
-0.057
0.010
0.150
0.010
-0.042
-0.024
-0.002
-0.011
-0.060
-0.023
-0.038
-0.118
-0.082
-0.057
-0.127
-0.064
-0.034
-0.093
-0.101
-0.125
-0.137
0.007
-0.151
-0.028
-0.031
-0.036
-0.012
-0.107
-0.053
-0.092
0.026
0.015
-0.079
-0.054
-0.061
0.029
0.067
-0.157
-0.062
0.127
-0.023
-0.009
0.050
-0.021
-0.048
-0.034
-1.509
-2.253
-2.186
2.650
4.093
3.162
0.562
-0.867
-1.405
-1.077
-0.669
0.069
0.746
1.254
1.603
1.543
1.309
0.877
0.640
0.356
0.006
-0.402
-0.696
-0.602
-0.639
-0.688
-0.537
-0.249
-0.247
-0.252
0.080
-0.134
0.067
0.251
0.220
0.176
0.176
0.110
0.166
0.131
0.156
0.308
0.137
0.225
0.271
0.135
0.103
0.301
0.268
0.285
0.182
0.335
0.236
0.237
0.349
0.196
0.156
0.108
0.282
0.165
0.313
0.217
0.085
0.169
0.240
0.044
0.007
0.060
0.115
-0.031
0.002
-1.577
-3.587
-2.427
-2.268
2.741
4.206
3.174
-0.707
-3.316
-4.101
-3.468
-1.456
1.114
3.398
4.332
4.454
4.356
4.164
3.652
2.572
1.319
0.071
-0.921
-1.644
-2.015
-2.362
-2.082
-1.945
-1.489
-1.195
-0.862
-0.555
-0.243
-0.027
0.118
0.185
0.118
0.187
0.069
0.154
0.089
0.079
0.186
0.272
0.273
0.135
0.370
0.361
0.508
0.506
0.481
0.592
0.524
0.509
0.480
0.589
0.631
0.725
0.569
0.526
0.502
0.495
0.451
0.494
0.446
0.430
0.539
0.308
0.334
0.413
0.360
0.335
0.258
0.261
0.028
0.236
0.165
0.378
0.736
0.421
0.156
-0.002
-0.064
0.184
0.010
0.016
0.004
-0.171
-0.340
-0.504
-0.429
-2.589
-2.113
0.409
1.249
0.784
0.241
-0.197
-0.455
-0.465
-0.390
-0.210
0.190
0.454
0.686
0.894
0.906
0.670
0.458
0.159
0.002
-0.347
-0.341
-0.341
-0.372
-0.380
-0.371
-0.417
-0.201
-0.031
0.018
-0.006
0.161
-0.108
0.097
0.149
0.140
-0.008
0.127
0.198
0.138
0.176
0.093
0.124
-0.067
0.229
0.202
0.042
0.159
0.195
0.113
0.168
0.070
0.016
0.199
0.169
0.102
0.062
0.037
0.136
-0.004
0.138
0.032
0.128
-0.001
-0.011
-0.032
0.123
0.108
0.020
-0.023
0.051
-0.064
0.009
-0.017
0.021
-0.023
0.078
0.084
-0.109
-0.013
0.024
0.004
0.070
-0.021
0.049
-0.023
0.077
0.016
-0.076
-0.043
0.076
0.022
0.074
-0.003
0.127
0.022
-0.121
-0.015
0.131
-0.000
0.014
0.119
-0.028
0.054
0.043
0.029
-0.055
0.116
-0.023
-0.024
-0.026
0.010
0.039
0.075
-0.045
-0.140
0.003
0.098
-0.076
-0.014
0.027
0.001
-0.057
-0.105
0.006
0.022
0.040
-0.031
-0.041
-0.114
-0.085
-0.113
-0.145
-0.118
-0.048
-0.124
-0.016
-0.088
-0.085
-0.018
0.097
-0.129
-0.005
-0.020
-0.147
-0.037
0.035
-0.071
0.123
0.078
0.074
-0.005
0.114
0.103
0.111
0.064
-0.117
0.152
0.146
0.081
-0.153
-0.005
0.087
0.031
0.142
0.103
0.034
-0.051
0.003
0.023
-0.033
0.086
-0.033
0.117
0.038
0.067
0.104
0.193
0.100
0.043
0.042
0.058
0.157
0.072
-0.048
-0.018
0.126
0.092
0.102
0.105
0.048
0.028
0.074
-0.132
0.079
-0.058
-0.044
0.158
0.042
-0.076
0.011
-0.028
0.032
-0.014
-0.106
-0.109
-0.004
-0.091
0.129
0.171
0.020
-0.006
-0.065
-0.043
-0.062
-0.012
0.097
-0.049
-0.057
0.040
0.118
-0.016
-0.015
-0.065
-0.046
0.005
0.020
-0.043
-0.033
0.085
-0.132
-0.047
-0.025
0.055
-0.015
-0.006
0.008
0.118
0.154
0.038
-0.036
0.027
0.079
0.152
-0.031
0.214
-0.021
-0.003
0.141
0.058
0.062
0.014
0.151
-0.006
0.051
0.083
0.161
-0.054
0.115
0.043
0.060
-0.031
0.160
0.026
0.141
0.037
-0.012
0.102
0.097
0.041
-0.092
0.022
0.083
0.048
0.047
0.026
-0.042
-0.008
0.083
-0.041
0.003
-0.081
0.138
0.045
-0.037
-0.041
0.033
0.059
0.014
-0.011
-0.098
0.012
-0.129
0.097
0.009
-0.070
0.002
0.036
0.105
0.024
0.051
-0.136
-0.193
-0.085
0.093
0.196
0.056
0.047
-0.087
-0.143
0.043
-0.012
0.054
-0.018
0.123
-0.081
0.118
0.117
0.025
-0.125
0.103
0.004
0.099
-0.093
0.006
-0.019
0.105
0.068
0.074
0.031
-0.035
0.010
-0.045
0.018
0.016
0.113
0.097
0.082
-0.067
-0.018
0.015
0.005
0.046
0.026
0.047
0.012
0.011
0.130
-0.007
-0.013
-0.101
-0.042
0.076
0.049
0.085
-0.122
-0.011
0.081
-0.092
0.036
0.050
-0.012
-0.006
0.075
-0.001
-0.005
-0.024
0.151
-0.029
-0.014
0.149
0.038
-0.044
0.033
0.005
-0.014
-0.027
-0.004
0.046
0.082
-0.049
-0.066
-0.072
0.060
-0.020
0.141
-0.029
0.118
-0.054
-0.060
0.058
0.102
0.087
-0.028
0.042
0.019
-0.050
0.069
-0.102
-0.012
-0.003
0.107
0.032
0.019
-0.094
-0.006
0.090
0.013
0.032
-0.102
0.005
0.093
0.082
-0.139
-2.732
-3.941
1.475
3.776
4.384
3.849
-1.846
-3.894
-4.402
-4.029
-0.345
3.199
4.298
4.511
4.383
4.287
4.084
3.910
3.320
0.975
-1.800
-3.405
-4.260
-4.088
-3.489
-2.503
-1.578
-0.679
0.054
0.533
1.013
0.933
0.873
0.716
0.553
0.500
0.260
0.175
0.088
0.040
0.126
0.176
0.173
0.356
0.365
0.316
0.527
0.463
0.660
0.556
0.523
0.530
0.393
0.606
0.461
0.421
0.407
0.245
0.286
0.352
0.286
0.244
0.162
0.194
0.159
0.089
0.030
0.034
0.043
-0.023
-0.014
0.024
-0.126
-0.144
-0.061
-0.169
-0.121
-0.190
-0.183
-0.121
-0.201
-0.326
-0.286
-0.313
-0.246
-0.201
-0.328
-0.221
-0.246
-0.192
-0.200
-0.358
-0.220
-0.118
-0.269
-0.273
-0.186
-0.004
-0.068
-0.145
-0.175
-0.149
-0.045
-0.133
-0.167
-0.042
-0.075
0.058
0.125
-0.086
-0.065
0.008
0.097
-0.057
0.025
0.080
0.087
0.105
0.132
0.036
0.094
0.070
0.061
0.093
0.052
0.211
0.136
0.078
0.080
0.007
0.139
0.159
-0.007
0.137
-0.057
0.177
0.000
0.022
0.104
0.054
0.105
0.025
-0.012
0.081
0.024
0.126
0.008
0.034
0.057
-0.005
0.018
0.046
0.050
-0.061
0.040
-0.073
0.180
0.004
0.046
0.034
0.005
0.065
0.017
0.003
-0.035
0.087
0.050
-0.114
-0.197
0.017
0.078
0.190
0.129
0.015
-0.041
-0.004
0.086
0.019
0.095
0.082
0.079
0.072
-0.013
-0.017
0.081
0.006
0.041
-0.025
0.118
0.050
0.075
-1.878
-3.527
2.174
3.919
4.338
3.309
-1.998
-4.018
-4.515
-4.548
-1.589
2.534
4.085
4.457
4.418
4.281
4.107
3.907
3.004
1.432
-0.156
-1.495
-2.422
-2.775
-2.918
-2.421
-1.993
-1.439
-0.734
-0.295
-0.001
0.359
0.379
0.681
0.556
0.657
0.410
0.548
0.470
0.465
0.111
0.666
0.615
0.862
-0.440
0.436
1.184
0.307
1.007
1.524
1.542
0.911
0.661
0.695
0.530
0.703
0.706
0.876
0.818
0.835
0.627
0.419
0.292
0.297
-0.114
-0.170
-0.116
0.163
0.170
-0.075
-1.128
-0.682
0.086
0.616
0.607
0.464
0.041
-0.026
-0.173
-0.131
-0.006
0.186
0.211
0.131
0.082
0.105
0.057
-0.107
-0.259
-0.265
-0.314
-0.252
-0.115
-0.333
-0.429
-0.304
-0.328
-0.237
-0.269
-0.262
-0.136
-0.126
-0.114
-0.207
-0.201
-0.201
-0.272
-0.084
-0.073
-0.040
-0.122
-0.054
0.003
-0.013
-0.020
-0.098
0.018
0.092
0.055
0.031
-0.155
0.109
-0.023
0.050
0.066
-0.022
0.008
0.134
-0.011
-0.037
0.119
0.161
-0.012
0.115
0.045
0.028
0.074
0.059
0.040
0.128
-0.008
0.063
0.000
0.032
0.082
0.078
0.122
-0.021
0.020
0.103
-0.045
0.089
0.072
0.128
0.024
0.010
-0.036
-0.046
0.082
0.044
0.151
0.167
-0.063
0.027
-0.040
-0.045
0.042
0.084
0.047
0.015
0.014
-0.012
0.029
-0.034
0.065
0.045
0.068
0.206
0.092
-0.028
0.031
0.064
0.067
-0.103
0.027
0.106
-0.016
0.131
-0.050
-0.075
0.055
-0.011
0.032
-0.012
-0.057
0.019
-0.079
0.023
-0.048
0.050
0.023
-0.015
0.068
-0.087
-0.048
-0.023
-0.044
-0.052
-0.068
0.005
-0.045
-0.058
-0.096
-0.127
-0.081
-0.048
-0.040
-0.096
-0.018
-0.084
-0.026
-0.014
-0.135
-0.109
-0.022
0.062
0.070
-0.028
-0.079
0.041
-0.035
-0.027
-0.061
-0.038
0.004
0.238
-0.053
0.003
0.194
0.079
0.027
0.031
0.034
0.064
0.062
0.106
0.183
0.042
0.098
0.082
-0.050
-0.011
0.070
0.067
0.095
0.066
0.083
-0.075
0.078
0.182
0.112
0.013
0.023
0.046
0.201
0.049
0.048
0.083
-0.015
0.093
0.047
0.161
-0.007
-0.108
-0.461
-0.278
-0.050
0.074
0.207
-0.157
0.045
0.062
-0.105
-0.101
-0.138
0.019
0.167
0.126
0.079
0.061
0.168
-0.021
0.169
0.101
0.078
0.047
-0.038
-0.051
-0.038
-0.114
-0.062
-0.050
-0.091
-0.123
-0.092
-0.175
-0.074
-0.002
0.024
-0.087
-0.025
0.066
-0.065
0.014
-0.047
-0.079
0.033
0.019
0.087
-0.030
0.021
0.105
0.050
-0.082
-0.019
0.054
0.079
-0.039
0.097
-0.025
0.037
0.012
0.030
0.070
0.097
0.016
-0.002
-0.075
-0.543
0.289
0.514
0.372
0.030
-0.042
0.004
-0.021
-0.023
0.045
0.147
0.092
0.157
0.195
0.130
0.145
0.007
0.061
0.013
0.002
-0.006
-0.047
0.057
0.006
-0.018
-0.047
-0.081
0.087
0.058
0.043
0.064
0.049
0.025
-0.067
-0.018
0.091
0.057
0.106
0.102
-0.002
-0.080
-0.106
-0.039
0.035
0.073
0.115
-0.045
0.002
-0.003
-0.021
0.029
0.012
-0.020
-0.157
-0.017
-0.065
0.188
-0.063
0.004
0.083
-0.056
-0.030
0.088
0.042
-0.013
-0.004
0.097
-0.035
0.093
-0.071
-0.008
-0.019
0.004
0.118
0.102
0.013
-0.085
0.009
0.092
-0.118
-0.009
0.116
-0.003
0.045
0.068
0.058
0.017
0.036
0.036
0.063
-0.098
-0.075
0.125
0.058
-0.001
0.037
-0.029
-0.010
-0.023
-0.166
-0.053
0.054
0.089
-0.090
-0.119
0.010
0.168
0.068
0.020
-1.932
-3.711
1.425
3.746
4.363
3.222
-2.214
-3.977
-4.430
-3.645
0.033
3.284
4.317
4.513
4.421
4.269
4.078
3.505
1.789
-0.060
-1.633
-2.644
-3.281
-3.407
-3.148
-2.487
-1.924
-1.243
-0.594
-0.123
0.195
0.535
0.809
0.683
0.742
0.659
0.248
0.373
0.673
0.520
0.430
0.225
0.193
0.314
0.399
0.306
0.462
0.516
0.549
0.517
0.470
0.400
0.368
0.320
0.314
0.326
0.380
0.273
0.213
0.190
0.216
0.082
0.131
0.052
0.074
0.092
0.155
0.014
-0.086
-0.002
-0.106
-0.072
-0.195
-0.282
-0.219
-0.118
-0.182
-0.169
-0.197
-0.322
-0.230
-0.123
-0.105
-0.226
-0.184
-0.229
-0.367
-0.134
-0.188
-0.212
-0.285
-0.113
-0.158
-0.163
-0.051
-0.176
-0.104
-0.054
-0.110
-0.057
-0.093
-0.097
-0.039
-0.020
-0.175
0.078
0.013
0.000
-0.019
0.046
-0.040
-0.029
0.166
0.169
0.056
-0.014
0.061
0.086
0.109
0.071
0.021
0.046
0.093
0.015
0.219
0.073
0.023
0.161
0.156
0.050
-0.003
0.061
0.030
0.019
0.168
0.227
0.175
-0.108
-0.068
0.105
0.063
0.156
0.003
0.022
0.097
-0.070
0.015
-0.054
0.089
-0.002
0.007
-0.022
-0.006
0.027
-0.073
-0.022
0.023
0.229
-0.041
0.017
-0.138
0.001
-0.014
0.093
0.090
0.039
-0.015
0.030
0.025
0.025
-0.022
0.130
0.097
0.063
-0.119
0.002
0.033
0.138
0.082
0.113
0.089
0.002
-0.008
-0.007
0.234
0.051
-0.034
-0.019
0.132
0.009
-0.112
0.039
0.105
-0.075
0.110
-0.060
0.001
0.043
-0.067
0.041
-0.037
-0.001
0.013
0.039
-0.034
0.063
-0.074
-0.085
-0.009
-0.132
0.016
-0.102
0.046
-0.073
0.039
0.080
-0.063
0.028
-0.083
-0.017
-0.071
-0.075
0.057
0.049
0.003
0.047
-0.040
0.037
0.139
0.061
-0.047
-0.106
-0.464
-1.776
0.129
1.213
0.847
-0.092
-0.404
0.002
0.061
0.241
0.136
0.107
0.144
0.331
-1.734
-3.616
-2.744
2.585
4.184
4.559
2.161
-2.575
-4.017
-4.355
-3.493
0.767
3.668
4.451
4.553
4.462
4.251
4.060
3.873
3.005
1.412
-0.526
-1.977
-3.108
-3.558
-3.318
-2.863
-2.207
-1.457
-0.916
-0.393
0.105
0.289
0.608
0.813
1.238
0.852
0.575
0.404
0.569
0.466
0.922
1.158
0.684
0.511
0.470
0.456
0.546
0.636
0.714
0.786
0.619
0.681
0.603
0.450
0.299
0.343
0.143
0.151
0.294
0.300
0.329
0.291
0.211
0.306
0.169
0.341
0.240
0.275
0.272
0.256
0.184
0.201
0.144
0.223
0.116
0.068
0.092
0.054
-0.039
-0.126
-0.151
0.011
-0.042
-0.022
0.047
-0.158
-0.167
-0.109
-0.103
-0.112
-0.236
-0.186
-0.141
-0.350
-0.186
-0.175
-0.307
-0.156
-0.234
-0.214
-0.101
-0.181
-0.286
-0.212
-0.184
-0.172
-0.167
-0.143
-0.166
-0.101
0.004
-0.131
-0.214
-0.154
-0.083
-0.112
0.011
-0.091
-0.095
0.100
0.025
-0.034
-0.143
0.003
0.047
-0.003
-0.031
0.044
-0.013
0.041
0.098
0.048
-0.057
0.076
-0.015
0.021
0.095
-0.020
0.080
0.041
0.015
-0.020
0.034
0.089
0.017
0.027
0.022
0.097
0.028
0.056
0.096
0.014
-0.021
0.090
0.134
-0.001
0.088
0.049
0.062
-0.004
-0.011
0.012
0.162
0.039
-0.001
0.060
0.045
0.042
0.070
0.043
0.122
0.052
0.178
0.133
-0.054
0.021
0.032
0.053
0.016
0.104
-0.021
0.107
0.040
0.002
0.011
0.109
0.042
0.161
0.041
-0.051
-0.036
0.102
0.099
0.055
0.084
0.121
-0.059
-0.108
-0.029
0.003
-0.059
-0.028
-0.007
0.075
0.012
-0.010
-0.081
-0.110
-0.009
0.052
-0.036
-0.026
-0.108
-0.123
-0.020
0.077
-0.122
0.030
-0.020
-0.133
-0.046
-0.054
-0.070
-0.037
-0.049
-0.038
-0.090
0.020
-0.098
0.036
0.120
-0.005
0.020
-0.066
-0.041
-0.089
0.156
0.072
-0.084
-0.089
-0.009
-0.047
0.149
0.157
0.005
-0.004
-0.029
0.015
0.039
0.118
-0.034
0.098
-0.028
0.070
0.040
0.059
0.184
0.065
-0.060
0.151
0.134
0.056
0.069
0.174
0.020
0.090
0.058
0.170
0.040
0.052
0.025
0.116
0.055
0.040
0.065
0.110
0.036
0.019
-0.131
0.021
0.165
0.086
0.098
-0.006
0.077
-0.035
0.012
0.185
-0.112
-0.089
0.033
0.032
0.033
0.043
-0.199
0.046
0.111
-0.030
-0.036
0.001
-0.102
0.078
-0.030
-0.111
-0.050
0.036
-0.048
0.006
0.118
0.080
-0.099
-0.031
-0.048
0.069
-0.008
0.139
0.068
-0.055
0.028
0.010
0.028
-0.014
-0.030
-0.024
-0.006
-2.898
-3.968
1.781
3.888
4.427
4.048
-1.559
-3.828
-4.395
-4.132
-0.397
3.150
4.289
4.501
4.447
4.261
4.095
3.890
2.517
0.571
-1.455
-2.685
-3.504
-3.711
-3.498
-2.778
-2.142
-1.447
-0.743
-0.184
0.346
0.712
0.863
0.880
0.817
0.746
0.733
0.444
0.326
0.326
0.298
0.186
0.399
0.394
0.458
0.408
0.360
0.488
0.442
0.570
0.479
0.390
0.423
0.432
0.430
0.410
0.453
0.190
0.209
0.154
0.228
0.187
0.208
0.094
0.074
-0.003
0.124
0.060
-0.001
-0.121
-0.135
-0.080
-0.233
-0.138
-0.171
-0.198
-0.280
-0.210
-0.174
-0.302
-0.282
-0.305
-0.222
-0.185
-0.317
-0.193
-0.214
-0.058
-0.237
-0.347
-0.129
-0.197
-0.138
-0.161
-0.305
-0.252
0.004
-0.203
-0.052
-0.079
0.025
-0.124
-0.067
0.004
0.010
0.024
-0.054
0.080
-0.002
-0.002
0.102
-0.018
0.075
-0.023
0.134
0.028
-0.527
0.062
0.358
0.007
-0.253
-0.078
0.191
0.319
0.233
0.258
-0.141
-1.840
-3.582
-4.058
-4.069
-1.068
3.335
4.608
4.436
0.370
-2.889
-3.897
-3.449
-1.134
1.810
3.944
4.538
4.590
4.420
4.212
3.943
3.018
1.561
0.109
-1.055
-1.916
-2.282
-2.432
-2.262
-1.668
-1.013
-0.479
-0.307
-0.301
-0.153
0.096
0.311
0.231
0.241
0.427
0.405
0.228
0.047
-0.023
-0.070
-0.129
-0.057
0.095
-0.009
0.086
0.323
0.297
0.452
0.605
0.610
0.554
0.656
0.769
0.747
0.633
0.609
0.779
0.629
0.641
0.548
0.517
0.676
0.530
0.558
0.432
0.457
0.472
0.379
0.444
0.335
0.310
0.271
0.213
0.067
0.184
0.060
0.093
0.027
-0.129
-0.059
-0.117
-0.250
-0.175
-0.235
-0.170
-0.241
-0.320
-0.262
-0.315
-0.223
-0.287
-0.310
-0.380
-0.334
-0.295
-0.384
-0.305
-0.369
-0.248
-0.229
-0.186
-0.331
-0.299
-0.092
-0.220
-0.171
-0.123
-0.175
-0.104
-0.154
-0.144
-0.179
-0.098
0.043
0.034
-0.075
0.054
0.017
0.114
0.096
-0.011
-0.037
0.089
0.105
0.065
0.184
0.039
0.168
0.072
0.054
0.312
0.107
0.037
-0.004
0.171
0.099
0.051
0.181
0.141
0.160
0.063
-0.045
0.015
-0.034
0.094
0.172
-0.023
-0.040
-0.046
-0.036
0.034
-0.015
0.051
0.020
0.068
-0.132
-0.135
-0.059
-0.044
-0.030
0.080
-0.001
-0.073
0.009
-0.119
0.038
0.062
0.024
0.097
-0.009
0.016
0.083
0.050
0.043
-0.100
-0.007
0.073
0.202
0.076
-0.008
0.083
0.094
0.049
0.076
0.077
0.078
0.075
0.096
0.075
-0.004
0.070
-0.010
0.067
0.008
0.140
-0.027
0.001
0.127
0.093
0.041
0.022
-0.204
0.064
0.202
0.154
0.138
-0.066
-0.093
0.103
-0.024
-0.042
-0.059
-0.114
0.095
0.059
0.106
0.045
-0.090
-0.158
-0.685
-3.415
-4.142
-2.394
0.487
3.564
-1.234
-0.621
3.145
4.081
0.777
-2.288
-3.171
-1.974
0.521
3.121
4.118
4.314
4.212
4.004
3.208
1.912
0.621
-0.554
-3.166
-4.767
-2.344
0.477
0.942
0.194
-0.916
-1.552
-1.559
-0.932
-0.449
0.461
1.529
1.577
0.619
1.449
1.184
0.774
0.851
0.747
0.291
0.067
-0.279
-0.118
-0.191
0.123
0.310
0.898
1.096
1.005
0.990
0.757
0.635
1.029
1.077
1.005
0.936
0.854
0.672
0.640
0.513
0.408
0.548
0.370
0.478
0.387
0.442
0.289
0.213
0.359
0.121
0.200
0.162
0.283
0.015
0.127
0.050
0.110
-0.082
0.102
0.044
0.027
0.005
0.067
-0.114
-0.019
-0.104
-0.117
-0.085
-0.069
-0.082
-0.182
-0.156
-0.210
-0.172
-0.078
-0.090
-0.246
-0.216
-0.101
-0.117
-0.152
-0.174
-0.067
-0.089
-0.253
-0.268
-0.207
-0.119
-0.030
-0.148
-0.053
-0.170
-0.150
-0.046
0.018
-0.074
0.013
-0.041
-0.125
-0.103
0.056
-0.046
-0.044
-0.030
0.082
0.015
-0.014
0.016
0.118
-0.002
-0.050
-0.008
0.009
-0.064
0.045
0.113
0.063
0.128
-0.013
0.014
0.068
0.040
0.015
0.040
0.038
0.052
-0.054
0.035
0.032
0.117
0.004
-0.012
0.002
0.078
0.035
-0.014
-0.064
-0.005
0.105
0.105
0.106
0.042
0.013
0.060
0.072
0.034
0.035
0.100
0.028
-0.002
0.004
0.099
0.112
0.110
0.181
0.034
-0.002
0.097
0.027
0.034
0.179
0.103
0.017
0.135
0.134
0.093
0.010
0.036
0.087
-0.029
-0.012
0.124
-0.031
0.063
0.062
0.028
-0.003
-0.061
-0.024
-0.004
-0.059
-0.025
-0.002
-0.076
0.062
0.090
-0.060
0.006
-0.110
-0.040
-0.030
0.051
-0.066
-0.103
-0.030
-0.025
0.016
0.049
-0.067
-0.218
-0.109
-0.018
0.115
-0.011
-0.037
-0.158
0.053
-0.052
0.046
-0.042
0.034
-0.099
-0.030
0.022
-0.093
0.095
0.084
-0.041
-0.089
-0.012
0.008
0.081
0.045
-0.038
0.042
-0.021
0.001
0.125
-0.089
0.041
0.004
0.056
0.120
0.128
0.036
-0.032
-0.039
0.189
0.086
0.176
0.133
-0.046
0.027
0.059
0.088
0.012
0.094
0.113
0.008
0.088
0.085
0.073
0.042
0.143
-0.042
0.021
0.170
0.041
0.114
0.018
-0.062
-0.018
0.012
-0.130
0.096
0.076
0.018
-0.092
0.025
0.049
-0.050
0.031
-0.069
-0.019
0.054
0.114
-0.069
-0.069
0.074
-0.100
-0.079
0.053
0.007
-0.039
-0.079
-0.025
-0.425
-2.752
-3.944
-1.004
3.097
4.247
4.487
-0.245
-3.383
-4.244
-4.042
-1.802
1.660
3.866
4.453
4.505
4.367
4.191
4.006
3.807
2.878
0.968
-0.532
-2.059
-2.986
-3.206
-3.314
-2.993
-2.371
-1.642
-1.039
-0.606
-0.165
0.191
0.413
0.575
0.629
0.690
0.599
0.578
0.471
0.346
0.385
0.384
0.427
0.406
0.403
0.415
0.631
0.449
0.670
0.582
0.650
0.546
0.620
0.524
0.556
0.463
0.605
0.431
0.394
0.372
0.280
0.392
0.228
0.338
0.233
0.332
0.046
0.012
0.048
0.127
0.067
-0.017
0.024
-0.125
-0.046
-0.128
-0.139
-0.174
-0.222
-0.174
-0.198
-0.377
-0.216
-0.322
-0.288
-0.273
-0.408
-0.346
-0.202
-0.312
-0.269
-0.299
-0.313
-0.274
-0.372
-0.167
-0.162
-0.230
-0.305
-0.150
-0.127
-0.073
-0.212
-0.098
-0.177
-0.039
-0.024
-0.038
0.052
-0.143
-0.010
-0.011
0.034
0.035
0.080
0.115
0.151
0.175
-0.018
0.101
0.107
0.189
0.186
0.098
0.025
0.003
-0.254
-1.254
-3.196
-2.025
2.820
4.221
3.968
0.587
-2.421
-3.264
-2.701
-1.111
-1.984
-3.508
2.134
4.111
4.593
4.013
0.529
-2.393
-3.553
-3.007
-1.464
0.394
2.079
3.217
3.729
3.834
3.191
2.560
1.559
0.862
-0.036
-0.815
-1.192
-1.353
-1.561
-1.466
-1.244
-0.964
-0.693
-0.473
-0.206
-0.067
0.092
0.237
0.213
0.221
0.377
0.707
0.988
0.952
0.496
0.312
0.301
0.366
0.578
0.606
0.673
0.472
-1.671
0.897
1.784
1.407
0.671
0.092
0.119
-0.058
0.043
0.372
0.309
0.746
0.652
0.699
0.606
0.446
0.592
0.345
0.298
0.208
0.122
0.151
0.088
0.007
-0.026
0.095
0.038
0.076
-0.124
0.009
0.053
-0.022
-0.083
-0.061
-0.082
-0.111
-0.084
-0.155
-0.153
-0.214
-0.156
-0.133
-0.238
-0.119
-0.177
-0.228
-0.142
-0.157
-0.259
-0.208
-0.147
-0.011
0.015
-0.202
-0.231
-0.063
-0.117
-0.038
-0.074
0.058
-0.072
-0.131
0.015
0.006
-0.060
-0.056
-0.027
0.073
0.010
-0.016
-0.008
0.092
0.111
0.000
-0.065
0.010
0.088
0.088
-0.001
0.008
0.007
-0.032
0.198
0.180
-0.145
-0.012
0.044
0.058
0.029
0.065
0.042
-0.030
-0.026
0.043
0.129
-0.072
0.055
-0.053
0.033
-0.001
0.004
-0.033
-0.092
-0.044
0.073
-0.024
-0.068
0.058
-0.010
-0.019
0.059
-0.046
0.026
-0.016
0.065
0.071
-0.136
-0.010
0.012
-0.030
0.127
-0.040
-0.051
-0.015
0.208
0.193
-0.050
-0.003
0.049
0.028
-0.021
0.055
0.035
0.164
0.038
0.004
0.008
0.138
0.021
0.115
-0.004
0.027
0.028
0.088
0.120
0.012
0.067
-0.031
0.077
0.057
-0.100
0.105
0.002
0.002
-0.046
0.085
-0.048
0.041
0.005
-0.060
0.066
0.039
-0.068
-0.031
-0.001
-0.001
-0.003
-0.035
0.010
-0.116
-0.322
-3.050
0.369
3.325
4.166
4.275
3.592
-0.784
-3.785
-4.576
-3.484
-0.881
1.889
3.652
4.162
4.179
4.084
3.935
3.431
2.273
0.893
-0.368
-1.221
-1.793
-2.132
-2.207
-1.807
-1.468
-0.980
-0.721
-0.345
0.081
0.408
0.539
0.520
0.628
0.595
0.765
0.566
0.739
0.718
0.674
0.597
0.780
0.676
0.741
0.961
0.736
0.815
0.998
0.772
1.400
1.630
1.330
1.034
0.817
0.764
0.815
0.699
0.737
0.917
0.702
0.682
0.514
0.457
0.346
0.117
-0.005
-0.065
-0.123
-0.082
-0.134
-0.017
-0.012
-0.226
-0.124
-0.153
-0.178
-0.235
-0.212
-0.252
-0.051
-0.149
-0.275
-0.295
-0.329
-0.187
-0.257
-0.405
-0.324
-0.253
-0.296
-0.266
-0.310
-0.254
-0.308
-0.197
-0.044
-0.156
-0.196
-0.190
-0.175
-0.207
-0.034
-0.175
-0.061
0.007
-0.119
-0.131
0.091
0.009
-0.082
-0.064
0.031
-0.095
0.027
0.065
-0.093
0.051
0.076
0.064
0.020
0.147
-0.050
0.069
0.132
0.027
0.075
0.083
-0.085
0.001
0.109
0.080
0.119
-0.021
0.001
0.071
0.000
0.079
0.087
0.080
0.045
0.040
0.028
0.055
0.078
0.003
0.201
0.171
-0.131
0.018
0.010
0.011
-0.051
0.168
-0.046
0.044
0.175
-0.012
0.112
-0.037
-0.024
0.094
0.012
0.082
0.062
0.065
0.103
0.082
0.036
0.121
0.048
0.033
0.086
-0.009
0.102
0.093
0.090
0.149
0.125
0.088
0.055
-0.002
-0.035
-0.047
0.083
0.057
0.044
0.120
0.016
0.058
-0.118
0.013
0.018
0.026
-0.048
0.050
-0.026
-0.064
0.073
-0.030
0.031
-0.025
-0.092
-0.031
-0.106
-0.110
-0.030
-0.014
-0.135
-0.096
-0.051
-0.123
-0.039
-0.118
-0.105
0.012
0.002
-0.086
0.022
-0.008
-0.139
-0.080
0.007
-0.096
-0.194
0.020
0.047
-0.045
-0.067
-0.074
-0.028
-0.053
0.083
0.161
-0.015
-0.045
-0.007
0.056
0.206
-0.002
0.082
0.033
0.055
0.043
0.154
0.116
0.054
0.112
0.124
0.083
0.060
0.138
0.039
0.026
0.040
0.086
0.037
0.177
0.031
0.017
0.285
0.002
0.027
0.085
0.107
0.108
-0.080
0.088
0.039
-0.005
-0.094
-0.024
0.117
0.034
-0.014
-0.053
-0.091
0.005
0.046
-0.014
0.008
0.095
0.034
-0.093
-0.068
-0.001
0.039
0.052
-0.071
0.020
-0.015
0.002
-0.178
-0.012
-0.086
-0.080
0.015
-0.058
0.048
0.007
-0.089
0.041
-0.070
-0.044
-0.076
0.064
0.018
-0.137
-0.121
-0.010
-0.004
0.143
0.066
0.108
-0.103
-0.081
0.030
-0.030
-0.067
0.179
0.059
0.052
-0.053
0.092
0.006
0.084
0.172
0.074
0.106
-0.068
0.053
0.115
0.031
-0.016
0.067
0.009
0.037
-0.015
0.093
-0.021
0.032
0.067
-0.177
0.200
0.157
0.072
-0.067
0.000
0.030
-0.228
-0.293
-0.022
0.309
0.291
0.176
-1.182
-3.472
-0.340
3.238
4.267
4.429
3.179
-2.045
-4.029
-4.525
-3.259
0.780
3.512
4.263
4.362
4.260
4.112
3.929
3.657
1.875
0.026
-1.809
-2.965
-3.521
-3.520
-3.354
-2.664
-2.011
-1.204
-0.540
0.086
0.525
0.830
0.742
0.822
0.906
0.810
0.694
0.479
0.426
0.490
0.431
0.375
0.352
0.494
0.407
0.426
0.623
0.519
0.756
0.563
0.600
0.532
0.609
0.495
0.522
0.441
0.470
0.366
0.380
0.235
0.264
0.129
0.057
0.207
0.106
0.065
0.080
0.023
-0.211
-0.177
-0.124
-0.144
-0.137
-0.180
-0.145
-0.245
-0.230
-0.296
-0.213
-0.257
-0.363
-0.295
-0.354
-0.265
-0.156
-0.310
-0.196
-0.274
-0.302
-0.196
-0.373
-0.358
-0.322
-0.136
-0.076
-0.170
-0.146
-0.188
-0.264
-0.115
-0.141
-0.085
-0.067
-0.002
0.010
0.005
0.006
0.087
0.126
-0.121
-0.063
-0.022
-0.009
0.019
-2.599
-0.019
3.300
4.253
4.435
2.750
-2.248
-4.063
-4.505
-2.753
-0.029
-0.506
2.372
4.008
4.420
4.412
4.045
2.532
0.796
-0.614
-1.493
-2.090
-2.209
-1.941
-1.662
-1.355
-0.830
-0.612
-0.286
-0.119
0.091
0.139
-0.018
0.187
0.573
0.768
0.631
0.032
-2.697
-2.558
2.275
4.258
4.422
2.530
0.480
-0.661
-0.808
-0.307
0.512
1.323
1.911
2.112
2.116
1.682
1.293
0.741
0.372
-0.199
-0.398
-0.583
-0.566
-0.727
-0.660
-0.593
-0.342
-0.188
-0.062
-0.104
0.031
0.116
0.132
0.190
0.100
0.203
0.050
0.159
0.079
0.084
0.207
0.072
-0.048
0.049
0.073
0.159
0.122
0.121
0.033
0.171
0.029
0.088
0.217
-0.002
0.106
0.134
0.052
0.046
0.072
0.145
-0.063
-0.032
0.077
-0.013
0.006
0.103
0.017
-0.090
-0.056
0.074
0.028
-0.059
-0.028
-0.150
-0.037
-0.098
-0.014
-0.038
-0.045
-0.048
-0.122
-0.123
-0.145
-0.097
0.012
-0.120
-0.142
-0.150
-0.196
0.027
-0.066
-0.014
-0.010
-0.089
0.021
0.066
-0.017
0.024
0.031
-0.011
0.038
-0.057
0.057
0.065
-0.101
0.140
0.094
0.049
-0.065
0.043
0.200
0.044
0.049
-0.009
0.074
0.149
0.035
0.069
0.058
0.059
-0.032
0.051
0.084
0.114
0.030
-0.004
-0.055
0.019
0.096
0.044
-0.011
0.152
0.100
-0.053
0.025
0.114
0.062
0.020
-0.068
0.067
0.046
0.063
0.023
-0.112
0.096
0.089
0.002
-0.121
-0.039
0.044
-0.079
-0.069
0.014
-0.037
-0.009
-0.043
-0.053
-0.025
0.052
-0.011
0.102
-0.110
-0.003
-0.054
0.044
0.051
-0.071
-0.046
0.007
0.069
0.132
0.020
0.070
-0.151
0.001
0.070
0.141
0.026
0.038
0.066
-0.006
0.084
-0.056
-0.224
-0.270
0.126
0.256
0.134
0.145
0.052
0.066
-0.028
-1.493
-0.275
3.137
4.111
4.297
2.325
-1.765
-3.935
-4.568
-1.822
2.616
3.939
4.222
2.095
-1.130
-1.390
0.467
1.365
0.259
-0.859
1.123
3.107
3.642
3.108
2.018
0.776
-0.202
-0.733
-1.113
-1.127
-1.097
-0.797
-0.396
-0.128
0.096
0.231
0.529
0.445
0.579
0.472
0.355
0.693
0.851
0.712
-0.163
0.240
0.510
0.908
0.922
0.631
0.674
0.669
0.763
1.417
1.606
1.263
0.957
0.863
0.773
0.864
0.960
0.436
0.901
1.043
0.750
0.628
0.497
0.148
0.131
0.127
-0.022
-0.088
0.215
0.097
0.007
0.033
0.022
-0.021
-0.054
-0.075
-0.138
-0.158
-0.062
-0.197
-0.200
-0.074
-0.022
-0.264
-0.288
-0.168
-0.214
-0.231
-0.151
-0.250
-0.274
-0.232
-0.197
-0.211
-0.154
-0.254
-0.313
-0.160
-0.128
-0.222
-0.199
-0.195
-0.126
-0.045
-0.110
-0.146
-0.093
-0.099
-0.147
-0.019
0.023
0.020
-0.066
-0.114
-0.076
-0.048
-0.008
-0.023
0.143
-0.015
0.050
0.007
0.047
0.052
-0.058
-0.014
-0.068
0.105
-0.065
0.105
0.087
0.071
0.052
0.034
0.100
0.007
-0.096
-0.115
0.153
-0.001
0.038
0.088
0.032
0.004
-0.083
0.011
0.098
0.107
0.108
0.075
-0.105
0.045
0.167
-0.043
0.088
0.054
0.111
0.017
-0.040
0.010
0.116
0.060
0.168
0.197
-0.004
0.060
0.049
0.026
-0.046
0.024
0.140
0.074
0.075
0.087
0.025
0.149
0.110
0.102
-0.052
0.105
0.064
-0.048
0.068
0.089
0.051
-0.111
0.006
0.067
0.047
0.040
0.063
-0.032
-0.077
0.150
-0.108
-0.133
-0.063
0.011
-0.002
0.060
-0.080
-0.023
-0.093
-0.229
-0.134
-0.047
0.011
-0.074
-0.127
-0.082
0.013
0.023
-0.095
-0.149
0.019
0.082
-0.212
-0.037
0.005
-0.052
-0.088
-0.096
-0.052
-0.041
-0.038
-0.150
-0.004
0.010
0.094
-0.019
-0.063
0.063
0.026
0.104
-0.090
0.025
0.057
0.130
0.014
-0.069
0.115
0.189
0.011
-0.026
0.077
0.147
0.033
0.094
0.081
0.020
0.140
0.087
-0.018
0.076
-0.027
0.254
0.014
-0.023
0.041
0.064
0.101
0.137
-0.000
0.065
0.129
-0.055
0.052
0.130
0.133
-0.009
-0.007
0.010
-0.075
0.144
0.069
0.173
-0.012
-0.116
0.083
-0.072
-0.149
0.066
0.106
-0.028
0.017
0.014
0.014
0.005
-0.016
-0.035
-0.073
-0.145
-0.058
-0.026
0.102
-0.151
0.008
-0.127
0.091
-0.010
-0.043
0.020
-0.089
-0.101
-0.051
-0.140
0.006
-0.090
-0.086
0.113
0.028
-0.088
0.010
-0.187
-0.350
-2.350
-3.445
1.862
3.731
2.544
0.802
-0.558
-2.813
-1.338
-0.748
-3.035
2.391
4.030
4.398
2.731
-2.078
-4.001
-4.346
-2.787
0.050
2.710
4.069
4.379
4.353
4.192
3.583
2.340
1.091
-0.276
-1.295
-1.877
-2.221
-2.311
-2.176
-1.653
-1.164
-0.954
-0.421
-0.115
-0.045
0.328
0.479
0.479
0.454
0.483
0.400
0.333
0.402
0.273
0.355
0.320
0.293
0.514
0.380
0.600
0.561
0.418
0.508
0.543
0.641
0.565
0.480
0.532
0.584
0.428
0.340
0.456
0.407
0.312
0.244
0.194
0.277
0.369
0.234
0.059
0.240
0.068
0.132
-0.053
-0.056
-0.016
-0.053
-0.178
-0.129
-0.089
-0.067
-0.104
-0.196
-0.209
-0.325
-0.238
-0.224
-0.263
-0.310
-0.143
-0.185
-0.353
-0.311
-0.288
-0.246
-0.214
-0.336
-0.280
-0.060
-0.127
-0.231
-0.219
-0.072
-0.153
-0.187
-0.105
-0.069
-0.049
-0.107
-0.003
-0.144
0.036
0.004
-0.100
-0.067
-0.020
0.069
-0.060
0.037
0.121
0.094
0.107
0.128
0.146
0.018
0.144
0.085
0.051
0.192
0.040
0.119
0.089
0.143
-0.008
0.054
0.046
0.128
0.003
0.142
0.084
0.109
0.110
0.069
0.054
0.010
0.013
0.056
0.093
0.041
0.007
0.047
0.030
-0.080
0.031
-0.052
-0.035
0.052
-0.029
0.035
-0.063
-0.077
-0.096
-0.228
0.088
0.075
-0.078
0.221
-0.177
0.098
0.069
-0.032
0.151
0.100
0.291
0.233
0.089
0.156
0.144
0.107
0.023
0.252
-0.058
0.005
0.137
0.026
0.104
0.046
-0.012
0.003
-0.077
-0.059
0.006
0.029
-0.016
-0.114
-0.031
0.057
-0.020
-0.070
-0.040
0.000
-0.021
-0.113
-0.015
0.045
-0.186
-0.008
0.076
-0.088
0.036
0.067
-0.063
-0.031
-0.077
0.019
-0.083
-0.005
0.116
-0.011
-0.042
-0.038
-0.083
0.005
-0.029
0.006
0.159
-0.098
0.008
0.047
-0.040
0.073
-0.039
0.035
0.058
-0.053
-0.116
0.151
0.054
-0.047
0.061
-0.014
0.087
0.081
0.037
0.076
0.090
-0.101
0.112
0.062
0.020
-0.096
0.118
0.115
0.151
-0.059
0.046
0.195
0.072
-0.002
0.062
-0.007
0.124
-0.006
0.057
0.015
0.052
0.117
0.086
0.070
0.007
0.234
-0.047
-0.068
-0.052
0.112
0.086
-0.035
0.036
-0.125
0.107
-0.076
0.013
-0.068
0.048
0.085
-0.064
-0.054
0.003
0.008
0.041
-0.065
-0.064
0.059
0.050
-0.061
0.056
0.037
-0.026
0.080
0.074
-0.053
-0.014
-0.157
0.124
-0.036
-0.095
0.097
-0.104
0.002
0.104
-0.048
-0.070
-0.017
-0.013
-0.025
0.028
0.058
0.024
-0.004
0.020
-0.053
-0.019
0.011
0.073
-0.003
0.038
0.090
-0.077
-0.024
0.102
0.167
-0.009
0.002
0.055
0.032
0.013
0.120
0.066
0.054
-0.008
0.069
0.097
0.048
-0.107
0.028
0.090
0.127
0.076
-0.030
0.157
0.043
0.024
-0.073
0.138
0.052
-0.091
-2.684
-3.879
0.700
3.573
4.375
-0.369
-3.322
-3.633
0.991
3.139
3.375
3.475
3.975
4.070
4.010
3.827
3.668
3.506
3.347
3.217
2.359
0.828
-0.609
-1.508
-2.311
-2.786
-2.662
-2.583
-2.195
-1.446
-0.945
-0.505
-0.098
0.317
0.524
0.693
0.809
0.847
0.716
0.793
0.777
0.922
0.933
1.315
0.891
0.431
0.823
1.295
1.401
1.248
1.642
1.661
2.021
1.962
1.497
1.241
1.176
1.247
1.256
1.363
1.297
1.122
1.000
0.754
-0.328
-2.325
-2.375
-0.653
0.828
1.199
0.790
0.118
-0.359
-0.720
-0.487
-0.010
0.888
1.010
0.185
0.844
1.195
1.176
0.709
0.524
0.362
-0.034
-0.286
-0.469
-0.589
-0.826
-0.891
-1.088
-0.910
-0.900
-0.895
-0.898
-0.713
-0.717
-0.743
-0.503
-0.534
-0.456
-0.401
-0.352
-0.356
-0.401
-0.242
-0.194
-0.171
-0.081
-0.107
-0.049
-0.095
0.089
0.104
0.138
0.078
0.091
0.128
0.256
0.215
0.225
0.291
0.240
0.181
0.282
0.275
0.251
0.210
0.210
0.317
0.252
0.172
0.189
0.229
0.237
0.268
0.226
0.110
0.226
0.203
0.081
0.089
0.010
0.036
0.059
0.153
0.063
-0.035
-0.023
0.062
0.069
0.007
0.012
0.081
-0.124
0.035
0.034
-0.052
-0.012
-0.056
0.075
-0.022
-0.005
0.067
-0.072
-0.135
0.056
0.014
-0.039
-0.012
0.044
0.025
0.052
0.075
-0.017
-0.021
0.069
0.052
0.035
0.104
0.128
0.058
0.140
0.123
0.059
0.132
-0.020
0.043
0.077
0.060
0.149
0.188
0.005
-0.047
-0.031
0.049
0.015
0.030
-0.020
-0.150
0.021
-0.076
-0.016
-0.031
-0.038
-0.030
-0.089
-0.073
-0.105
-0.095
-0.087
-0.149
-0.131
-0.135
-0.204
-0.004
-0.015
-0.185
-0.064
-0.054
-0.195
-0.210
-0.090
0.018
-0.011
-0.165
-0.173
-0.099
0.024
0.025
-0.076
-0.068
-0.043
-0.047
0.076
0.091
0.019
0.094
0.006
0.140
0.123
0.130
0.067
0.141
-0.000
0.091
0.073
0.107
0.230
0.154
0.210
0.100
0.083
0.090
0.201
0.040
0.152
0.061
0.164
0.128
0.189
0.093
0.155
0.085
0.080
0.213
0.126
0.093
0.123
0.044
0.062
0.013
0.054
0.027
0.003
0.014
-0.027
0.035
-0.013
-0.061
-0.039
0.011
-0.070
-0.111
-0.126
-0.004
-0.033
-0.077
-0.051
-0.123
-0.023
-0.103
-0.126
-0.219
-0.049
-0.113
-0.021
-0.111
-0.232
-0.224
-0.110
-0.030
0.050
-0.063
0.063
-0.136
-0.060
-0.205
-0.049
-0.045
0.197
-0.046
0.019
-0.058
0.085
-0.005
0.027
0.105
0.046
0.005
0.046
0.110
0.073
-0.010
-0.074
0.025
0.011
0.014
0.020
0.026
-0.023
0.093
0.045
0.023
0.095
0.013
0.000
0.127
0.083
0.107
0.103
0.176
0.023
0.130
0.106
0.046
0.008
0.100
0.013
0.112
0.219
-0.003
0.066
0.190
0.032
-0.005
-0.076
0.049
0.051
0.027
0.067
0.060
-0.038
-0.037
-0.079
0.015
0.070
0.054
-0.090
-0.001
0.115
-0.002
-0.021
-0.060
-0.068
0.078
-0.004
0.031
-0.022
-0.047
-0.026
-0.121
-0.058
0.046
0.050
0.038
-0.092
-0.104
0.020
0.015
-0.013
-0.105
0.068
0.011
-0.108
-0.019
0.020
0.002
0.076
-0.087
-0.091
0.150
0.051
0.098
-0.080
0.001
0.088
0.065
-0.073
0.078
-0.001
0.003
-0.073
0.076
-0.005
-0.061
0.045
-0.020
0.014
0.011
-0.104
0.105
-0.027
0.077
0.048
0.154
-0.036
0.038
0.002
0.059
0.035
0.115
-0.042
-0.102
0.088
0.036
0.004
0.044
-0.001
0.084
-0.070
0.044
-0.004
0.102
0.011
0.037
0.050
0.047
0.009
-0.119
0.015
0.100
0.010
-0.002
0.017
-0.061
0.008
0.022
0.061
-0.161
0.064
0.036
0.148
0.089
-0.001
0.038
0.087
-0.082
0.016
0.139
-0.096
-0.925
-0.174
0.163
0.079
-0.349
-1.169
-1.533
-0.744
0.393
0.571
0.533
0.493
0.188
-0.205
-0.240
-0.053
0.169
0.301
0.365
0.484
0.572
0.437
0.344
-0.212
-0.263
-0.305
-0.551
-0.734
-0.780
-0.787
-1.658
-2.454
-2.735
-3.812
-4.050
-4.015
-0.764
3.476
4.673
4.649
-0.000
-3.074
-3.841
-2.687
0.321
3.336
4.367
4.541
4.416
4.204
3.984
3.747
3.529
2.169
-0.010
-1.806
-3.252
-4.263
-4.369
-4.037
-3.490
-2.851
-1.874
-1.043
-0.590
-0.225
0.068
0.307
0.564
0.549
0.327
0.326
0.103
0.096
0.070
0.089
0.023
0.123
0.187
0.260
0.372
0.470
0.330
0.450
0.379
0.464
0.584
0.661
0.488
0.394
0.498
0.330
0.516
0.533
0.250
0.347
0.329
0.301
0.280
0.265
0.283
0.188
0.167
0.183
-0.001
0.123
0.013
0.112
-0.143
-0.010
-0.106
-0.117
-0.163
-0.181
-0.268
0.061
-0.179
-0.229
-0.257
-0.304
-0.126
-0.262
-0.127
-0.259
-0.316
-0.224
-0.151
-0.276
-0.196
-0.194
-0.254
-0.172
-0.141
-0.274
-0.261
-0.176
-0.121
-1.353
-0.928
0.508
0.763
0.522
-0.003
-0.219
-0.241
-0.258
-0.091
0.064
0.231
0.360
0.213
0.163
0.232
0.209
0.172
-0.023
0.036
-0.018
-0.003
0.116
0.085
0.000
-0.115
-0.076
0.130
0.040
-0.046
0.135
0.183
-0.010
0.004
0.015
-0.034
0.075
-0.012
0.094
0.062
0.072
-0.063
-0.005
0.004
-0.025
-0.114
0.152
0.123
-0.038
0.093
0.045
0.045
0.053
-0.030
0.013
0.013
0.009
0.079
0.064
0.080
0.098
0.031
-0.121
0.097
-0.051
0.028
0.110
0.117
0.049
0.112
0.205
-0.022
-0.045
0.102
-1.716
0.025
2.245
2.101
0.929
-0.180
-0.855
-0.747
-0.570
-0.189
-2.093
-3.573
1.484
3.786
4.389
4.445
1.390
-2.914
-4.261
-4.546
-4.117
-2.694
2.551
4.180
4.557
4.532
4.397
4.025
2.402
0.627
-0.801
-1.694
-2.232
-2.192
-1.938
-1.523
-0.959
-0.735
-0.378
0.178
0.399
0.368
0.322
0.405
0.326
0.274
0.244
0.147
0.059
0.083
0.187
0.208
0.661
-0.107
0.001
0.218
0.431
0.971
0.010
0.043
0.603
0.628
0.283
1.001
1.248
0.917
0.582
0.424
0.374
0.463
0.523
0.468
0.513
0.485
0.387
0.239
0.126
0.236
-0.018
-0.029
-0.152
-0.278
-1.214
-1.145
0.532
0.891
0.691
0.081
-0.169
-0.336
-0.127
-0.210
0.061
0.245
0.234
0.207
0.200
0.242
0.152
0.042
-0.053
-0.120
-0.119
-0.378
-0.234
-0.073
-0.088
-0.187
-0.231
-0.096
-0.045
0.049
-0.110
-0.094
0.023
-0.055
-0.071
-0.003
-0.052
0.025
-0.040
-0.174
-0.097
0.074
0.051
-0.154
-0.100
-0.106
0.048
0.028
-0.075
-0.030
-0.079
-0.074
0.023
-0.049
0.085
-0.080
-0.076
-0.008
0.054
-0.085
0.028
0.007
0.106
0.019
0.021
0.029
0.008
-0.071
-0.027
0.073
0.074
-0.057
-0.003
0.126
0.052
0.008
-0.028
0.088
-0.023
-0.024
-0.009
0.128
0.097
0.064
0.077
-0.008
-0.007
0.020
0.126
0.053
0.066
0.104
0.064
-0.067
0.104
0.134
0.055
0.000
0.075
-0.034
0.028
0.027
0.051
0.121
-0.008
0.165
-0.009
-0.043
-0.050
0.158
0.030
0.026
-0.012
-0.027
0.093
0.091
0.063
-0.082
0.176
0.054
-0.071
-0.064
0.067
0.007
-0.054
-0.088
0.071
0.040
-0.027
-0.086
0.033
-0.029
-0.026
-0.059
0.008
-0.025
0.054
-0.196
0.066
-0.033
0.013
-0.080
-0.031
0.021
0.112
0.050
-0.067
-0.105
-0.063
0.134
0.007
-0.140
-0.074
-0.045
0.110
0.083
0.056
0.005
0.037
0.003
-0.117
0.064
0.079
-0.144
-0.028
0.057
-0.061
0.036
0.045
0.032
-0.015
-0.083
0.043
0.000
0.065
0.013
0.021
0.089
0.042
0.006
0.085
0.005
0.116
0.080
0.036
0.098
0.024
0.026
0.160
0.059
0.025
0.052
-0.052
0.006
0.088
0.157
0.020
0.033
0.077
0.077
-0.009
-0.011
-0.098
0.151
0.202
-0.037
-0.142
-0.137
0.038
0.115
0.037
0.010
-0.105
0.026
0.022
0.015
-0.025
0.100
0.092
-0.116
-0.091
-0.006
0.080
0.049
-0.081
-0.093
-0.029
0.054
0.070
-0.015
-0.074
-0.052
-0.146
-0.026
0.020
0.105
0.015
-0.017
-2.146
-3.762
-2.335
2.688
4.190
4.509
2.072
-2.629
-4.075
-4.385
-3.315
0.143
3.351
4.362
4.559
4.463
4.281
4.118
3.894
3.002
1.537
0.708
-0.658
-1.960
-3.120
-3.289
-4.653
-1.071
1.333
1.517
0.682
0.005
-0.231
-0.314
-0.055
0.161
0.421
0.487
0.641
0.502
0.591
0.580
0.430
0.149
0.230
0.340
0.222
0.315
0.417
0.468
0.618
0.513
0.648
0.564
0.908
0.737
0.742
0.796
0.856
0.675
0.701
0.633
0.567
0.534
0.596
0.542
0.505
0.381
0.440
0.536
0.236
0.107
0.303
0.246
0.203
0.135
0.089
0.042
-0.062
-0.031
-0.074
-0.099
-0.108
-0.186
-0.172
-0.213
-0.257
-0.376
-0.241
-0.371
-0.271
-0.355
-0.398
-0.422
-0.456
-0.308
-0.490
-0.327
-0.293
-0.356
-0.253
-0.266
-0.333
-0.183
-0.361
-0.279
-0.284
-0.182
-0.080
-0.197
-0.197
-0.143
-0.194
-0.100
0.055
-0.151
-0.089
0.013
0.035
-0.016
0.122
-0.016
0.022
0.082
0.035
0.074
0.057
0.154
0.208
0.068
0.046
0.102
0.081
0.137
0.228
0.156
-0.030
0.163
0.055
0.122
0.111
0.222
0.040
0.071
0.063
-0.012
-0.207
0.181
0.186
0.154
0.066
-1.553
-3.577
-0.694
3.159
4.265
4.244
0.458
-3.036
-4.172
-3.716
-1.692
0.547
2.679
4.084
4.430
4.415
4.259
3.685
1.617
1.491
0.916
-0.217
-1.322
-1.902
-2.205
-2.166
-1.924
-1.271
-0.986
-0.431
0.006
0.380
0.440
0.528
0.395
0.513
0.735
0.300
0.227
0.315
0.275
0.275
0.316
0.354
0.394
0.342
0.390
0.541
0.593
0.653
0.564
0.488
0.589
0.580
0.500
0.467
0.540
0.501
0.571
0.342
0.347
0.255
0.470
0.427
0.249
0.258
0.137
0.195
0.132
0.081
0.042
0.015
0.038
0.044
-0.020
-0.188
-0.175
-0.069
-0.166
-0.152
0.022
-0.141
-0.206
-0.246
-0.235
-0.131
-0.172
-0.244
-0.259
-0.247
-0.229
-0.245
-0.168
-0.139
-0.286
-0.129
-0.143
-0.209
-0.298
-0.064
0.011
-0.147
-0.133
-0.098
0.046
-0.036
0.018
-0.134
-0.098
-0.068
0.094
0.082
0.126
0.017
0.085
0.078
0.022
0.183
0.033
0.057
0.076
0.213
0.071
0.104
0.158
0.147
0.107
0.203
0.188
-0.052
0.046
0.146
0.058
0.199
0.066
0.004
0.067
0.052
0.071
0.099
-0.020
-0.023
-0.069
0.077
-0.075
0.039
-0.049
-0.059
0.068
-0.142
0.017
-0.029
-0.072
0.090
-0.038
-0.131
-0.085
-0.068
0.050
0.036
-0.007
-0.101
-0.021
0.034
-0.068
0.134
-0.024
-0.029
0.048
0.067
-0.005
-0.071
0.168
0.062
-0.043
0.012
0.178
0.126
0.057
0.019
0.065
0.015
0.160
0.084
0.024
0.122
0.084
0.099
0.068
0.097
-0.030
0.153
0.097
0.078
0.001
0.103
0.003
0.055
-0.000
0.017
0.107
-0.016
0.147
-0.002
0.005
-0.150
0.034
-0.046
0.029
-0.030
-0.146
-0.080
0.031
-0.006
-0.107
-0.132
0.011
-0.037
-0.021
0.090
-0.039
-0.118
-0.067
-0.053
0.010
0.024
-0.024
-0.135
-0.148
0.074
-0.059
-0.029
0.011
-0.004
-0.021
-0.127
0.029
0.036
0.083
0.107
-0.004
0.027
0.126
0.090
0.015
0.079
0.013
-0.035
0.023
0.121
0.066
0.148
0.087
0.072
0.081
-0.023
-0.143
0.101
0.109
0.099
0.156
0.095
-0.107
-0.029
0.107
0.116
-0.016
0.099
0.012
0.108
0.097
-0.001
0.126
0.006
0.137
-0.027
-0.025
0.039
-0.047
0.019
0.056
0.021
0.043
0.030
-0.064
-0.013
-0.010
-0.047
0.123
0.006
-0.091
-0.060
-0.057
-0.003
0.075
-0.080
0.003
0.117
-0.032
-0.120
-0.088
-0.081
0.110
0.106
0.009
-0.079
0.074
-0.223
0.074
0.044
0.050
-0.017
0.027
-0.011
0.062
0.022
0.194
0.414
0.635
0.210
-0.011
0.038
0.188
0.207
0.085
0.222
0.277
0.102
0.075
0.043
0.055
-0.127
-0.878
-0.195
0.179
-0.135
-3.100
-0.352
2.560
2.879
1.513
0.002
-0.788
-0.926
-0.658
-0.112
0.197
0.613
0.966
0.955
0.890
0.835
0.444
0.162
-0.055
-0.305
-0.262
-0.101
0.021
-0.185
-0.129
-0.085
-0.023
0.082
0.023
0.242
0.429
0.359
0.155
0.110
0.097
0.126
0.216
0.055
-0.005
0.065
-0.005
-0.144
-2.547
-3.087
1.917
3.906
3.193
1.209
-0.542
-1.373
-1.481
-1.079
-0.202
0.499
1.152
1.720
1.836
1.707
1.682
1.446
0.260
-1.508
-0.069
0.886
0.752
-0.005
-0.568
-0.557
-0.593
-0.517
-0.319
-0.395
0.014
0.348
0.401
0.497
0.210
0.049
-0.045
-0.172
-0.074
-0.093
0.036
-0.106
-0.080
0.036
0.095
-0.070
-0.194
-0.259
-0.195
-0.134
-0.001
0.145
0.290
0.333
-0.029
-0.628
-3.033
-0.480
1.738
2.031
1.436
0.648
0.185
0.039
0.544
0.452
0.368
0.889
0.872
0.962
0.938
0.676
0.356
0.292
0.121
-0.182
-0.456
-0.451
-0.637
-0.699
-0.796
-0.899
-0.539
-0.253
-0.130
-0.089
-0.067
0.012
-0.017
-0.070
-0.010
-0.006
0.052
-0.009
-0.239
-0.290
-0.350
-0.451
-0.897
-0.360
-0.801
-0.504
0.109
0.383
0.076
-0.050
-0.173
-0.016
0.072
0.255
0.530
0.605
0.850
0.684
0.689
0.668
0.472
0.319
0.166
0.142
-0.000
0.099
-0.070
0.066
-0.134
-0.039
-0.050
-0.008
-0.053
-0.045
-0.027
0.091
-0.005
-0.025
-0.004
-0.083
0.068
-0.128
0.000
-0.069
-0.001
-0.020
0.013
-0.068
-0.126
-0.036
0.044
0.121
-0.041
0.019
0.060
-0.017
0.010
0.023
-0.005
0.059
0.074
-0.024
0.023
0.090
0.043
0.027
0.122
0.085
0.013
0.113
-0.007
0.018
0.183
0.037
0.071
0.064
0.085
0.063
0.060
0.037
0.074
0.076
0.031
0.031
0.159
0.133
-0.062
0.090
0.060
-0.035
0.108
0.092
-0.053
0.077
-0.006
0.051
0.000
-0.102
0.060
-0.030
0.083
0.011
-0.015
-0.006
0.070
-0.044
-0.027
-0.090
-0.045
-0.039
-0.006
0.057
-0.072
-0.042
-0.079
-0.048
0.027
0.093
0.017
0.024
-0.081
-0.006
0.028
0.037
0.056
-0.120
-0.042
0.081
0.001
-0.015
0.022
-0.055
0.113
-0.088
0.070
-0.018
0.133
0.098
0.095
-0.046
-0.110
0.062
0.102
0.112
0.021
0.151
0.114
-0.126
0.032
0.106
-0.030
0.098
-0.038
-0.056
0.107
0.149
0.066
0.046
0.010
0.051
0.077
0.129
-0.061
0.082
0.010
0.106
-0.042
-0.045
0.104
0.089
0.025
-0.025
0.058
0.129
0.001
0.051
-0.051
-0.031
0.044
0.054
0.025
-0.037
0.168
0.051
-0.016
-0.042
-0.076
0.041
-0.023
0.054
0.049
0.079
0.001
-0.046
0.056
0.126
-0.023
-0.087
-0.019
0.002
0.097
0.036
-0.030
-0.013
0.072
0.009
-0.097
-0.039
0.039
-0.081
0.064
0.042
0.026
0.043
0.138
-0.045
-0.053
-0.035
-0.067
0.016
0.133
0.055
0.078
-0.067
0.016
0.008
0.039
0.033
-0.153
0.029
0.103
0.077
0.045
-0.031
0.035
-0.030
0.070
-0.023
0.031
0.068
0.086
0.019
0.002
-0.001
-0.037
0.066
0.081
0.027
0.094
0.064
0.020
-0.017
0.123
0.103
-0.035
0.061
0.002
0.056
-0.010
-0.062
0.031
-0.089
0.047
0.048
-0.153
0.058
0.011
0.040
0.114
0.010
0.065
-0.057
0.021
-0.065
0.006
0.048
0.044
-0.004
0.034
0.072
-0.114
-0.072
0.069
-0.032
0.097
0.008
0.149
-0.026
0.017
-0.128
0.071
-0.018
0.007
0.088
0.027
0.110
0.024
-0.025
-0.021
0.061
0.034
0.061
0.169
0.007
0.006
0.038
-0.061
-0.057
0.059
0.038
0.100
0.012
0.062
0.001
0.073
-0.038
0.018
0.032
-0.025
0.134
0.041
0.009
0.038
0.042
-0.055
-0.031
0.056
0.058
-0.023
0.026
0.001
0.021
0.023
-0.056
0.028
-0.123
0.131
-0.013
0.004
0.025
0.058
0.079
0.170
-0.107
0.011
-0.053
0.127
-0.123
0.115
0.037
0.030
-0.028
0.037
0.082
0.073
0.110
-0.001
-0.008
0.039
-0.028
0.031
0.073
-0.010
0.031
0.018
-0.022
-0.016
0.035
-0.003
0.054
0.126
0.082
-0.146
0.027
0.134
0.002
0.044
0.024
-0.035
0.149
-0.080
0.057
0.015
0.103
0.017
0.082
-0.039
0.006
0.034
-0.041
0.003
0.015
0.011
-0.058
0.069
-0.075
-0.003
-0.014
0.090
0.008
0.009
0.054
-0.038
0.014
-0.080
-0.032
-0.011
0.121
-0.093
-0.010
-0.012
0.058
0.063
0.063
0.061
0.042
0.018
-0.021
0.003
-0.055
0.048
0.037
-0.052
0.007
0.257
0.025
-0.087
0.013
0.125
0.025
-0.049
0.135
-0.046
-0.006
-0.031
0.045
0.098
0.067
0.042
-0.014
-0.105
0.055
-0.012
0.032
0.068
-0.063
0.071
-0.004
0.017
0.014
0.028
0.095
-0.016
-0.103
-0.015
0.033
0.093
0.029
-0.046
0.067
-0.023
-0.031
0.126
0.038
0.040
-0.080
0.055
-0.037
0.025
0.018
0.004
0.074
0.131
-0.152
0.095
0.063
-0.005
0.063
-0.042
0.005
0.109
-0.029
0.086
0.072
-0.011
0.073
0.069
-0.040
-0.011
0.008
-0.002
0.085
0.026
0.047
-0.002
-0.003
0.128
0.018
0.008
-0.018
-0.056
0.030
0.117
0.049
-0.056
0.075
0.033
-0.074
0.112
-0.117
0.072
0.087
-0.011
-0.051
0.081
0.094
-0.062
0.031
-0.111
0.029
-0.015
0.079
0.021
0.057
-0.112
0.029
0.066
0.052
0.069
0.047
0.127
-0.055
-0.028
0.116
0.012
0.004
0.156
0.035
-0.045
-0.030
0.002
0.018
0.022
-0.026
-0.044
0.057
0.081
0.157
0.003
-0.036
0.030
0.035
0.116
-0.036
0.116
-0.044
0.139
0.048
-0.000
0.035
-0.042
-0.054
0.109
0.026
-0.020
0.007
0.080
0.018
0.011
-0.084
0.095
-0.086
0.075
0.152
0.094
0.014
0.009
0.049
-0.046
-0.049
0.001
0.098
-0.008
-0.052
0.075
0.022
0.009
-0.075
0.042
0.028
0.076
0.009
0.029
-0.000
0.168
0.541
0.595
0.276
0.153
-0.003
0.028
0.112
0.090
0.096
0.089
-0.267
-2.415
-1.234
0.170
0.731
0.651
0.142
-0.245
-0.599
-0.477
-0.378
-0.160
0.195
0.504
0.525
0.617
0.802
1.023
0.917
0.548
0.248
-0.004
0.037
0.021
-0.029
0.155
0.125
0.048
-0.069
-0.171
-0.211
-1.601
-2.417
-0.950
0.463
1.080
0.907
0.336
-0.160
-0.210
-0.233
-0.267
-1.497
-1.958
1.076
2.275
1.850
1.083
0.285
-0.056
-0.175
-0.141
-0.041
0.103
0.232
0.169
0.132
0.192
0.063
0.107
-0.215
-0.198
-0.181
-0.056
0.043
-0.121
-0.012
-1.601
-0.816
0.604
0.267
0.263
-0.176
-0.682
-2.204
-2.087
-0.157
1.606
1.644
0.662
-0.269
-0.500
-0.360
-0.084
0.278
0.480
0.673
0.578
0.610
0.581
0.439
-0.047
-0.183
-0.089
0.055
0.144
0.237
0.414
0.550
0.123
-0.164
-0.242
-0.176
-0.004
-0.099
-0.946
-1.965
-0.613
0.997
0.461
0.733
0.646
-0.246
-0.399
-0.577
-0.612
-0.179
0.036
0.329
0.427
0.713
0.623
0.589
0.329
0.258
0.183
0.100
-0.092
-0.174
-0.329
-0.294
-0.613
-0.225
0.098
0.018
0.109
0.022
-0.340
0.265
0.295
0.168
0.312
-0.082
-0.716
-3.152
-1.477
2.200
1.756
1.878
1.185
0.404
0.120
-0.160
-0.273
-0.049
0.375
0.931
1.354
1.549
1.463
1.432
0.988
0.519
0.140
-0.098
-0.376
-0.548
-0.639
-0.765
-0.631
-0.686
-0.424
-0.268
-0.288
-0.134
-0.135
0.046
0.034
0.155
0.026
0.099
0.012
-0.088
0.042
0.019
0.104
0.123
0.195
0.117
0.062
0.084
0.099
0.256
0.314
0.172
0.145
0.156
0.164
0.307
0.133
0.201
0.106
0.250
0.154
0.171
0.145
0.194
0.152
0.125
0.137
0.139
-0.027
0.056
0.092
0.136
0.138
0.016
-0.030
-0.033
0.057
-0.046
-0.091
0.009
0.036
-0.085
-0.093
-0.076
-0.010
-0.164
-0.097
-0.090
-0.082
-0.254
-0.128
0.033
-0.028
-0.117
-0.173
-0.107
-0.202
-0.131
-0.033
-0.141
-0.210
-0.286
-0.261
-0.234
-0.115
-0.300
-0.491
-0.411
-0.401
-0.343
-0.350
-0.490
-0.998
-0.800
-0.446
-0.132
-0.186
-0.587
-0.411
-0.283
-0.882
-0.972
0.140
0.471
0.469
0.374
0.393
0.299
0.334
0.566
0.720
0.720
0.591
0.658
0.762
0.627
0.547
0.544
0.321
0.155
0.145
0.087
-0.015
-0.204
-0.366
-0.437
-0.394
-0.382
-0.486
-0.407
-0.456
-0.437
-0.432
-0.436
-0.252
-0.181
-0.325
-0.137
-0.056
-0.125
-0.055
-0.115
-0.029
-0.045
0.044
0.192
0.197
0.093
0.127
0.305
0.243
0.341
0.284
0.270
0.237
0.349
0.398
0.388
0.335
0.299
0.412
0.287
0.276
0.387
0.317
0.251
0.309
0.401
0.252
0.223
0.217
0.227
0.310
0.134
0.193
0.145
0.186
0.109
0.079
0.015
0.136
0.086
0.167
0.041
0.064
-0.058
-0.090
0.009
0.009
-0.092
-0.062
-0.031
-0.135
-0.117
0.004
-0.167
-0.137
-0.065
-0.167
-0.163
-0.152
-0.161
-0.122
-0.205
-0.124
-0.004
-0.118
-0.122
-0.082
-0.179
-0.077
-0.037
-0.055
-0.014
-0.005
-0.086
-0.085
-0.141
0.022
0.044
-0.023
0.037
0.000
0.058
0.041
0.101
-0.040
0.032
0.123
0.002
0.036
0.014
-0.103
0.067
0.129
0.136
0.130
0.062
0.002
-0.005
0.060
0.133
0.044
0.000
-0.010
0.110
-0.029
0.051
-0.011
0.076
0.055
0.045
-0.031
0.043
0.089
0.006
0.022
0.028
0.150
-0.003
-0.002
0.086
-0.017
0.070
-0.018
0.164
-0.126
0.099
-0.068
-0.077
0.150
0.099
0.088
0.057
0.030
0.124
-0.064
-0.044
0.012
-0.080
0.041
0.006
0.068
0.058
0.058
0.108
0.027
-0.015
-0.032
0.043
0.089
0.114
0.106
0.037
0.112
-0.013
-0.016
0.082
0.040
0.001
0.111
0.055
-0.034
0.046
0.009
-0.055
0.089
0.128
0.066
-0.038
-0.005
0.016
-0.049
-0.014
0.145
-0.085
-0.058
-0.105
-0.011
-0.043
-0.021
0.008
-0.044
0.012
-0.049
-0.046
-0.200
-0.056
0.055
-0.103
-0.029
-0.034
0.063
0.004
-0.142
-0.137
0.028
0.017
0.001
0.027
-0.008
0.086
0.063
-0.143
0.013
-0.048
0.104
0.040
0.038
-0.077
0.066
0.094
0.092
-0.055
0.005
-0.008
0.120
0.063
-0.101
0.013
0.081
0.142
0.083
0.075
0.037
0.008
0.146
0.093
-0.051
0.022
0.041
0.020
0.050
0.113
0.106
0.029
0.204
-0.048
0.111
0.072
-0.051
0.011
0.021
0.023
0.075
0.078
0.082
0.001
0.065
-0.020
0.069
0.059
0.073
0.047
-0.056
-0.053
-0.016
-0.001
-0.061
-0.038
-0.006
0.061
-0.083
0.121
0.010
-0.026
-0.045
-0.024
0.041
0.076
0.027
0.025
-0.173
0.062
0.035
0.086
0.021
0.025
0.038
-0.061
-0.044
0.028
0.024
0.073
-0.023
0.004
-0.085
0.053
0.009
0.009
0.034
0.183
0.052
0.015
-0.097
-0.017
0.099
0.050
-0.027
0.018
0.012
-0.009
0.035
0.056
0.064
0.023
0.044
0.075
-0.078
0.134
0.034
-0.014
0.011
0.029
0.127
0.125
0.075
0.042
0.140
0.005
-0.114
0.064
0.068
0.027
0.029
-0.013
0.050
-0.000
0.000
0.140
0.097
-0.058
-0.058
-0.089
0.022
0.031
0.018
0.043
-0.100
-0.037
0.051
0.035
0.006
0.055
0.043
0.016
-0.036
0.026
0.162
-0.112
0.023
0.069
0.019
0.042
-0.002
-0.092
0.105
0.031
-0.054
0.021
0.104
0.180
-0.053
-0.012
0.034
0.034
-0.002
0.052
-0.059
-0.066
-0.010
0.063
-0.010
0.069
-0.037
0.019
-0.028
-0.012
0.113
0.009
0.104
-0.017
0.022
-0.048
0.031
0.120
0.085
0.016
0.023
0.000
0.003
0.076
-0.036
-0.058
0.050
0.078
-0.011
0.070
0.204
0.542
0.464
0.251
0.074
-0.044
-0.012
0.116
0.259
0.257
0.101
0.178
0.099
-0.000
-0.044
-0.141
-0.063
-0.129
-0.199
-0.084
-0.079
0.000
-0.093
-0.149
0.077
0.107
0.013
0.133
0.107
0.114
0.058
-0.000
-0.086
0.146
0.292
0.268
0.111
-0.319
-2.117
-3.372
-2.109
0.655
2.250
0.732
0.133
-0.104
-0.203
-0.292
-0.372
-0.135
0.580
0.729
0.745
1.174
1.459
1.626
1.105
0.442
0.460
0.540
-0.167
-0.472
-0.035
-0.025
-0.186
-0.305
-0.300
-0.402
-0.234
-0.259
-0.243
-0.131
-0.152
-0.269
-0.183
-0.233
-0.313
-0.222
-0.184
-0.205
-0.285
-0.172
-0.004
-0.095
-0.028
-0.048
-0.034
-0.056
0.127
0.077
0.143
0.081
0.310
0.177
0.174
0.235
-0.293
-3.047
1.060
3.760
4.329
2.304
-0.089
-1.506
-1.661
-1.178
-0.284
0.744
1.249
1.923
1.990
1.722
1.302
0.959
0.584
0.166
-0.219
-0.437
-0.794
-2.254
-1.644
2.001
2.361
1.085
0.040
-0.623
-0.804
-0.643
-0.236
0.188
0.517
0.823
0.792
0.715
0.558
0.392
0.247
0.166
-0.017
-0.054
-0.042
-0.174
-0.124
-0.030
0.111
0.060
-0.061
0.341
0.314
0.241
0.257
0.506
0.309
0.161
0.348
0.183
0.038
0.257
0.270
0.326
0.211
0.133
0.077
0.029
0.094
0.286
0.263
0.160
0.161
0.109
0.006
0.138
0.103
0.078
0.127
0.191
-0.025
-0.022
0.075
-0.056
-0.073
0.058
-0.106
-0.057
-0.086
-0.152
-0.059
-0.089
-0.169
-0.226
-0.169
-0.196
-0.213
-0.060
-0.191
-0.104
-0.103
-0.135
-0.026
-0.185
-0.128
-0.183
-0.142
-0.088
-0.055
-0.092
-0.074
-0.017
0.011
0.031
-0.110
0.069
0.085
-0.004
0.012
-0.009
0.088
0.051
0.070
-0.039
0.083
0.100
0.052
0.113
0.014
0.027
0.134
0.131
-0.041
0.071
0.117
0.030
0.120
0.122
0.037
0.014
0.106
0.157
0.078
0.055
0.042
0.039
0.059
0.081
0.052
0.169
0.044
0.063
0.007
0.131
0.054
-0.166
0.073
0.028
0.022
0.099
-0.026
-0.039
-0.021
0.035
0.055
-0.062
-0.056
-0.119
-0.034
-0.100
0.003
0.095
0.112
-0.036
0.006
-0.033
-0.049
0.033
-0.064
0.061
0.090
0.032
0.006
-0.028
-0.010
-0.075
0.020
-0.011
-0.020
0.099
-0.003
-0.118
-0.098
0.047
0.051
-0.095
-0.003
0.017
0.051
-0.109
0.025
0.008
-0.010
0.050
-0.015
-0.017
0.045
0.065
-0.091
0.016
-0.015
-0.043
0.028
0.031
0.090
0.055
-0.068
-0.007
-0.099
0.057
0.056
0.106
0.053
-0.029
-0.137
0.031
0.127
-0.102
0.037
-0.009
-0.059
0.045
0.069
-0.064
0.043
-0.038
0.009
0.021
0.013
-0.066
0.063
-0.015
-0.108
-0.005
0.019
0.062
0.132
-0.007
-0.141
0.101
-0.058
0.203
-0.009
-0.017
0.157
0.083
-0.011
0.036
0.059
0.008
0.017
0.033
0.073
0.019
0.092
0.118
-0.021
-0.089
0.094
0.212
-0.028
0.087
0.046
0.137
0.054
-0.002
-0.005
-0.050
0.067
0.020
0.074
-0.077
0.058
0.092
0.025
-0.111
-0.001
0.050
0.079
0.084
-0.072
-0.013
0.094
0.060
-0.008
0.022
0.000
0.038
0.038
-0.041
-0.049
0.203
0.031
-0.078
-0.071
0.092
0.033
0.080
-0.023
0.031
0.089
-0.105
-0.064
-0.003
0.025
0.123
0.026
-0.060
-0.137
0.063
-0.039
0.088
0.071
0.044
-0.082
0.017
0.053
-0.715
-3.342
0.901
3.584
4.284
3.615
-1.732
-3.893
-4.428
-3.846
-0.763
2.702
4.145
4.483
4.449
4.296
4.133
3.445
1.949
0.343
-1.082
-2.151
-2.695
-2.838
-2.751
-2.129
-1.695
-1.221
-0.745
-0.107
0.172
0.357
0.618
0.577
0.732
0.548
0.441
0.456
0.389
0.349
0.287
0.326
0.285
0.362
0.472
0.442
0.437
0.622
0.493
0.501
0.487
0.431
0.530
0.533
0.384
0.302
0.381
0.434
0.314
0.286
0.223
0.303
0.163
0.172
0.178
0.201
0.038
-0.059
0.067
-0.003
-0.035
-0.001
-0.000
-0.171
-0.143
-0.156
-0.195
-0.192
-0.200
-0.273
-0.248
-0.284
-0.070
-0.287
-0.202
-0.292
-0.339
-0.239
-0.170
-0.245
-0.308
-0.208
-0.203
-0.242
-0.245
-0.141
-0.172
-0.208
-0.128
-0.085
0.006
-0.125
-0.203
0.019
-0.065
-0.018
-0.150
0.018
0.085
-0.046
0.030
-0.061
0.112
0.078
-0.002
-0.000
0.008
0.057
0.134
0.065
-0.051
0.214
0.185
-0.023
-0.022
0.181
0.131
0.039
0.082
0.020
0.161
0.065
-0.040
0.130
0.130
0.065
-0.073
0.066
-0.078
0.176
-0.001
-0.032
-0.045
0.143
0.005
-0.014
0.106
-0.052
0.103
0.021
0.092
0.009
0.165
0.042
-0.122
0.007
0.029
0.041
-0.038
0.033
-0.026
-0.043
0.019
0.107
0.101
-0.090
-0.059
-0.046
-0.073
-0.020
0.178
0.105
0.032
-0.000
0.075
-0.017
-0.054
-0.132
0.127
0.069
0.033
0.005
0.049
-0.039
0.165
0.008
0.041
0.065
-0.031
-0.002
0.047
0.010
0.072
0.072
-0.011
-0.014
-0.100
0.079
0.071
0.019
-0.114
-0.015
-0.039
-0.089
-0.053
-0.074
0.007
0.041
0.013
-0.100
-0.111
-0.132
0.049
-0.074
0.046
-0.072
-0.085
-0.114
0.014
0.057
-0.048
0.011
0.112
-0.052
-0.055
0.017
0.010
0.047
-0.081
0.152
0.032
-0.064
-0.045
0.028
0.069
0.152
0.050
-0.046
-0.062
0.088
0.078
-0.032
0.077
0.147
-0.091
0.002
0.130
0.139
0.086
0.120
0.057
-0.008
0.131
0.021
0.146
0.175
0.055
0.035
0.008
0.059
0.136
0.063
0.046
-0.074
0.098
0.039
0.160
0.002
0.012
0.025
0.074
0.027
-0.021
-0.155
0.059
0.007
-0.010
0.047
-0.050
0.066
-0.061
0.114
0.032
0.065
0.048
-0.247
-2.318
-3.156
-0.357
1.842
2.182
1.127
0.052
-0.553
-0.758
-0.459
-0.206
0.306
0.606
0.770
0.794
0.576
0.636
0.392
0.047
-0.077
-0.223
-0.140
-0.346
-0.351
-0.646
-0.702
-0.529
-0.370
-0.234
0.343
0.367
0.290
-0.026
-0.073
-0.045
0.078
0.046
0.194
0.273
0.138
0.237
0.054
0.055
-0.489
-2.667
-3.877
-3.915
-2.467
2.843
4.402
4.233
-1.035
-3.358
-3.983
-3.872
0.143
3.612
4.600
4.769
4.665
4.465
3.382
-2.346
-4.209
1.393
3.265
3.753
0.163
-3.638
-4.751
-4.979
-4.458
-2.139
1.121
3.427
4.146
4.275
4.173
4.027
3.518
2.364
1.060
-0.283
-1.208
-1.139
-0.856
-1.192
-1.488
-1.466
-0.987
-0.634
-0.111
0.392
0.662
0.759
0.852
0.773
0.572
0.509
0.439
0.285
0.171
0.131
0.364
0.334
0.276
0.470
0.719
0.638
0.704
0.866
0.814
0.818
0.923
0.801
0.494
-0.827
-2.343
2.091
3.695
2.871
1.348
0.184
-0.367
-0.265
-0.007
0.413
0.678
0.864
1.061
0.944
0.928
0.557
0.394
0.066
-0.017
-0.431
-0.446
-2.113
-3.991
-1.189
2.729
3.843
2.872
0.082
-2.147
-2.703
-2.041
-1.212
0.005
1.176
2.161
2.619
2.844
2.652
1.940
1.238
0.506
-0.184
-0.902
-1.413
-1.597
-1.539
-1.408
-1.270
-1.144
-0.811
-0.637
-0.261
0.004
0.081
0.219
0.281
0.266
0.426
0.377
0.486
0.364
0.536
0.463
0.323
0.510
0.507
0.467
0.638
0.522
0.602
0.609
0.635
0.679
0.550
0.643
0.542
0.578
0.463
0.464
0.393
0.474
0.380
0.197
0.309
0.449
0.204
0.254
0.176
0.029
0.201
0.074
0.058
0.004
0.005
-0.080
-0.151
-0.066
-0.075
-0.082
-0.157
-0.241
-0.148
-0.197
-0.146
-0.191
-0.273
-0.199
-0.158
-0.263
-0.224
-0.219
-0.083
-0.172
-0.185
-0.145
-0.194
0.049
-0.073
-0.149
-0.039
-0.063
-0.128
-0.099
-0.134
-0.087
0.010
-0.067
0.045
-0.093
-0.035
-0.023
0.037
-0.039
0.018
0.098
0.040
0.068
0.121
-0.037
0.064
0.061
0.183
0.018
-0.078
0.081
0.085
-0.030
-0.036
-0.072
0.056
0.094
-0.136
-0.109
0.163
0.027
-0.092
-0.057
0.017
-0.139
0.015
-0.006
-0.027
-0.010
-0.033
-0.025
-0.103
-0.068
-0.096
-0.082
-0.052
-0.129
-0.040
-0.049
0.118
0.077
0.036
0.028
-0.059
0.003
-0.036
0.081
0.105
-0.003
0.051
0.124
0.047
0.152
0.118
0.174
0.082
0.053
0.105
0.110
0.076
0.014
0.052
0.118
0.257
0.084
0.221
0.110
-0.038
0.047
0.016
0.204
0.107
0.186
0.031
0.175
0.132
0.075
0.094
0.005
0.121
0.125
0.037
-0.141
0.056
-0.029
0.041
-0.022
-0.052
-0.065
-0.079
-0.082
0.059
0.078
-0.077
-0.080
-0.219
-0.102
-0.033
-0.082
-0.055
-0.184
-0.171
-0.067
0.011
-0.204
-0.203
-0.144
-0.107
0.003
-0.052
-1.378
-3.607
0.142
3.313
4.171
2.911
-0.780
-3.006
-3.701
-4.253
-4.343
1.509
3.871
4.514
4.410
0.921
-2.498
-3.590
-2.830
-0.756
1.590
3.440
4.211
4.368
4.248
4.010
3.111
2.022
0.796
0.254
0.043
-0.656
-1.474
-2.844
-3.467
-2.503
0.731
1.366
0.919
0.387
0.044
-0.085
-0.034
-0.004
0.429
0.606
0.616
0.513
0.511
0.670
0.679
0.547
0.277
0.437
0.427
0.377
0.447
0.517
0.529
0.595
0.729
0.753
0.677
0.657
0.731
0.720
0.642
0.607
0.588
0.547
0.691
0.439
0.529
0.460
0.457
0.363
0.370
0.274
0.214
0.137
0.166
0.075
0.157
0.009
-0.044
-0.014
-0.172
-0.135
-0.118
-0.260
-0.156
-0.172
-0.365
-0.268
-0.114
-0.327
-0.357
-0.380
-0.394
-0.316
-0.336
-0.394
-0.361
-0.497
-0.330
-0.273
-0.306
-0.340
-0.211
-0.318
-0.389
-0.211
-0.171
-0.142
-0.204
-0.235
0.019
-0.151
-0.135
-0.117
-0.127
-0.094
-0.110
-0.055
-0.071
0.116
0.003
-0.096
0.112
0.060
-0.064
0.054
0.147
0.188
0.032
0.044
0.025
0.113
0.095
0.023
0.105
0.137
0.120
0.177
0.072
0.100
0.039
0.222
0.011
0.116
0.103
0.072
0.088
0.070
0.092
0.103
0.177
0.034
0.025
0.067
0.044
0.000
-0.053
0.054
0.137
-0.146
0.029
0.080
0.089
0.079
0.053
0.087
0.019
0.068
-0.003
0.103
0.118
0.053
0.007
0.089
0.047
0.078
0.043
0.043
0.044
-0.094
0.023
0.145
-0.008
0.050
0.137
0.042
0.023
0.091
0.069
-0.038
-0.129
0.071
0.158
-0.060
0.081
0.189
0.102
-0.029
-0.127
0.060
0.144
0.077
-0.114
-0.188
0.053
0.005
0.114
0.173
-0.102
-0.057
-0.191
0.043
-0.139
-0.157
-0.042
0.046
0.015
0.108
-0.072
-0.174
-0.096
-0.078
-0.129
-0.040
0.047
-0.039
-0.037
-0.062
-0.092
-0.019
-0.040
-0.006
-0.103
0.050
0.031
0.083
-0.031
-0.054
0.048
0.055
-0.154
0.042
-0.106
0.116
0.066
0.039
0.097
-0.054
-0.040
0.096
0.046
0.062
0.077
0.064
0.147
0.034
0.066
0.060
-0.003
0.057
0.150
0.070
0.080
0.183
0.051
0.025
0.125
0.047
0.093
0.123
0.035
0.035
-0.002
0.094
0.032
0.053
0.054
0.091
-0.017
0.051
-0.018
0.045
-0.020
0.085
0.008
-0.017
-0.110
0.000
0.161
-0.043
-0.142
-0.056
-0.146
-0.022
0.009
-0.028
-0.148
-0.007
0.009
-0.034
-0.017
-0.060
-0.018
0.007
-0.085
-0.041
-0.105
-0.012
0.044
-0.023
-0.132
-0.333
-0.188
0.160
0.146
0.028
0.139
-0.066
-0.048
-0.140
-0.088
-0.145
0.126
0.141
0.049
-0.000
0.068
0.067
-0.061
0.154
-0.066
0.117
0.096
0.075
0.138
-0.007
0.017
0.145
-0.127
-0.684
-1.277
-0.520
0.765
0.948
0.830
0.306
-0.096
-0.289
-0.230
-0.074
0.218
0.189
0.380
0.411
0.414
0.249
0.177
0.167
0.041
0.046
-0.056
-0.067
-0.167
-0.182
-0.183
-0.210
-0.080
-0.259
-2.890
-3.616
-4.102
1.897
4.003
3.422
0.580
-2.745
-3.935
1.669
3.817
-0.483
0.189
3.245
4.081
4.232
2.259
-2.408
-4.001
-2.981
-0.020
2.761
3.773
3.984
3.930
3.807
3.662
3.122
1.447
-0.239
-1.567
-2.543
-2.896
-3.099
-2.888
-2.425
-1.909
-1.244
-0.617
-0.436
0.215
0.794
0.755
0.980
0.825
0.644
0.839
0.694
0.721
0.613
0.598
0.627
0.799
0.860
0.977
0.774
0.816
0.857
0.820
1.000
0.847
0.849
0.735
0.722
0.535
-0.011
-2.550
2.613
4.375
4.369
1.750
-2.101
0.237
1.251
0.871
0.441
0.293
0.388
0.965
1.304
1.386
1.321
1.041
0.761
0.258
-0.045
-0.534
-0.885
-1.144
-1.320
-1.088
-1.143
-1.046
-0.718
-0.753
-0.525
-0.338
-0.250
-0.278
-0.150
-0.021
0.089
0.093
0.169
0.135
-1.444
-1.632
-1.821
0.830
2.385
1.840
0.953
0.257
-0.189
-0.019
0.250
0.632
0.869
1.185
1.253
1.210
1.176
0.912
0.618
0.528
0.243
-0.043
-0.090
-0.195
-0.193
-0.083
0.033
-0.036
-0.094
-0.069
-0.146
-0.124
0.090
0.029
0.073
-0.036
-0.194
-0.195
-0.077
-0.218
-0.036
-0.089
-0.294
-0.366
-0.315
-0.218
0.052
0.040
-0.056
-0.073
-0.118
-0.115
-0.130
-0.220
-0.024
0.145
0.160
0.087
-0.042
-0.142
-0.066
0.102
0.093
-0.027
-0.073
-0.020
-0.007
-0.023
-0.078
0.065
0.130
0.073
0.137
0.091
-0.019
-0.010
0.066
-0.059
-1.451
-0.808
-0.858
-3.262
-0.360
3.344
4.396
4.593
1.522
-2.633
-4.046
-4.310
-2.283
0.629
3.292
4.292
4.452
4.371
4.195
3.995
3.416
1.805
0.443
-0.534
-1.344
-1.881
-1.953
-1.964
-1.739
-1.605
-1.069
-0.766
-0.550
-0.318
-0.230
0.089
-0.048
0.023
0.103
0.236
0.169
0.198
0.283
0.242
0.275
0.416
0.393
0.526
0.513
0.592
0.558
0.651
0.727
0.648
0.574
0.590
0.720
0.707
0.731
0.536
0.606
0.617
0.514
0.518
0.588
0.492
0.410
0.167
0.476
0.256
0.396
0.349
0.177
0.062
0.097
0.203
0.183
-0.022
0.039
0.065
-0.096
-0.080
-0.072
-0.191
-0.120
-0.066
-0.180
-0.290
-0.327
-0.200
-0.292
-0.278
-0.350
-0.440
-0.300
-0.413
-0.517
-0.410
-0.291
-0.333
-0.354
-0.520
-1.883
-3.914
-2.483
2.431
3.885
4.234
1.090
-2.627
-4.072
-3.785
-2.017
0.302
2.301
3.755
4.173
4.222
3.760
2.289
-2.868
-1.174
2.440
3.039
1.964
-0.519
-2.381
-3.188
-2.823
-1.669
-0.529
0.677
1.496
1.937
1.979
1.970
1.555
1.155
0.437
0.208
-0.136
-0.417
-0.549
-0.449
-0.336
-0.221
-0.056
0.131
0.207
-2.355
-1.752
2.795
3.695
-0.938
1.212
2.417
1.672
0.716
0.091
0.063
0.466
0.922
1.334
1.594
1.633
1.492
1.336
1.005
-0.034
-1.040
2.062
2.180
1.091
-0.009
-0.809
-1.089
-0.860
-0.343
-0.144
0.214
0.415
0.653
0.610
0.496
0.401
0.212
-0.126
0.005
-0.192
-0.212
-0.329
-0.306
-0.281
-0.218
-0.050
-0.238
-0.111
-0.094
0.090
-0.009
0.125
0.013
0.109
0.046
-0.048
-0.036
0.008
0.023
0.044
0.111
-0.037
-0.092
0.010
0.018
0.106
0.051
0.033
0.055
-0.032
0.109
0.083
-0.125
-0.076
0.013
-0.003
-0.066
0.051
-0.061
0.021
-0.020
-0.092
-0.082
0.034
-0.149
-0.006
0.043
-0.015
0.034
-0.146
-0.110
0.054
0.040
0.001
-0.040
-0.078
-0.089
-0.037
-0.001
0.049
-0.056
0.113
-0.112
0.054
0.023
0.112
0.030
0.097
-0.031
-0.025
0.102
0.034
0.107
0.135
0.048
0.085
0.146
0.059
-0.065
0.140
0.162
0.019
0.110
0.044
0.137
0.150
0.030
0.043
0.090
-0.013
0.123
0.078
0.062
0.232
0.146
-0.042
-0.034
0.108
0.069
0.008
0.077
0.101
0.029
-0.044
-0.052
0.017
-0.005
-0.063
-0.037
0.120
0.117
0.020
-0.093
0.012
-0.084
0.010
-0.065
-0.088
0.019
0.088
-0.004
-0.031
-0.082
-0.235
0.016
-0.081
-0.081
-0.014
-0.046
-0.074
-0.069
0.008
0.000
-0.093
0.023
-0.038
-0.011
0.064
0.036
0.000
-0.036
0.037
-0.045
-0.008
-0.091
0.083
0.083
-0.011
-0.028
0.123
0.049
0.171
0.039
0.006
0.118
-0.010
0.058
0.075
0.155
-0.005
-0.028
0.018
0.282
0.035
-0.038
0.085
0.044
0.103
0.017
-0.111
0.143
0.053
0.138
0.118
-0.048
-0.065
0.070
0.180
0.113
0.015
0.083
-0.075
0.037
0.152
0.048
-0.154
0.044
0.037
0.054
0.030
-0.023
-0.038
-0.042
0.046
0.083
0.027
-0.054
-0.166
-0.033
-0.130
0.102
-0.052
-0.120
0.004
0.066
-0.080
0.062
0.005
-0.055
-0.031
-0.052
-0.069
0.075
0.060
0.073
0.005
-0.124
-0.126
0.017
-0.054
0.205
0.039
-0.021
0.093
-0.025
-0.006
-0.018
0.105
-0.005
0.020
-0.003
0.015
0.058
-0.049
0.065
-0.063
0.157
0.064
0.040
0.083
0.043
0.052
0.042
-0.086
0.115
-0.041
-0.064
0.129
0.131
0.115
-0.054
-0.002
0.101
-0.060
0.011
0.146
-0.075
-0.006
0.123
-0.001
0.056
0.026
-0.027
0.046
-0.119
0.072
0.032
0.012
0.021
0.047
-0.058
0.089
-0.084
0.047
0.177
-0.064
0.063
0.014
-0.037
-0.047
0.123
0.048
0.027
0.020
-0.047
-0.053
0.021
-0.059
0.069
0.128
0.050
-0.036
0.059
-0.002
-0.013
0.060
0.105
0.174
-0.034
0.085
-0.080
-0.126
0.063
0.126
0.056
-0.207
0.062
0.003
-0.101
0.083
-0.010
-0.180
-1.735
-3.649
2.092
3.918
4.370
-1.726
-3.802
-2.029
2.416
3.730
4.114
3.268
1.980
1.995
2.940
3.541
3.630
3.560
3.439
3.310
3.015
2.210
0.855
-0.339
-1.382
-1.890
-2.109
-2.295
-2.047
-1.869
-1.310
-0.886
-0.366
-0.181
0.617
1.648
1.836
1.277
1.073
0.777
1.010
1.160
1.227
1.415
1.445
1.535
1.424
1.368
1.168
1.102
1.001
1.130
1.081
1.107
1.018
1.069
1.035
1.121
1.188
0.614
-1.485
0.307
-0.802
0.380
3.290
3.169
1.720
0.503
-0.240
-0.177
0.081
0.521
1.010
1.135
1.237
1.223
0.883
0.556
0.305
-0.144
-0.483
-0.780
-0.714
-0.992
-0.908
-1.001
-0.930
-1.082
-0.686
-0.693
-0.864
-0.730
-0.689
-0.542
-0.514
-0.643
-0.676
-0.591
-0.589
-0.538
-0.595
-0.366
-0.450
-0.431
-0.390
-0.459
-0.280
-0.207
-0.094
-0.104
-0.396
-0.124
-0.127
-0.106
0.060
0.089
0.089
0.164
0.092
-0.018
0.100
0.102
0.133
0.181
0.175
0.216
0.202
0.248
0.240
0.038
0.162
0.254
0.168
0.150
0.165
0.193
0.216
0.205
0.238
0.127
0.169
0.119
0.089
0.145
0.137
0.096
-0.018
0.030
0.149
-0.063
0.003
0.083
0.075
0.036
0.073
-0.134
-0.052
0.090
0.111
0.147
0.038
-0.117
0.048
-0.042
0.073
0.032
0.112
0.098
-0.179
-0.168
-2.235
-3.730
-2.677
-1.028
0.119
0.280
0.041
-0.348
-0.550
-0.792
-0.611
0.034
-0.007
0.412
1.141
1.537
1.799
2.152
1.988
1.474
1.168
0.889
0.637
0.220
0.022
-0.052
-0.265
-0.307
-0.539
-0.527
-0.544
-0.587
-0.565
-0.646
-0.528
-0.651
-0.451
-0.412
-0.496
-0.360
-0.432
-0.446
-0.237
-0.454
-0.254
-0.475
-0.338
-0.175
-0.186
-0.134
-0.209
-0.070
-0.109
-0.053
0.056
0.097
0.073
0.057
0.222
0.282
0.229
0.318
0.332
0.379
0.382
0.347
0.401
0.536
0.379
0.416
0.512
0.450
0.486
0.526
0.448
0.361
0.380
0.479
0.337
0.336
0.294
0.356
0.548
0.328
0.338
0.270
0.149
0.259
0.370
0.219
0.115
0.167
0.199
0.183
0.092
0.082
-0.002
0.059
-0.001
-0.017
-0.060
-0.072
0.025
-0.107
-0.113
-0.050
0.103
-0.010
-0.032
-0.162
-0.117
-0.372
-0.281
-0.248
-0.081
-0.177
-0.030
-0.309
-0.194
0.004
-0.159
-0.144
-0.214
-0.248
-0.286
-0.134
-0.065
-0.019
0.025
-0.010
0.076
-0.197
-0.185
0.027
0.160
0.351
0.517
0.228
0.168
-0.136
-0.106
0.155
0.059
0.178
0.160
0.212
0.147
0.212
-0.071
-0.205
-0.045
-0.039
-0.114
-0.102
-0.166
-0.052
-0.053
0.034
0.096
0.132
0.033
0.117
0.121
0.021
0.205
0.244
0.265
0.149
-0.101
0.186
0.162
0.205
0.236
-0.008
0.176
0.173
0.205
0.133
0.134
0.106
0.063
0.188
0.143
0.176
0.171
0.068
0.042
0.109
0.045
0.213
0.148
0.116
0.074
0.084
0.081
0.001
0.040
0.037
-0.016
0.037
0.150
0.045
-0.123
0.043
-0.019
-0.092
0.006
0.094
-0.092
-0.014
-0.095
-0.055
-0.127
-0.051
0.046
-0.019
-0.120
-0.076
-0.047
-0.163
-0.140
-0.166
-0.054
-0.142
-0.128
-0.138
-0.111
-0.036
0.053
-0.030
-0.199
-0.038
-0.085
-0.017
0.097
-0.058
-0.009
-0.050
0.068
-0.023
-0.062
-0.120
-0.024
0.001
0.084
-0.002
-0.075
-0.181
0.014
0.083
0.003
0.005
0.125
-0.065
-0.021
-0.046
-0.004
0.133
0.111
0.066
-0.008
0.082
0.143
-0.034
0.036
0.183
0.068
0.043
0.016
-0.030
0.207
0.109
0.033
0.163
-0.021
0.098
0.167
-0.069
0.111
0.158
0.051
0.032
-0.041
0.053
0.099
0.041
0.097
-0.034
-0.076
0.097
0.036
0.088
-0.058
0.011
0.111
0.030
0.101
0.111
-0.139
0.026
0.151
-0.048
-0.067
-0.078
0.046
0.061
-0.080
-0.037
-0.080
0.093
-0.072
-0.071
0.020
-0.024
-0.026
-0.072
-0.101
-0.086
0.026
-0.062
0.100
-0.038
-0.069
-0.161
0.019
-0.077
0.056
-0.071
-0.041
-0.093
-0.033
0.030
-0.065
0.032
-0.015
-0.005
0.034
0.135
-0.066
-0.130
0.016
0.022
0.016
-0.022
0.050
0.066
-0.003
0.059
0.035
-0.103
0.037
0.066
-0.088
0.099
0.086
0.003
-0.078
-0.075
0.068
0.156
0.162
-0.015
0.029
-0.002
0.081
-0.061
0.018
-0.031
0.033
0.126
0.126
0.003
-0.035
-0.126
0.253
0.073
0.148
0.037
-0.033
-0.022
0.083
0.109
0.037
-0.080
0.034
0.058
-0.028
0.063
-0.068
0.107
0.075
-0.082
-0.009
-0.053
0.101
-0.051
-0.107
0.105
-0.048
0.114
0.082
-0.019
-0.011
0.078
-0.039
-0.095
-0.039
0.045
0.150
-0.134
-0.014
-0.023
-0.026
0.005
-0.007
0.051
-0.052
0.083
0.041
-0.061
0.051
-0.079
-0.109
-0.018
0.094
0.047
0.079
0.086
-0.062
-0.155
-0.067
-0.060
0.180
0.115
0.001
-0.032
0.004
-0.001
0.014
-0.043
0.096
0.062
0.081
0.025
0.041
0.023
-0.880
0.077
0.544
0.378
0.226
-0.112
-0.119
-0.046
0.078
0.135
0.063
0.034
0.031
0.180
0.196
0.130
0.022
0.119
-0.052
-0.058
0.072
-0.090
-0.021
-0.115
0.031
0.100
0.059
0.045
-0.011
-0.086
0.015
0.056
0.124
0.085
0.009
0.030
-0.044
-0.054
0.074
-0.061
0.102
0.008
0.029
-0.088
0.078
-0.055
0.058
0.052
-0.048
0.125
-0.094
0.007
-0.077
0.098
0.061
0.046
0.170
-0.004
0.063
-0.021
0.194
0.064
-0.091
0.095
-0.046
0.084
-0.065
-0.038
-0.114
-0.697
-0.218
0.283
0.436
0.206
-2.883
1.842
3.763
4.262
3.478
-1.461
-3.891
-4.528
-3.724
-1.582
1.125
3.435
3.980
4.313
4.289
3.693
2.473
0.818
-0.566
-1.397
-1.647
-1.997
-1.920
-1.569
-1.140
-0.572
-0.285
-0.013
-0.081
-0.442
0.357
0.523
-0.704
1.207
1.929
1.192
0.092
0.205
0.539
-0.687
0.081
1.259
1.403
1.185
0.947
0.866
0.748
0.623
0.614
0.480
0.477
0.316
0.276
0.376
-0.864
-0.110
0.653
0.667
0.430
0.344
0.098
-0.063
-0.006
-0.034
-0.068
-0.536
0.405
0.889
0.775
0.303
0.049
0.051
-0.002
0.019
-0.088
0.146
0.087
0.185
0.101
0.141
0.038
-0.149
-0.009
-0.098
-0.236
-0.078
-0.177
-0.261
-0.156
-0.260
-0.320
-0.166
-0.072
-0.080
-0.114
-0.040
-0.193
-0.194
-0.098
-0.119
-0.048
-0.094
-0.047
-0.077
-0.128
-0.243
-0.098
0.066
0.069
-0.029
-0.035
-0.041
-0.067
-0.132
-0.022
0.017
0.058
0.014
0.022
-0.000
0.198
0.068
-0.028
-0.056
-0.103
0.002
0.010
0.052
0.093
0.027
-0.043
-0.034
0.086
0.110
-0.040
0.064
0.010
0.025
0.047
0.024
-0.099
0.142
0.142
0.084
-0.053
-0.002
0.099
0.077
0.039
0.131
0.043
-0.031
0.120
0.015
-0.001
0.076
-0.084
-0.050
0.125
0.095
0.105
0.029
0.111
-0.065
0.026
-0.137
0.179
0.146
-0.041
0.041
0.135
0.099
-0.055
0.003
-0.078
0.066
0.005
0.117
0.238
-0.075
0.014
-0.028
0.009
0.081
0.145
0.067
-0.104
0.106
-0.068
-0.026
0.071
0.154
0.131
-0.079
-0.156
-0.037
-0.088
0.004
-0.079
0.049
0.073
0.026
-0.051
-0.086
-0.004
-0.071
-0.007
0.013
0.019
-0.075
-0.016
-0.096
-0.032
0.057
-0.020
-0.057
0.054
-0.125
-0.001
0.056
-0.041
-0.119
0.094
0.094
-0.003
-0.092
-0.037
-0.046
-0.118
-0.020
-0.004
-0.056
0.013
0.022
0.241
-0.054
-0.089
-0.019
0.061
0.154
-0.026
0.072
-0.040
0.071
0.091
-0.050
0.165
0.041
0.033
0.050
0.177
-0.032
-0.167
0.077
0.042
0.055
0.117
0.107
-0.037
-0.035
0.027
0.160
0.026
0.117
-0.003
0.007
0.039
0.040
0.127
0.148
-0.033
-0.068
0.033
0.230
0.108
0.093
-0.136
-0.022
-0.001
0.107
0.037
-0.001
-0.037
-0.049
-0.024
-0.000
0.104
-0.036
-0.043
-0.088
-0.063
0.059
0.008
0.034
0.010
-0.041
-0.119
0.003
0.020
0.011
0.024
-0.044
-0.065
0.090
-0.024
-0.131
0.052
-0.146
-0.031
0.004
-0.072
0.119
-0.039
0.115
0.076
-0.025
0.144
-0.021
0.005
-0.060
0.081
0.016
0.068
-0.002
0.055
0.015
-0.101
-0.055
-0.031
-0.343
-0.287
-0.180
-0.146
-0.054
-0.052
-0.169
-0.073
-0.056
-0.139
-0.097
0.148
0.325
0.475
0.432
0.290
0.202
0.145
0.267
0.209
0.348
0.314
0.234
0.198
-0.009
-0.088
-0.036
-0.166
-0.431
-0.506
-0.317
-0.063
-0.183
-0.058
0.149
-0.063
-0.000
-0.068
-0.016
0.023
0.149
-0.002
0.196
0.137
0.116
0.126
0.140
0.056
0.072
0.041
0.026
-0.000
0.048
-0.042
-0.041
-0.157
0.132
0.039
-0.006
-0.040
0.010
0.049
0.176
0.004
0.146
0.049
0.076
0.119
0.136
0.089
-0.028
0.047
0.050
0.035
0.049
0.137
0.094
0.009
0.023
-0.002
-0.082
0.095
0.131
0.101
-0.057
-0.115
0.056
0.081
0.137
0.128
0.008
-0.117
0.010
0.042
-0.095
0.024
0.112
0.042
0.012
-0.058
0.099
0.016
0.033
-0.046
-0.029
0.052
0.070
0.011
-0.086
-0.045
-0.139
-0.160
0.055
0.122
0.318
0.104
-0.104
-0.016
0.020
0.023
-0.093
0.066
0.132
0.068
0.090
-0.040
0.059
0.028
-0.025
-0.062
0.077
0.068
-0.020
-0.006
-0.038
0.025
-0.027
0.033
0.031
0.036
0.117
-0.062
-0.057
-0.040
-0.080
-0.341
0.264
0.340
0.292
-0.002
0.035
-0.028
-0.134
-0.065
0.066
0.048
0.046
0.118
0.162
0.108
0.120
0.069
0.021
-0.059
0.067
-0.081
-0.130
-0.086
-0.005
-0.198
0.005
0.019
0.092
0.021
-0.003
-0.044
0.068
0.016
0.112
0.112
-0.078
0.052
0.039
-0.003
0.077
0.023
-0.001
0.011
0.076
0.083
0.016
0.009
0.121
-0.097
-0.076
0.012
0.068
0.019
0.035
0.084
0.033
-0.136
0.026
0.180
-0.028
0.025
0.081
0.007
-0.113
-0.068
0.109
0.123
0.049
-0.027
0.011
-0.037
0.035
0.042
0.138
-0.042
0.031
-0.023
0.100
-0.047
-0.070
-0.028
0.011
0.190
0.026
-0.077
-0.058
-0.033
0.078
0.038
0.006
-0.074
0.071
0.059
-0.001
-0.015
0.058
-0.046
0.127
0.101
-0.097
-0.047
0.141
-0.083
0.004
-0.011
0.055
0.030
0.062
0.128
-0.037
0.131
-0.048
-0.088
-0.004
0.117
0.062
-0.060
0.012
-0.016
0.010
-0.021
0.171
0.018
0.086
0.003
0.030
0.121
0.007
0.085
-0.237
0.116
-0.006
0.058
0.061
-0.008
-0.084
0.065
0.141
0.042
-0.086
0.112
0.106
0.058
0.026
-0.065
0.012
0.041
-0.117
0.092
0.085
-0.063
-0.088
-0.019
0.137
0.118
0.006
-0.037
0.019
-0.061
0.019
0.054
0.116
0.003
-0.007
-0.007
-0.073
0.130
0.059
-0.031
-0.079
0.101
-0.052
0.028
0.001
-0.124
0.097
-0.009
-0.027
0.071
-0.012
0.023
0.024
0.032
-0.074
0.098
-0.086
0.115
0.023
-0.026
0.025
0.071
-0.071
0.004
0.104
0.004
0.038
-0.005
-0.046
0.053
-0.056
0.093
-1.951
-3.711
-0.546
3.187
4.242
4.447
0.010
-3.342
-4.282
-4.443
-2.142
2.313
4.057
4.482
4.481
4.334
4.176
3.967
3.345
1.240
-1.021
-2.464
-3.717
-3.914
-4.242
-4.709
0.477
3.292
4.082
3.464
-2.020
-3.949
-4.370
-1.641
-1.635
-3.072
2.590
4.408
4.865
4.919
3.491
1.404
0.400
0.614
1.421
2.410
3.026
3.139
2.956
2.341
1.677
0.936
-0.049
-0.697
-1.143
-2.115
-1.786
-0.802
-0.521
-1.541
-3.285
0.271
2.117
-0.017
0.740
1.878
1.547
0.889
0.457
0.481
0.695
0.945
1.268
1.390
1.112
1.496
1.417
0.932
0.813
0.411
0.279
0.013
0.017
-0.036
-0.415
-2.161
-0.743
1.055
1.193
0.492
0.195
-0.142
-0.029
-2.518
0.943
3.643
4.325
2.858
-0.692
-2.591
-3.039
-2.242
-0.574
0.818
2.019
2.596
2.639
2.276
1.586
1.101
0.357
-0.284
-1.029
-2.776
-3.625
-4.512
-4.726
0.554
3.349
4.105
1.935
-1.239
-3.197
-3.438
-2.392
-0.421
1.486
2.910
3.948
4.037
3.906
3.299
2.609
1.573
0.606
-0.120
-0.805
-1.185
-1.232
-1.337
-1.075
-0.847
-0.594
-0.365
-0.046
0.106
0.325
0.355
0.306
0.522
0.609
0.395
0.416
0.424
0.419
0.513
0.346
0.535
0.364
0.475
0.423
0.511
0.485
0.592
0.516
0.403
0.568
0.492
0.509
0.505
0.497
0.393
0.298
0.475
0.488
0.553
0.431
0.460
0.793
0.808
0.517
0.255
0.216
0.282
0.118
0.185
0.203
0.150
0.132
0.119
-0.125
-0.222
-0.227
-0.293
-0.345
-0.191
-0.343
-0.320
-0.251
-0.348
-0.202
-0.272
-0.219
-0.043
-0.083
-0.059
-0.098
-0.070
-0.140
-0.105
-0.314
-0.339
-0.581
-0.658
-1.209
-1.881
-1.122
-1.662
-2.963
-0.834
1.125
1.450
1.033
0.254
-0.299
-0.304
-0.163
0.185
0.933
1.331
1.439
1.709
1.557
1.292
0.816
0.573
0.183
-0.214
-0.390
-0.682
-0.678
-0.812
-0.727
-0.725
-0.652
-0.502
-0.394
-0.361
-0.271
-0.346
-0.184
-0.212
-0.170
-0.203
-0.175
-0.079
-0.169
0.064
-0.111
-0.156
-0.147
-0.002
0.137
0.128
0.123
0.092
0.115
0.091
0.243
0.155
0.322
0.334
0.343
0.387
0.375
0.235
0.361
0.289
0.310
0.269
0.288
0.334
0.343
0.276
0.314
0.403
0.256
0.213
0.255
0.231
0.260
0.151
0.078
0.235
0.254
0.111
0.163
0.128
0.017
-0.009
0.058
0.072
-0.008
0.057
-0.043
-0.077
-0.093
0.008
-0.127
-0.029
-0.105
-0.190
-0.063
-0.128
-0.104
-0.171
-0.136
-0.191
-0.049
-0.153
-0.159
-0.025
-0.072
-0.189
-0.151
-0.132
-0.060
-0.061
-0.084
-0.090
-0.128
-0.134
-0.087
-0.048
-0.032
0.035
-0.067
-0.115
0.001
0.106
0.001
-0.048
-0.097
0.108
0.041
0.056
-0.032
0.011
0.158
0.090
-0.020
0.158
0.083
0.078
-0.007
0.082
0.045
0.155
0.142
0.085
0.081
0.155
0.091
0.034
-0.031
0.194
0.031
0.084
0.168
-0.098
0.126
0.079
-0.018
0.085
-0.001
-0.064
0.124
-0.065
0.064
0.038
0.084
0.042
-0.007
0.051
0.014
0.104
0.006
-0.051
0.029
-0.018
0.072
-0.006
0.026
0.131
-0.082
0.021
-0.016
0.014
0.080
-0.000
-0.016
0.087
0.028
-0.033
-0.074
0.045
0.048
0.052
0.105
-0.074
-0.122
0.145
0.056
-0.066
0.054
0.071
-0.027
-0.058
-0.036
0.024
0.048
0.024
0.063
0.052
0.001
-0.075
0.035
0.043
-0.046
0.075
-0.028
-0.048
0.021
-0.054
0.092
0.025
-0.020
0.074
-0.020
-0.070
-0.020
-0.035
0.048
0.117
0.096
-0.070
-0.070
0.001
0.056
0.025
-0.025
-0.023
-0.054
-0.005
0.084
-0.010
-0.021
0.066
-0.067
-0.055
-0.074
0.036
0.028
-0.010
-0.068
0.064
0.073
-0.008
-0.065
0.055
0.083
-0.029
0.163
-0.002
-0.052
0.008
0.118
0.089
0.052
0.021
0.047
0.012
0.058
0.132
0.052
0.060
-0.015
0.102
0.050
-0.005
-0.014
0.018
0.167
-0.002
-0.107
0.021
0.200
0.016
-0.007
0.119
0.021
-0.051
0.080
0.034
-0.126
-0.075
-0.039
-0.001
0.109
-0.016
-0.093
0.005
0.153
0.107
-0.024
0.013
-0.021
-0.075
0.092
-0.019
0.092
-0.008
-0.041
-0.027
-0.127
-0.041
0.123
0.026
0.057
-0.102
0.077
0.055
-0.084
0.025
0.119
-0.057
0.128
-0.065
-0.038
0.069
-0.043
0.176
0.035
-0.037
-0.002
-0.013
-0.016
-0.102
-0.042
0.059
0.029
0.005
-0.043
0.080
0.000
0.068
0.036
-0.009
0.002
0.116
0.013
-0.015
0.000
-0.020
0.144
0.092
0.003
-0.013
0.015
0.056
-0.042
0.051
0.005
0.127
-0.054
0.011
0.147
-0.069
-0.017
0.045
0.066
0.042
-0.020
0.082
0.083
0.060
-0.014
-0.003
0.004
0.138
-0.023
-0.147
-0.055
0.133
0.122
-0.045
-0.081
0.113
0.013
0.017
-0.004
0.081
0.035
0.078
-0.161
0.056
0.008
-0.066
0.095
0.231
0.042
-0.070
0.071
0.004
0.003
-0.075
0.045
0.052
0.197
-0.057
-0.038
0.221
0.344
0.521
0.327
0.118
0.116
0.103
0.065
0.213
0.111
0.214
0.219
0.124
-0.012
0.108
-0.022
-0.033
-0.167
-0.148
-0.100
-0.082
-0.075
-0.090
-0.149
0.022
-0.042
0.063
0.095
0.070
0.137
0.047
0.051
0.156
0.096
0.086
0.158
0.001
0.075
0.159
0.041
0.089
-0.012
0.198
0.066
0.053
0.134
0.136
0.156
-0.014
0.082
-0.071
0.084
0.094
0.096
-0.036
0.090
0.018
-0.071
0.033
0.068
0.006
0.016
0.098
-0.029
0.080
0.088
-0.044
-0.053
-0.013
-0.119
0.001
0.019
-0.006
-0.129
-0.025
-0.043
0.008
-0.084
0.023
-0.108
-0.030
-0.152
-0.032
-0.015
-0.209
-0.096
-0.046
-0.053
-0.110
-0.083
0.036
0.028
-0.086
-0.184
0.060
-0.024
-0.098
0.012
0.048
-0.071
-0.063
0.100
-0.378
-2.216
-3.466
1.571
3.310
-1.369
1.022
3.470
-0.393
0.655
0.678
0.020
-0.333
-0.137
0.614
1.165
1.709
2.161
2.175
1.858
1.453
0.688
0.113
-0.508
-0.765
-0.965
-0.976
-1.214
-1.058
-1.126
-1.217
-1.910
-0.696
0.998
1.271
0.773
0.044
-0.561
-1.953
-3.515
-1.484
3.167
4.537
3.860
1.133
-0.875
-1.882
-1.482
-0.472
0.618
1.531
2.376
2.826
2.842
2.568
2.169
1.655
1.057
0.416
-0.162
-0.408
-0.628
-0.557
-0.684
-0.618
-0.381
-0.448
-0.279
0.074
0.160
0.178
0.144
-0.025
0.195
0.253
0.150
-0.001
0.087
0.145
0.039
0.118
0.059
0.135
0.226
0.100
0.068
0.113
0.207
0.179
0.157
0.176
0.123
0.137
0.270
0.103
0.079
0.064
0.106
0.174
0.122
0.114
-0.012
0.106
0.122
0.039
0.019
0.149
0.262
-0.047
0.006
0.060
-0.048
-0.084
0.052
0.007
-0.013
-0.015
-0.045
0.121
-0.038
-0.095
-0.071
-0.073
0.029
0.081
-0.029
-0.173
-0.078
-0.120
-0.015
-0.122
-0.033
-0.043
-0.098
-0.269
-0.093
0.016
-0.006
-0.058
-0.200
0.073
0.083
-0.031
-0.065
-0.057
-0.032
-0.080
0.068
0.049
0.096
-0.010
-0.126
-0.063
0.014
-0.090
-0.078
0.018
0.056
0.165
0.164
0.004
-0.033
0.123
0.130
0.013
0.004
0.060
0.161
0.079
-0.033
0.031
0.164
0.084
-0.033
0.048
0.118
0.049
-0.059
0.127
0.104
0.015
0.032
0.060
0.060
0.033
0.096
0.169
-0.015
-0.048
0.028
-0.071
-0.002
0.035
0.052
-0.109
-0.034
-0.034
0.012
0.070
0.084
0.003
-0.069
0.045
0.053
-0.086
0.046
-0.004
0.079
-0.068
-0.028
-0.082
-0.042
0.061
-0.089
-0.022
-0.032
0.086
0.048
0.005
-0.057
-0.003
0.055
0.088
0.073
-0.051
-0.083
0.060
-0.014
-0.031
-0.016
0.085
0.021
-0.101
0.026
-0.011
0.007
-0.003
-0.034
-0.005
0.030
0.022
0.153
0.068
-0.062
0.043
0.007
-0.000
0.106
-0.053
-0.031
0.038
0.031
0.062
-0.050
-0.003
0.034
0.133
-0.000
0.031
-0.058
0.018
0.037
0.102
0.026
0.030
0.079
0.078
0.051
0.022
0.016
0.058
0.111
-0.074
-0.113
0.135
0.045
0.036
0.158
-0.006
-0.054
0.038
0.062
0.114
-0.026
-0.186
0.123
-0.008
0.063
0.006
0.097
-0.045
0.168
-0.036
0.014
0.059
-0.015
-0.132
0.145
0.095
0.001
0.053
0.129
-0.026
-0.009
0.081
0.080
0.095
-0.050
0.026
0.049
0.038
-0.053
0.063
-0.003
0.118
0.080
0.052
-0.060
-0.053
0.113
0.055
-0.048
0.092
-0.015
-0.035
0.112
-0.008
0.100
-0.065
-0.038
0.089
0.005
-0.056
-0.012
0.091
0.043
0.031
-0.037
0.017
-0.041
-0.066
-0.022
-0.013
0.019
0.046
-0.044
0.012
-0.009
0.197
0.113
-0.053
-0.008
0.013
-0.048
0.021
0.064
0.085
0.006
0.065
0.061
0.010
0.048
-0.056
-0.024
-0.100
0.004
0.195
0.002
-0.096
-0.003
0.009
0.098
0.154
0.050
-0.032
0.046
-0.050
0.080
-0.065
0.056
0.055
0.011
0.058
0.061
-0.067
0.155
-0.070
0.066
0.071
-0.106
-0.023
0.031
0.048
0.080
-0.050
-0.062
0.035
0.063
0.058
0.101
0.037
-0.025
-0.005
-0.032
0.007
-0.023
0.055
0.062
-0.103
0.001
0.085
0.082
-0.041
-0.042
0.060
-0.030
0.038
0.083
-0.007
-0.038
-0.000
0.042
-0.001
0.107
0.022
-0.093
0.141
-0.018
0.027
0.053
-0.035
0.015
-0.084
-0.016
0.156
0.006
-0.072
0.154
-0.015
0.058
0.046
0.041
0.105
0.079
0.117
-0.052
-0.073
0.039
0.058
-0.003
-0.007
-0.029
0.081
-0.013
-0.033
0.069
0.073
0.003
0.055
-0.040
-0.023
0.142
-0.026
-0.034
0.122
-0.058
0.093
0.083
0.034
0.022
-0.029
-0.023
0.092
0.098
-0.002
-0.053
-0.027
0.060
0.066
0.096
-0.042
0.073
0.151
0.025
0.064
-0.007
-0.123
-0.003
0.089
-0.024
0.120
-0.033
0.125
0.017
-0.051
-0.114
0.177
0.081
-0.011
-0.082
-0.065
0.140
-0.052
0.118
0.063
0.043
0.043
0.065
-0.093
0.009
0.073
0.115
-0.033
0.098
0.100
0.087
0.033
0.006
0.083
-0.013
-0.123
-0.069
0.102
-0.038
0.061
0.049
0.088
0.114
0.009
-0.080
-0.029
0.096
-0.063
0.060
-0.101
0.067
0.010
-0.057
0.013
-0.104
-0.045
-0.002
0.116
-0.030
-0.027
0.056
0.038
0.104
-0.049
0.059
0.046
0.032
0.036
0.084
0.010
-0.016
0.055
-0.022
-0.014
0.015
0.054
0.076
0.040
-0.103
0.039
0.005
-0.041
0.085
-0.006
0.058
0.061
0.019
-0.039
0.018
0.022
-0.050
0.037
0.065
-0.062
0.044
0.105
-0.079
0.148
0.032
-0.017
-0.021
-0.011
-0.066
0.142
0.068
-0.016
0.049
0.055
-0.022
0.098
0.042
-0.120
-0.020
0.054
0.078
0.084
0.109
0.066
-0.019
-0.003
0.023
0.434
0.536
0.421
0.045
-0.165
-0.377
0.117
0.524
0.410
0.261
0.141
0.090
0.033
0.013
-0.213
-0.092
0.001
-0.065
0.057
0.045
0.109
-0.046
-0.111
0.100
0.022
-0.024
-0.079
0.043
0.025
-0.416
-2.650
-3.245
0.228
2.356
2.308
1.285
0.171
-0.580
-0.424
-0.261
0.035
0.458
0.798
1.108
1.095
1.258
-0.693
-1.682
0.963
2.491
2.424
0.996
-0.460
-1.172
-1.389
-1.226
-0.694
-0.156
0.340
0.681
0.787
0.961
0.666
0.364
0.315
-1.144
-3.285
-1.289
1.526
2.215
-0.658
-0.759
-0.126
0.014
-0.147
-0.173
0.064
0.394
0.630
0.873
1.167
0.984
0.787
0.549
0.107
-0.167
0.106
0.206
-0.205
-0.107
-0.304
-0.322
-0.146
-0.078
0.113
-0.016
0.071
0.592
0.589
0.298
0.382
0.196
0.121
0.095
0.122
0.253
0.093
0.247
0.224
0.043
-0.028
0.040
0.112
0.079
0.064
-0.040
-0.000
0.068
-0.009
-0.005
-0.026
0.026
-0.106
-0.142
0.140
-0.112
-0.235
-0.233
-0.171
-0.558
-0.803
-0.570
-0.343
-0.417
-1.156
-2.834
-3.758
-0.075
2.909
2.932
1.520
0.142
-0.735
-0.939
-0.452
0.207
0.909
1.285
1.642
1.687
1.337
1.137
0.685
0.244
-0.027
-0.393
-0.525
-0.715
-0.727
-0.722
-0.760
-0.713
-0.521
-0.374
-0.335
-0.338
-0.121
-0.080
-0.146
-0.088
-0.141
-0.055
-0.012
0.086
-0.002
-0.033
0.058
0.079
-0.025
0.115
0.186
0.235
0.122
0.124
0.192
0.150
0.268
0.243
0.076
0.289
0.337
0.240
0.225
0.293
0.384
0.220
0.209
0.340
0.266
0.113
0.161
0.229
0.327
0.127
0.187
0.064
0.184
0.165
0.191
0.042
0.092
0.187
0.061
0.057
0.075
0.048
0.020
0.063
-0.022
-0.032
0.018
0.038
-0.130
-0.112
0.058
-0.083
-0.079
-0.115
-0.015
-0.115
-0.202
0.033
-0.056
-0.114
-0.018
-0.123
-0.228
-0.109
0.045
-0.040
-0.102
0.017
0.064
0.011
-0.016
-0.026
-0.061
-0.068
-0.131
-0.096
-0.022
0.001
-0.070
0.094
-0.037
0.056
0.007
-0.045
0.044
-0.026
0.045
-0.054
0.000
0.066
0.064
0.116
0.105
-0.128
-0.021
-0.014
0.026
0.025
0.076
0.152
0.005
0.011
-0.061
-0.005
-0.025
0.083
0.134
-0.015
-0.028
0.047
0.112
-0.041
-0.060
0.026
0.073
0.011
0.039
0.107
-0.029
0.039
0.106
0.050
0.049
0.032
-0.008
0.063
-0.007
0.070
-0.038
0.013
0.066
0.200
-0.056
0.106
0.057
-0.082
0.035
0.157
0.003
0.073
0.049
0.127
0.091
0.058
0.027
0.054
-0.041
0.111
-0.003
0.142
0.032
0.068
0.022
-0.012
-0.032
0.057
-0.069
0.184
0.023
0.017
0.021
-0.015
0.041
0.099
0.081
0.092
-0.080
-0.093
-0.009
0.078
0.048
-0.073
0.050
0.014
0.060
-0.126
-0.027
-0.011
0.015
-0.023
-0.151
-0.014
-0.064
0.100
0.072
-0.055
-0.036
0.008
-0.057
-0.035
-0.037
-0.012
-0.098
0.043
0.033
-0.075
-0.065
0.063
-0.038
-0.023
-0.022
-0.052
0.063
0.051
0.079
-0.095
0.050
0.164
-0.033
0.047
0.070
-0.012
-0.015
0.135
0.141
-0.010
0.002
0.180
0.050
-0.013
0.125
0.015
0.081
0.182
-0.030
0.073
0.007
0.017
0.120
-0.049
0.081
0.043
0.031
0.116
-0.061
0.087
-0.068
0.125
0.101
0.045
-0.016
-0.050
0.092
0.109
-0.070
0.048
-0.101
-0.007
0.043
0.095
0.029
0.090
0.044
0.066
0.063
-0.017
-0.062
-0.083
0.052
0.120
-0.029
-0.076
0.140
-0.042
-0.042
-0.046
-0.021
-0.118
0.011
0.110
-0.053
-0.062
0.002
0.047
0.020
0.041
-0.118
-0.082
0.041
0.100
0.026
-0.005
-0.009
-0.081
0.223
0.027
-0.086
-0.058
0.039
-0.058
0.056
0.094
-0.106
-0.083
0.144
-0.092
0.027
0.028
-0.039
0.072
0.034
0.126
0.199
-0.076
-0.163
-0.015
0.020
0.030
0.022
0.081
-0.072
0.121
0.082
0.073
0.027
0.098
0.039
0.029
-0.006
-0.071
0.104
0.025
0.061
0.014
-0.021
0.009
0.050
0.078
-0.059
-0.057
0.013
0.004
0.076
0.048
-0.026
-0.042
0.055
0.031
-0.005
0.005
0.017
0.108
0.036
-0.070
0.038
-0.067
0.094
-0.108
0.024
0.123
0.022
-0.002
0.061
-0.060
0.064
-0.012
0.065
0.014
-0.007
-0.002
0.049
-0.036
0.039
0.129
0.041
0.016
-0.063
0.116
0.019
0.044
-0.113
0.128
0.005
0.036
-0.049
0.018
0.072
0.072
-0.014
0.107
0.016
0.054
-0.130
-0.116
0.208
0.021
0.073
0.033
-0.027
-0.004
0.068
-0.003
-0.010
0.061
-0.026
0.051
-0.008
-0.020
0.030
0.047
-0.009
0.022
-0.045
0.024
-0.009
-0.018
-0.009
0.160
0.146
-0.016
-0.034
-0.011
-0.020
-0.011
-0.015
-0.017
0.020
-0.022
0.128
0.034
-0.090
-0.125
0.000
0.269
-0.019
0.116
0.027
-0.064
0.071
0.057
-0.104
-0.058
0.189
0.139
-0.128
0.010
0.061
0.015
-0.075
-0.010
0.078
0.112
-0.047
0.034
0.050
-0.079
-0.048
0.068
-0.019
-0.010
0.033
0.121
0.006
-0.044
-0.069
0.001
0.020
-0.107
0.049
0.008
-0.032
0.050
0.066
-0.081
0.040
0.065
0.075
-0.042
0.102
-0.052
0.037
-0.046
0.142
0.078
-0.062
0.060
0.008
0.111
0.020
0.050
-0.054
0.128
-0.005
0.054
-0.147
0.081
-0.160
0.047
0.092
0.036
0.114
0.022
0.056
-0.061
0.034
0.051
-0.004
0.022
-0.024
0.017
0.113
0.134
0.355
0.496
0.434
0.148
0.125
0.075
0.033
0.096
0.220
0.191
0.202
0.143
0.084
-0.068
0.038
-0.071
-0.161
-0.116
-0.109
-0.147
-0.134
-0.083
0.080
-0.036
0.118
0.138
0.095
0.085
0.028
-0.016
-0.095
0.113
0.184
0.013
0.105
0.138
0.098
0.101
0.114
0.071
-0.007
0.111
0.133
0.195
0.126
-0.126
0.121
0.026
0.121
0.051
0.031
-0.023
0.007
0.078
0.142
0.075
0.018
-0.010
-0.076
-0.002
0.028
-0.017
-0.001
0.055
-0.035
0.087
-0.079
-0.105
-0.125
-0.122
0.079
-0.032
-0.005
0.011
-0.050
-0.170
0.004
0.067
0.015
0.042
-0.037
0.003
-0.317
-0.048
0.121
0.172
0.029
-0.038
-0.076
-0.096
-0.051
-0.131
-0.321
-0.240
-0.218
0.000
-0.041
-0.031
0.179
0.110
-0.055
-0.089
-0.208
-0.171
-0.128
-0.320
-0.419
-0.380
0.023
-1.093
0.235
-2.112
0.768
3.539
4.293
2.515
-0.439
-2.089
-2.352
-1.530
-0.210
0.978
1.699
2.151
2.209
2.220
1.695
1.044
0.437
-0.224
-0.591
-0.906
-0.979
-1.009
-1.115
-0.499
-0.531
-0.323
-0.174
-0.023
-0.055
0.138
-2.207
-0.290
3.257
4.293
2.996
0.064
-1.726
-2.161
-1.665
-0.991
0.410
1.696
2.485
2.260
1.565
1.036
1.972
1.669
0.926
0.135
-0.435
-0.528
-0.549
-0.488
-0.113
-0.026
0.093
0.233
0.290
0.610
0.557
0.351
0.416
0.225
0.282
0.316
0.242
0.231
0.084
0.161
0.179
0.075
0.286
0.233
0.251
0.311
0.181
0.165
0.093
0.058
0.183
0.152
0.072
0.021
0.067
0.093
0.000
0.114
0.047
0.038
-0.025
-0.072
0.113
-0.090
-0.009
-0.222
-0.054
0.013
-0.087
-0.176
-0.112
-0.111
-0.042
-0.009
-0.098
-0.093
0.019
-0.090
-0.119
-0.170
-0.144
-0.141
-0.059
-0.120
-0.057
0.000
-0.020
-0.142
-0.029
-0.083
0.044
-0.120
-0.174
0.064
-0.084
-0.084
-0.089
0.110
-0.236
-0.025
0.058
-0.092
0.042
0.031
0.038
-0.039
0.073
-0.010
0.036
0.208
-0.065
0.033
0.092
0.045
0.210
0.041
0.104
0.050
0.051
-0.011
-0.005
-0.010
0.033
0.035
0.025
0.037
0.060
-0.039
0.163
0.068
0.012
0.183
0.025
-0.008
-0.118
0.156
0.161
0.022
0.044
0.057
0.191
-0.021
-0.072
0.139
0.067
0.111
-0.030
0.053
0.093
0.034
0.064
0.073
0.053
0.121
-0.056
0.037
-0.080
0.019
0.096
0.024
-0.053
0.077
0.108
0.076
-0.031
0.006
-0.007
0.095
0.005
-0.044
-0.047
0.089
-0.043
0.002
-0.027
0.027
0.172
-0.068
-0.103
-0.103
-0.016
0.035
0.006
-0.017
0.007
0.055
-0.113
0.037
-0.051
0.019
-0.011
-0.052
-0.091
0.010
-0.021
-0.149
-0.049
0.022
0.101
0.008
-0.043
0.028
0.100
-0.140
0.019
-0.016
0.079
-0.006
0.032
0.064
0.021
0.006
-0.047
-0.085
0.026
-0.018
0.029
-0.042
0.009
0.172
0.009
0.025
0.090
-0.006
-0.007
0.012
0.062
-0.016
0.021
0.160
0.018
-0.000
-0.029
0.041
0.042
0.096
0.185
-0.050
0.088
-0.096
0.062
0.155
0.093
-0.112
0.016
0.103
0.047
-0.000
0.119
0.103
-0.028
0.008
0.088
0.075
0.089
0.088
-0.029
0.049
0.017
0.034
-0.032
-0.047
-0.002
0.058
-0.017
0.069
-0.035
-0.052
-0.017
-0.190
0.050
-1.774
-3.678
1.538
3.757
4.333
3.323
-1.951
-3.941
-4.442
-3.324
-0.391
2.854
4.159
4.444
4.396
4.252
4.052
3.228
1.580
0.007
-1.194
-2.129
-2.573
-2.756
-2.420
-1.999
-1.619
-1.096
-0.478
-0.138
0.180
0.348
0.575
0.552
0.571
0.468
0.440
0.551
0.358
0.299
0.274
0.370
0.390
0.364
0.344
0.541
0.489
0.454
0.539
0.588
0.579
0.457
0.412
0.557
0.589
0.426
0.449
0.384
0.324
0.383
0.332
0.333
0.262
0.168
0.212
0.164
0.071
0.109
0.024
-0.055
0.010
0.067
-0.154
-0.125
0.026
-0.053
-0.191
-0.154
-0.205
-0.195
-0.215
-0.225
-0.287
-0.105
-0.293
-0.308
-0.180
-0.213
-0.285
-0.220
-0.244
-0.318
-0.178
-0.141
-0.334
-0.078
-0.214
-0.227
-0.151
-0.106
-0.100
-0.028
-0.149
-0.066
-0.002
-0.194
0.014
0.074
-0.137
-0.189
-0.026
0.102
0.097
-0.091
0.118
0.065
-0.046
0.205
0.192
0.155
-0.004
0.101
0.087
0.067
0.139
0.093
0.110
0.075
0.086
0.204
0.104
0.081
0.060
0.046
0.031
0.077
0.088
0.023
-0.023
-0.004
0.100
0.081
0.182
0.044
0.034
0.039
0.023
-0.060
0.041
-0.016
0.086
0.092
-0.021
0.087
-0.009
-0.113
0.061
0.164
-0.010
0.024
0.070
-0.030
0.069
0.057
-0.027
0.074
0.101
-0.003
0.060
0.077
-0.119
-0.002
0.097
0.085
0.130
-0.065
0.039
-0.074
0.073
0.037
0.034
0.001
0.086
0.032
0.084
0.079
-0.043
-0.091
0.097
-0.072
0.101
0.078
-0.106
-0.006
-0.014
-0.080
0.071
-0.019
-0.027
-0.097
-0.116
0.078
-0.107
-0.017
-0.036
0.120
-0.110
-0.106
-0.139
-0.024
-0.061
0.099
0.028
-0.186
-0.073
0.114
-0.170
-0.080
0.030
-0.082
0.014
-0.072
0.025
-0.011
-0.007
-0.065
-0.149
-0.018
0.124
0.081
0.001
-0.153
-0.025
0.006
0.046
0.024
0.065
0.036
0.119
0.076
0.045
0.009
0.007
0.115
0.073
0.148
-0.006
0.034
0.063
0.188
0.014
0.189
0.047
0.024
0.058
-0.014
0.058
0.161
0.061
0.039
-0.029
0.043
0.017
0.153
0.144
0.124
-0.001
0.029
0.096
0.022
-0.003
-0.013
-0.021
0.001
0.039
0.008
-0.071
-0.027
-0.152
-0.100
-0.079
-0.015
0.113
0.084
0.040
-0.069
0.131
-0.045
-0.095
-0.018
0.036
-0.016
0.064
0.014
0.056
-0.042
0.052
-0.030
-0.051
0.005
-0.007
0.051
-0.153
-0.134
-0.137
-0.075
0.025
0.016
0.014
-0.069
-0.066
0.166
0.021
-0.089
-0.053
0.013
-0.006
0.267
-0.061
-0.003
-0.044
-0.307
-0.029
0.001
0.168
0.284
0.149
0.033
-0.141
-1.710
1.060
1.716
1.294
0.297
-0.150
-0.445
-0.337
-0.264
-0.024
0.205
0.271
0.440
0.171
-0.534
0.162
0.533
0.318
0.038
-0.079
-0.761
-3.393
1.809
3.788
4.293
4.236
-0.709
-3.669
-4.467
-4.093
-1.018
2.552
4.046
4.394
4.394
4.249
4.088
3.273
2.114
0.882
-0.800
-1.777
-2.440
-2.751
-2.532
-2.265
-1.725
-1.196
-0.550
-0.092
0.270
0.562
0.716
0.646
0.741
0.415
-0.247
-2.822
-3.535
-3.599
1.901
4.521
5.228
2.812
-1.636
-3.142
-3.497
-2.073
1.075
4.024
5.036
5.196
5.086
4.850
4.486
3.289
1.632
0.139
-1.157
-1.787
-2.259
-2.361
-2.331
-1.991
-1.444
-1.025
-0.736
-0.273
-0.054
0.075
-0.022
0.084
0.132
0.031
-0.015
-0.160
-1.209
-1.753
2.523
3.482
1.979
0.216
-0.806
-1.096
-1.100
-0.562
0.036
0.482
-1.816
-0.026
3.224
4.142
2.818
0.566
-0.913
-1.555
-1.394
-0.746
-0.152
0.448
0.754
0.919
1.075
0.943
0.866
0.796
0.302
-0.008
-0.319
-0.298
-0.481
-0.284
-0.120
-0.063
-0.016
-0.049
0.156
0.293
0.473
0.357
0.271
0.168
0.088
0.135
0.195
0.331
0.232
0.143
0.229
0.267
0.209
0.101
0.262
0.197
0.161
-0.042
0.025
0.133
0.157
0.288
-0.432
-0.616
-0.733
-0.358
0.204
0.428
0.226
-0.061
-0.953
-0.965
-0.573
-0.077
0.423
0.312
0.094
0.069
-0.078
-0.323
-0.461
0.089
0.786
0.582
0.280
-0.231
0.856
0.990
0.543
0.341
0.012
0.065
0.121
-0.036
0.195
0.109
0.144
0.088
-0.091
-0.339
-0.511
-0.527
-0.403
-0.528
-0.453
-0.533
-0.491
-0.236
-0.187
-0.474
-0.161
-0.029
-0.080
-0.148
-0.127
-0.349
-0.053
0.096
0.105
-0.534
-0.612
-0.186
0.740
0.901
0.582
0.210
-0.161
-0.684
-0.358
0.204
0.552
0.677
0.603
0.547
0.321
0.183
0.010
0.041
0.140
0.038
0.167
0.284
0.300
0.048
0.152
0.208
0.235
0.163
-0.063
0.075
-0.082
0.123
0.119
-0.149
0.056
-0.115
-0.236
-0.241
-0.084
-0.028
-0.201
-0.112
-0.123
-0.126
0.026
-0.116
-0.224
-0.141
-0.045
-0.044
0.057
0.109
0.129
-0.089
-0.049
0.040
-0.013
0.020
0.117
0.084
0.081
0.135
0.129
-0.006
0.061
0.022
-0.028
-0.083
-0.083
0.117
0.112
0.090
0.343
0.132
0.073
0.167
0.211
0.193
0.173
0.132
0.087
0.086
0.126
0.184
0.286
0.104
0.144
0.098
-0.003
-0.089
-0.118
0.050
0.003
-0.095
-0.042
0.021
0.033
0.045
0.014
-0.075
0.049
0.045
-0.027
-0.069
0.106
0.049
0.033
0.085
0.010
0.092
0.165
0.093
0.059
-0.054
0.007
0.076
0.144
0.064
0.007
-0.041
0.070
0.141
0.033
0.063
-0.044
-0.031
0.098
0.136
0.036
0.049
0.000
0.106
0.155
0.105
0.007
0.124
-0.010
0.037
0.078
-0.107
0.100
0.085
0.004
-0.042
0.112
0.076
0.038
-0.029
-0.133
-0.009
-0.002
0.094
-0.076
-0.059
-0.040
-0.063
0.030
-0.077
0.077
-0.065
-0.067
0.011
-0.055
-0.062
-0.065
-0.105
-0.115
-0.035
0.120
-0.084
-0.085
-0.021
-0.104
0.016
-0.044
-0.004
0.033
-0.212
-0.139
0.109
0.043
-0.050
-0.060
0.014
-0.021
-0.002
0.134
0.081
-0.004
0.052
-0.237
-0.063
0.111
0.050
0.118
0.055
-0.046
0.217
-0.041
0.004
0.049
0.122
0.027
0.043
0.006
-0.059
0.147
0.245
0.048
0.047
-0.024
0.025
0.025
0.029
0.028
0.052
0.119
-0.008
0.118
0.052
0.088
0.062
-0.005
0.065
0.214
-0.032
0.080
0.152
-0.025
-0.078
-0.029
-0.006
0.220
0.030
-0.037
-0.080
0.050
-0.013
0.064
0.021
-0.053
0.059
-0.021
0.073
-0.040
-0.087
-0.120
-0.065
0.074
0.012
0.119
0.072
-0.018
0.038
0.029
0.017
-0.013
0.011
-0.031
-0.009
0.250
-0.114
-0.010
0.028
0.002
0.006
0.025
-0.028
-0.134
-0.069
-0.061
-0.041
-0.039
-0.049
0.085
0.047
0.027
-0.106
-0.078
-0.003
0.127
0.023
-0.064
0.080
0.096
0.084
-0.081
0.031
0.108
0.031
-0.012
0.052
-0.011
0.048
0.142
0.090
-0.009
0.135
0.075
-0.018
0.004
-0.006
0.075
0.059
0.045
0.038
0.034
0.013
0.018
0.179
0.122
-0.034
0.012
-0.071
-0.048
0.068
0.079
0.075
0.130
0.049
-0.123
-0.059
0.062
0.018
0.117
-0.003
-0.040
0.044
0.041
0.038
-0.007
0.044
-0.092
-0.068
0.044
-0.020
0.147
-0.051
-0.104
0.083
0.011
0.094
-0.030
0.098
0.058
0.047
0.038
-0.062
0.057
0.047
-0.047
0.027
0.007
0.067
0.018
0.056
0.023
0.009
0.097
0.028
-0.005
0.049
-0.042
0.048
0.027
-0.058
-0.155
0.125
0.175
0.099
0.104
0.048
-0.011
-0.057
-0.068
-0.075
0.105
0.071
0.066
0.024
-0.025
-0.001
-0.011
-0.061
0.107
-0.066
0.042
-0.014
0.031
0.010
0.051
0.037
0.113
0.076
0.046
0.004
0.054
-0.054
0.039
0.023
0.032
-0.049
0.053
0.042
-0.002
0.083
0.036
-0.045
-0.348
-0.007
0.095
0.173
-0.004
0.110
-0.118
-0.006
0.144
-0.012
-0.010
-0.003
0.093
0.015
0.073
0.076
-0.038
0.032
0.018
0.077
-0.017
0.012
-0.060
-0.016
-0.009
-0.013
-0.034
0.137
-0.040
-0.032
0.040
-0.079
0.084
0.024
-0.106
0.079
0.084
-0.069
0.035
-0.061
0.104
0.069
0.054
0.137
-0.032
-0.042
-0.044
-0.088
0.012
0.024
-0.058
0.020
0.048
0.044
0.131
-0.017
0.068
0.001
-0.039
-0.423
-0.570
-0.657
-0.558
-0.056
0.173
-0.079
-0.021
-0.238
-0.202
-0.079
-0.082
-1.085
-3.398
1.538
3.808
4.394
3.357
-2.000
-3.921
-4.417
-3.512
-0.196
2.899
4.168
-1.086
-0.507
3.007
4.007
4.176
2.531
-2.250
-4.242
-4.746
-3.761
-1.106
1.382
3.077
3.766
4.090
3.873
3.285
2.230
1.401
0.231
-0.520
-1.209
-1.647
-2.048
-3.177
-4.382
-4.541
0.136
3.320
1.384
1.028
-2.026
-2.891
2.590
4.255
4.701
2.482
-1.389
-3.082
-2.503
-0.449
1.889
3.756
4.604
4.762
4.603
4.105
3.039
1.741
0.612
