0.014
-0.205
-0.094
0.045
0.232
0.171
-0.017
-0.084
-0.027
-0.093
-0.041
0.069
0.063
0.062
-0.056
-0.132
0.110
0.091
-0.229
-0.236
-0.102
-0.027
0.102
0.101
-0.060
-0.039
-0.052
-0.041
-0.013
-0.007
0.136
-0.058
-0.061
-0.093
-0.077
0.085
-0.076
-0.096
0.105
-0.063
-0.068
-0.100
-0.092
0.106
0.096
-0.080
-0.087
-0.056
-0.059
-0.069
0.159
-0.114
-0.042
-0.210
-0.169
0.183
0.018
-0.073
-0.005
-0.129
-0.304
-0.050
0.131
0.089
-0.048
-0.055
-0.048
0.026
0.079
0.028
0.070
-0.036
-0.110
-0.058
-0.024
-0.068
0.165
0.261
0.082
-0.158
-0.169
-0.197
-0.113
-0.118
0.056
0.224
-0.038
-0.127
-0.037
-0.105
-0.092
-0.161
-0.068
-0.096
-0.073
0.093
-0.055
0.096
0.057
-0.154
-0.162
-0.102
-0.053
0.112
0.125
0.081
0.027
-0.113
-0.084
0.210
-0.090
-0.137
-0.109
0.060
0.218
0.090
0.033
-0.124
-0.061
-0.046
-0.093
0.045
0.057
-0.041
-0.031
-0.419
-0.068
0.366
0.371
0.016
-0.204
-0.117
0.112
0.074
-0.002
0.080
0.006
-0.050
0.135
0.027
0.065
0.020
0.066
-0.005
-0.069
-0.143
-0.318
0.029
0.009
-0.094
-0.299
0.112
0.067
-0.117
-0.118
-0.081
0.054
0.119
0.075
-0.214
-0.195
-0.017
0.118
0.020
-0.110
-0.041
-0.058
-0.119
0.068
0.066
-0.006
-0.015
-0.022
0.134
0.177
-0.257
-0.101
0.117
0.057
-0.004
0.035
0.075
-0.156
-0.168
0.206
0.239
-0.150
-0.288
-0.106
-0.134
-0.038
-0.011
0.254
-0.001
-0.080
-0.084
0.008
-0.047
0.138
0.131
-0.059
-0.079
-0.291
0.067
-0.063
0.041
0.115
-0.030
-0.107
-0.116
-0.068
0.003
-0.064
-0.094
-0.056
-0.111
0.057
-0.052
0.130
0.168
-0.173
-0.122
-0.085
0.058
0.057
-0.135
-0.165
-0.021
-0.087
0.010
-0.012
0.188
0.049
-0.106
-0.040
-0.133
-0.161
-0.137
0.004
0.093
0.174
0.037
-0.054
-0.053
0.039
0.009
-0.076
-0.003
0.112
0.042
-0.125
-0.217
-0.048
0.166
0.026
-0.095
-0.053
0.084
-0.042
-0.008
0.059
-0.174
-0.068
0.010
-0.020
0.022
0.068
-0.012
-0.050
-0.088
-0.182
-0.155
0.055
-0.067
0.067
-0.008
0.191
0.146
-0.017
-0.124
-0.149
-0.186
0.047
-0.013
0.081
-0.101
-0.059
-0.055
-0.063
-0.127
-0.012
0.181
-0.045
-0.273
-0.225
0.013
-0.117
0.002
-0.047
-0.043
0.060
0.267
0.240
-0.089
-0.090
-0.083
-0.036
0.085
-0.090
0.001
0.008
-0.046
-0.097
0.110
0.298
0.226
-0.123
-0.290
-0.235
-0.192
0.012
0.050
-0.003
0.042
0.106
0.017
0.124
-0.124
-0.171
0.005
-0.286
-0.112
0.105
0.218
0.083
-0.199
-0.450
0.046
0.207
0.042
0.042
0.119
-0.025
0.012
-0.038
-0.026
-0.046
-0.061
0.012
0.056
0.064
0.020
0.040
0.182
-0.040
-0.070
-0.051
-0.101
-0.291
0.038
0.181
0.035
0.035
-0.016
0.190
-0.037
-0.121
-0.226
-0.088
-0.134
0.101
0.132
0.062
-0.186
0.024
0.120
-0.047
-0.141
-0.224
0.027
0.034
-0.012
-0.112
-0.120
-0.001
-0.073
-0.097
-0.134
0.136
0.189
0.060
-0.161
-0.160
0.018
-0.022
0.043
0.033
-0.153
0.107
0.234
0.198
-0.097
-0.256
-0.078
-0.016
0.040
-0.018
0.182
-0.016
-0.105
-0.246
-0.132
0.027
0.000
-0.002
0.001
-0.125
-0.181
-0.005
0.015
0.004
-0.087
0.096
0.246
-0.054
-0.276
-0.127
0.054
0.064
0.061
0.004
-0.181
-0.245
-0.082
-0.048
-0.065
0.004
0.107
-0.086
-0.059
-0.019
-0.196
-0.116
-0.030
-0.118
-0.013
0.130
0.224
0.051
0.017
0.069
-0.089
-0.154
0.096
-0.025
0.085
0.055
0.081
0.014
-0.012
-0.166
-0.105
0.034
0.192
-0.001
-0.050
-0.155
-0.171
-0.026
0.003
0.064
0.086
-0.114
-0.072
-0.149
0.065
0.017
0.054
-0.070
-0.097
-0.142
-0.029
-0.019
-0.042
-0.166
0.276
0.248
-0.013
-0.178
-0.109
-0.024
-0.089
-0.023
0.123
-0.016
-0.153
0.065
0.029
-0.081
-0.016
0.127
0.027
-0.062
-0.124
-0.082
-0.208
-0.084
0.142
0.021
0.011
-0.038
-0.049
-0.025
-0.063
-0.100
-0.134
-0.084
0.070
0.201
-0.133
0.314
-0.420
-0.489
-0.101
0.329
0.307
-0.067
-0.552
-0.297
0.152
0.304
0.096
-0.107
-0.082
0.222
-0.011
-0.092
-0.075
0.048
0.101
0.080
0.073
0.060
-0.074
0.076
0.124
-0.049
-0.066
-0.019
0.024
-0.099
-0.168
-0.049
-0.155
0.080
-0.016
-0.056
-0.052
-0.120
-0.049
-0.076
-0.035
-0.108
-0.065
-0.089
-0.159
0.087
-0.001
-0.099
-0.020
-0.010
0.070
-0.033
0.105
-0.089
-0.018
0.004
-0.064
0.144
0.168
-0.068
-0.162
-0.148
0.034
0.219
0.115
0.141
-0.039
-0.105
-0.136
-0.018
0.005
0.057
-0.306
-0.042
-0.026
0.203
0.178
-0.166
-0.205
0.173
0.005
0.053
0.100
0.045
-0.203
-0.136
-0.007
0.001
0.055
0.055
-0.245
-0.215
0.076
-0.094
-0.204
-0.133
-0.082
-0.187
-0.104
0.060
0.051
0.116
0.022
0.059
-0.094
-0.019
0.001
-0.005
-0.174
0.035
0.135
0.113
-0.049
0.146
-0.010
-0.274
-0.054
0.200
0.018
0.025
-0.060
-0.239
-0.185
-0.014
0.096
0.004
0.008
-0.069
-0.021
-0.069
0.032
-0.099
-0.052
0.023
-0.071
-0.055
-0.059
0.061
0.153
0.043
0.037
0.048
0.102
0.023
-0.161
0.090
0.018
0.062
-0.480
-0.068
0.310
0.199
0.043
0.050
-0.107
-0.185
-0.210
0.078
0.285
0.049
-0.070
-0.001
0.050
0.121
0.132
0.001
-0.278
-0.153
-0.100
-0.031
-0.016
-0.020
-0.006
-0.039
-0.068
0.128
-0.072
-0.189
0.010
0.015
0.028
-0.080
-0.127
0.221
0.140
-0.010
-0.146
-0.154
0.068
0.053
-0.022
0.093
-0.036
0.174
0.018
-0.320
0.003
0.209
-0.014
-0.072
0.114
-0.118
-0.064
-0.155
-0.098
-0.174
0.141
0.244
-0.060
-0.036
-0.094
-0.129
-0.027
0.085
0.007
-0.083
-0.102
-0.017
0.200
0.230
-0.009
-0.205
-0.093
-0.030
0.100
-0.044
-0.043
-0.022
0.020
-0.059
0.031
-0.115
-0.089
-0.116
-0.008
-0.047
0.014
-0.040
0.014
0.029
0.112
-0.193
-0.095
0.007
-0.069
0.021
0.067
-0.045
-0.107
0.007
-0.036
-0.048
-0.058
0.051
-0.070
0.022
0.004
0.116
-0.101
-0.132
0.066
0.308
0.119
0.087
-0.139
-0.073
0.067
-0.071
0.073
0.082
-0.042
0.117
0.003
-0.027
-0.113
-0.082
-0.149
0.034
-0.152
-0.007
-0.045
0.057
0.083
-0.134
-0.115
0.019
-0.006
0.017
-0.030
-0.038
-0.039
-0.097
-0.057
-0.227
0.073
0.256
-0.049
-0.075
-0.062
0.182
-0.089
-0.034
0.089
0.019
-0.165
-0.047
-0.079
0.023
-0.124
-0.111
-0.118
-0.103
-0.040
0.302
0.285
-0.222
-0.015
-0.011
-0.280
-0.004
0.072
0.340
-0.002
-0.033
-0.043
-0.235
-0.070
-0.163
0.228
0.299
-0.002
-0.212
-0.320
-0.242
-0.096
0.126
0.096
0.033
-0.075
-0.102
0.018
0.003
-0.022
0.011
-0.048
0.011
-0.050
0.039
-0.055
0.086
0.000
-0.118
0.023
0.088
-0.020
-0.045
-0.026
0.060
-0.120
-0.002
-0.001
-0.043
0.175
0.040
-0.045
-0.087
-0.082
0.062
-0.024
-0.126
0.028
0.005
-0.019
-0.061
0.100
0.125
-0.099
-0.353
-0.091
0.157
0.112
0.100
0.024
-0.128
-0.066
-0.109
-0.165
-0.016
0.013
0.042
0.089
-0.085
-0.073
-0.033
-0.082
0.038
0.199
-0.097
-0.300
-0.068
0.096
0.140
-0.045
-0.038
0.047
0.091
0.107
-0.032
-0.053
-0.131
-0.044
-0.108
-0.081
-0.000
-0.045
0.040
-0.087
-0.139
0.058
0.341
0.101
-0.107
-0.129
-0.165
-0.072
0.021
0.056
-0.023
0.028
0.173
0.102
-0.016
-0.052
-0.027
-0.255
-0.159
-0.074
0.174
0.294
0.048
-0.145
-0.079
-0.199
-0.011
-0.071
-0.045
0.023
0.057
0.092
0.014
0.069
-0.171
-0.055
-0.081
-0.112
-0.257
-0.116
0.223
0.291
0.122
-0.111
-0.184
-0.195
0.035
-0.011
0.013
-0.015
0.020
0.136
0.034
-0.028
-0.040
0.012
-0.013
-0.012
-0.020
0.036
-0.026
-0.096
-0.083
-0.180
0.050
0.091
0.044
0.038
-0.052
-0.100
-0.040
-0.154
0.056
-0.022
-0.114
-0.008
-0.111
0.062
0.116
-0.028
-0.432
-0.409
0.081
0.215
0.331
0.022
-0.140
0.096
-0.082
-0.065
-0.098
-0.120
-0.080
0.118
0.063
0.013
-0.058
0.002
-0.107
-0.002
-0.125
-0.059
0.191
-0.310
-0.324
-0.057
-0.001
0.077
0.090
0.163
0.153
-0.140
-0.165
-0.015
0.030
0.062
0.056
0.123
-0.027
-0.152
-0.091
-0.078
-0.293
-0.033
0.184
0.037
-0.073
-0.083
-0.048
-0.110
-0.302
-0.023
0.274
0.241
0.286
0.087
-0.019
-0.147
-0.266
-0.164
0.026
0.053
0.204
0.045
0.010
0.084
0.019
-0.167
-0.131
-0.142
-0.170
-0.031
0.030
-0.035
0.002
0.063
-0.025
-0.065
-0.006
-0.019
-0.192
0.029
0.117
0.047
-0.038
-0.122
-0.057
-0.074
0.047
-0.078
0.019
0.112
-0.094
0.047
-0.043
-0.028
-0.019
-0.032
-0.042
-0.415
-0.174
0.242
0.205
0.034
-0.065
-0.206
-0.210
-0.093
0.055
-0.082
0.149
0.124
-0.058
-0.033
0.018
-0.012
0.016
-0.027
-0.010
0.071
0.033
-0.057
0.008
0.043
0.060
0.041
-0.084
-0.091
0.112
0.085
-0.013
-0.151
-0.146
-0.017
0.014
-0.050
-0.093
0.078
-0.022
0.132
0.020
-0.016
-0.228
-0.103
-0.042
0.025
-0.020
-0.091
-0.080
-0.454
-0.234
0.408
0.521
0.210
-0.180
0.022
0.228
-0.138
-0.089
0.234
0.091
-0.120
-0.112
-0.053
0.100
0.070
-0.132
-0.220
0.181
0.271
-0.050
-0.352
-0.187
-0.225
-0.008
0.046
0.023
0.090
0.002
0.010
0.027
0.017
0.140
0.099
-0.008
0.013
0.025
-0.167
-0.006
-0.051
0.066
0.011
0.050
-0.069
-0.082
0.037
-0.044
-0.131
-0.069
-0.194
-0.062
0.077
0.079
0.007
-0.001
0.042
0.011
-0.223
-0.123
-0.086
0.036
-0.090
-0.045
-0.004
-0.061
0.031
0.033
-0.082
0.050
-0.180
-0.082
-0.280
-0.070
0.050
0.045
0.085
-0.148
0.160
0.205
0.034
-0.288
-0.001
-0.023
0.098
-0.155
0.034
0.073
0.004
-0.302
-0.022
0.025
0.076
0.112
-0.005
-0.047
-0.119
-0.147
-0.180
0.041
0.136
0.032
0.071
-0.101
-0.099
0.002
-0.013
0.096
-0.018
-0.162
-0.181
0.087
-0.037
0.100
-0.076
-0.018
-0.048
-0.224
-0.103
0.165
0.322
-0.105
-0.156
-0.157
-0.069
-0.088
-0.049
0.069
-0.420
-0.169
0.356
0.267
0.181
-0.033
-0.237
0.080
-0.002
-0.055
-0.069
-0.054
0.111
-0.025
0.139
0.101
-0.342
-0.177
0.182
0.052
-0.149
-0.178
-0.045
-0.133
-0.110
0.026
-0.111
0.075
0.083
0.049
-0.015
-0.099
0.004
-0.099
-0.129
0.024
-0.076
0.124
0.132
0.018
-0.236
-0.100
-0.086
-0.104
-0.078
0.142
0.318
0.329
-0.032
-0.295
-0.157
-0.023
0.194
0.086
0.076
-0.028
-0.042
-0.190
-0.060
0.136
0.010
-0.053
-0.166
-0.094
0.133
-0.069
-0.097
-0.176
-0.038
-0.051
0.026
0.179
0.044
-0.164
-0.121
-0.040
-0.200
-0.034
-0.001
0.120
0.014
0.117
0.114
0.018
-0.039
-0.023
-0.041
0.125
-0.104
-0.269
-0.169
0.263
0.295
0.022
-0.151
-0.060
-0.200
-0.198
-0.082
-0.153
-0.110
0.351
0.406
0.034
-0.199
-0.424
-0.387
0.123
0.443
0.384
0.069
0.077
-0.103
-0.140
-0.099
0.099
0.031
0.043
0.080
0.128
0.046
-0.186
-0.144
-0.049
-0.039
0.020
-0.127
-0.170
-0.133
-0.452
-0.079
-0.051
0.204
0.082
0.131
-0.015
-0.325
-0.307
-0.152
0.052
0.260
0.168
0.078
-0.050
-0.097
-0.258
-0.054
0.223
0.147
0.000
-0.232
-0.104
-0.057
0.024
-0.283
0.205
-0.042
-0.003
0.354
0.328
-0.061
-0.080
-0.140
-0.181
0.044
0.036
0.027
0.058
0.066
-0.051
-0.125
-0.312
-0.033
0.053
0.113
0.165
-0.021
-0.227
-0.181
-0.049
0.062
0.143
0.045
0.052
0.006
0.005
-0.097
-0.044
-0.053
-0.017
0.089
0.081
-0.018
-0.149
-0.162
-0.055
-0.059
0.228
-0.073
-0.192
-0.070
0.040
0.086
-0.086
-0.028
-0.153
-0.030
0.049
0.069
0.083
-0.023
-0.135
-0.114
-0.116
0.063
0.045
0.061
0.165
0.134
0.015
-0.064
-0.123
-0.121
-0.272
0.083
0.118
0.045
0.107
0.095
0.156
-0.067
-0.141
-0.085
-0.046
-0.052
0.020
-0.001
-0.056
0.137
0.075
-0.066
-0.195
-0.048
-0.168
-0.086
0.007
-0.045
-0.030
-0.046
0.037
0.041
-0.117
-0.024
-0.022
-0.176
-0.026
0.258
-0.046
-0.279
-0.203
-0.097
0.039
0.119
0.196
0.079
-0.183
-0.250
-0.082
0.094
-0.106
-0.036
0.133
0.202
0.147
-0.055
-0.119
0.033
-0.147
-0.166
-0.063
-0.022
0.080
-0.067
0.040
0.022
-0.071
-0.070
0.006
-0.035
0.063
0.004
0.155
-0.211
-0.061
0.017
0.089
-0.113
-0.155
-0.052
0.010
0.053
0.102
-0.086
0.018
-0.033
0.101
-0.057
-0.038
-0.047
0.008
0.005
-0.086
-0.064
0.033
0.090
-0.046
-0.066
-0.027
-0.049
-0.075
0.017
-0.136
-0.105
0.163
0.093
-0.037
-0.104
-0.166
-0.219
-0.005
0.161
0.157
0.195
0.040
0.028
-0.055
-0.181
-0.140
-0.144
-0.015
-0.072
-0.104
0.141
0.048
0.041
0.012
-0.145
-0.030
-0.003
-0.062
-0.018
-0.003
0.065
0.016
0.029
0.000
-0.369
0.154
-0.091
-0.119
0.110
0.127
0.108
0.033
-0.253
-0.236
-0.084
-0.096
0.233
0.119
0.088
-0.103
-0.015
0.092
-0.083
-0.080
0.019
-0.163
0.057
-0.096
-0.070
-0.048
0.072
0.229
0.062
-0.127
-0.299
-0.150
0.134
0.112
-0.004
-0.131
0.008
0.053
0.008
-0.125
-0.141
-0.055
0.098
0.130
0.126
-0.042
-0.135
-0.217
-0.329
-0.232
-0.024
0.157
0.195
0.147
0.249
0.071
-0.049
-0.163
-0.147
-0.135
-0.048
0.076
0.123
0.131
0.077
-0.142
-0.112
-0.063
-0.185
-0.087
0.041
0.059
-0.082
-0.095
-0.086
-0.025
0.099
0.094
-0.099
0.054
-0.045
0.032
-0.245
0.115
0.199
0.182
-0.443
-0.373
-0.040
0.172
0.016
0.091
0.226
-0.107
-0.075
-0.227
-0.030
-0.195
-0.264
0.018
0.285
0.321
-0.058
-0.081
-0.165
-0.223
-0.044
0.025
0.003
0.026
0.030
0.124
-0.082
-0.137
-0.079
-0.091
-0.043
0.112
0.108
-0.023
-0.115
-0.107
-0.085
-0.043
0.104
0.107
0.126
-0.068
-0.041
0.063
0.009
0.023
-0.209
-0.019
0.096
0.207
-0.028
-0.178
-0.025
-0.066
0.047
0.025
0.003
0.019
-0.103
0.270
-0.176
-0.091
0.026
0.002
-0.131
-0.015
-0.031
-0.017
-0.059
0.020
0.041
0.011
0.034
-0.022
-0.032
-0.056
-0.078
-0.113
0.000
-0.012
0.099
0.101
0.011
-0.028
-0.127
0.034
-0.003
0.110
-0.020
-0.037
-0.014
0.022
0.043
-0.022
-0.049
0.057
-0.074
-0.029
-0.049
-0.115
-0.011
-0.020
-0.002
-0.075
-0.088
-0.117
-0.058
0.176
0.055
0.011
-0.015
0.006
0.022
-0.004
-0.041
-0.195
-0.043
-0.056
-0.062
-0.076
0.248
0.001
-0.568
-0.415
-0.159
0.212
0.304
0.055
0.012
0.306
0.030
-0.120
-0.297
-0.139
0.360
0.137
-0.012
-0.077
0.037
0.051
-0.033
0.141
-0.208
-0.257
-0.223
-0.058
-0.067
-0.237
-0.158
-0.018
-0.003
0.048
0.039
-0.071
-0.050
0.110
-0.010
0.010
0.019
-0.020
0.010
0.182
-0.139
-0.006
-0.004
-0.101
0.060
-0.011
-0.026
0.010
-0.025
0.092
-0.100
-0.057
-0.105
0.034
0.021
-0.069
-0.150
-0.011
0.028
-0.137
-0.095
0.065
0.114
-0.159
-0.076
0.103
0.116
0.033
-0.089
-0.028
-0.120
-0.042
-0.096
0.086
0.050
-0.126
-0.066
-0.047
0.039
0.025
-0.046
-0.043
-0.111
-0.067
-0.714
-0.388
0.440
0.591
0.330
-0.099
-0.181
-0.202
-0.091
-0.076
-0.027
0.247
0.029
0.072
0.052
0.177
0.090
-0.163
-0.069
-0.141
-0.175
-0.136
-0.066
-0.030
0.056
-0.031
-0.167
-0.018
-0.040
-0.136
-0.207
0.089
0.409
0.151
-0.003
-0.075
-0.120
-0.058
0.014
-0.118
-0.048
-0.040
-0.015
0.062
0.134
0.000
0.066
-0.126
-0.256
0.014
-0.139
-0.019
0.115
-0.001
-0.027
-0.013
-0.024
-0.016
-0.000
0.012
0.072
-0.154
-0.004
0.068
-0.001
-0.012
0.122
-0.042
-0.132
-0.115
0.098
0.048
0.045
-0.048
-0.076
-0.125
-0.507
-0.077
0.367
0.177
-0.164
0.023
0.054
-0.124
-0.135
-0.046
0.076
0.178
0.137
0.116
-0.010
-0.142
-0.089
-0.203
-0.051
0.065
0.124
0.187
0.004
-0.064
-0.239
-0.209
-0.209
-0.197
0.023
-0.042
0.066
-0.002
0.002
0.153
-0.034
-0.016
-0.116
-0.259
-0.088
0.060
-0.278
0.223
0.436
0.173
-0.130
-0.287
-0.202
-0.068
0.151
0.066
-0.046
0.181
0.014
0.008
-0.109
-0.069
-0.138
0.001
0.066
-0.164
-0.171
-0.172
0.072
-0.003
-0.165
-0.127
-0.012
0.141
0.458
-0.020
-0.133
-0.094
-0.196
-0.151
-0.103
0.027
0.090
0.278
0.077
-0.176
-0.043
-0.187
0.018
-0.008
-0.075
-0.002
-0.005
0.018
-0.072
-0.024
0.024
-0.166
0.037
-0.031
-0.033
0.086
0.065
0.104
0.119
-0.183
-0.091
-0.009
-0.184
0.034
0.013
-0.011
-0.132
-0.217
0.103
-0.016
-0.054
-0.015
-0.077
0.024
-0.114
-0.155
-0.007
0.023
0.045
0.005
-0.007
0.064
-0.021
-0.135
0.026
0.013
0.164
-0.033
-0.187
-0.069
0.036
-0.022
-0.198
-0.020
0.087
0.261
0.072
0.051
-0.190
-0.047
-0.133
-0.035
-0.053
-0.221
0.016
-0.149
-0.014
0.105
0.128
0.083
0.016
0.032
-0.152
-0.104
-0.227
-0.135
-0.079
0.042
-0.039
0.082
0.080
0.175
-0.083
-0.107
-0.318
-0.282
0.237
0.201
-0.101
-0.157
0.058
0.032
0.126
-0.126
-0.132
0.025
-0.004
0.024
0.112
0.066
0.059
0.028
-0.267
-0.348
-0.127
0.172
0.169
0.184
-0.078
-0.369
-0.405
0.023
0.308
0.299
-0.043
-0.129
-0.039
-0.000
-0.054
-0.101
0.125
-0.035
0.081
0.020
0.041
-0.021
-0.101
-0.164
-0.154
-0.035
0.082
0.002
-0.108
-0.032
-0.046
-0.064
-0.067
-0.060
0.062
-0.033
-0.174
0.017
0.031
0.228
-0.013
0.048
-0.074
-0.025
-0.030
0.040
-0.026
-0.057
-0.043
-0.066
0.107
0.066
0.013
-0.048
-0.047
-0.037
-0.121
-0.089
-0.160
-0.123
-0.006
-0.110
-0.172
0.335
0.432
0.094
-0.174
-0.274
0.029
-0.006
-0.049
-0.126
0.072
0.093
0.066
-0.059
0.024
-0.087
-0.112
-0.016
-0.059
0.022
0.097
-0.042
-0.127
-0.062
-0.063
0.027
-0.157
-0.181
-0.102
0.336
0.453
0.109
-0.305
-0.219
-0.067
-0.043
0.098
0.075
0.025
-0.065
-0.063
0.138
-0.054
0.062
0.040
-0.060
-0.118
-0.134
-0.192
-0.195
-0.065
-0.052
0.032
0.136
0.093
0.151
-0.077
-0.007
-0.139
-0.112
0.005
-0.083
-0.041
0.084
0.035
0.114
0.038
-0.094
-0.099
-0.013
-0.031
-0.246
-0.114
0.071
0.308
0.132
-0.180
-0.235
-0.325
-0.183
0.156
0.395
0.286
0.096
-0.229
-0.242
-0.067
-0.043
0.088
0.233
0.225
0.005
-0.098
-0.160
0.000
-0.079
0.045
-0.065
-0.156
-0.171
-0.004
-0.089
-0.213
-0.041
0.093
-0.083
0.072
-0.046
-0.079
-0.291
0.005
0.181
0.099
0.207
0.258
0.014
-0.231
-0.276
-0.240
0.029
0.163
0.266
0.066
0.088
0.012
-0.113
-0.235
-0.039
0.058
0.048
-0.028
-0.128
-0.106
-0.044
0.000
0.149
0.127
-0.072
-0.139
-0.005
-0.052
0.106
-0.166
0.216
0.218
-0.020
-0.036
-0.222
-0.165
-0.219
0.080
0.129
-0.069
-0.188
-0.220
0.029
0.096
0.132
-0.043
-0.163
-0.202
0.016
-0.021
-0.066
-0.357
0.142
0.351
0.210
0.006
-0.130
-0.187
-0.158
-0.051
0.001
0.061
-0.060
0.041
0.044
0.035
-0.010
-0.051
-0.079
-0.180
-0.145
0.033
-0.186
-0.094
-0.005
-0.017
0.067
0.044
0.118
0.069
0.040
0.053
-0.085
-0.063
-0.011
0.088
-0.131
0.048
-0.001
-0.067
0.042
0.123
0.005
-0.089
-0.059
-0.194
0.104
0.209
0.008
-0.165
-0.026
-0.020
-0.137
-0.060
-0.126
-0.214
-0.169
-0.001
0.099
0.238
0.192
-0.033
-0.097
-0.007
-0.135
-0.089
-0.103
0.074
0.282
0.043
0.082
0.033
-0.024
-0.105
-0.176
-0.004
-0.118
-0.074
0.007
0.060
0.030
-0.003
-0.158
0.055
0.230
0.153
-0.044
-0.105
-0.117
-0.018
0.152
-0.011
-0.014
-0.008
-0.072
-0.116
-0.187
0.033
0.039
0.090
-0.093
-0.148
-0.090
-0.024
0.066
-0.205
-0.028
0.079
0.170
-0.001
-0.392
-0.095
0.122
0.008
0.067
-0.018
0.016
-0.072
-0.124
-0.050
-0.072
0.028
0.005
-0.159
0.005
0.035
0.082
0.111
-0.096
-0.207
-0.097
-0.133
-0.025
-0.011
-0.013
0.077
-0.164
-0.058
-0.179
0.006
0.045
0.044
0.156
-0.061
-0.089
0.012
-0.053
-0.108
0.028
0.157
0.116
0.011
-0.092
-0.125
-0.081
-0.057
-0.037
-0.061
-0.062
0.112
0.132
0.046
-0.091
-0.253
0.024
0.012
0.108
-0.124
0.136
0.080
-0.039
-0.241
0.067
0.143
-0.463
-0.483
0.148
0.279
-0.116
-0.061
0.073
0.219
0.221
-0.138
-0.127
-0.026
-0.055
-0.022
0.103
0.204
0.151
-0.078
-0.046
-0.017
-0.081
-0.048
-0.174
-0.301
-0.363
0.085
0.535
0.222
-0.185
-0.362
-0.390
-0.210
0.277
0.263
0.242
0.123
-0.042
0.027
-0.093
-0.229
-0.349
0.075
0.229
-0.114
-0.106
-0.080
-0.113
-0.283
-0.097
-0.034
-0.208
-0.015
0.110
0.093
-0.042
-0.099
-0.103
-0.105
0.064
0.126
0.122
-0.121
0.130
-0.036
0.099
-0.099
-0.059
0.097
-0.090
0.096
0.143
-0.126
-0.168
-0.216
-0.047
0.018
0.020
0.018
0.039
0.033
0.031
-0.086
-0.118
-0.153
-0.040
-0.006
0.026
0.027
-0.123
-0.024
-0.009
-0.033
-0.048
0.008
0.034
-0.043
-0.028
-0.030
-0.040
-0.198
0.130
0.064
-0.030
0.012
-0.176
-0.053
0.040
-0.044
0.128
0.426
-0.030
-0.205
-0.151
-0.022
0.000
-0.049
-0.117
0.210
0.085
-0.257
0.135
0.070
0.035
-0.120
-0.046
0.066
-0.011
-0.098
-0.089
0.000
0.167
0.056
0.002
-0.136
-0.142
-0.129
-0.035
-0.128
-0.077
0.221
0.070
-0.024
-0.164
-0.131
-0.082
0.000
0.056
0.035
0.030
-0.030
0.050
-0.022
-0.041
-0.042
0.078
-0.164
-0.023
-0.135
-0.217
-0.101
0.193
0.214
0.048
0.046
-0.030
-0.127
-0.252
0.102
0.144
-0.026
-0.030
-0.014
-0.052
-0.010
-0.044
-0.063
-0.017
0.000
-0.052
0.016
-0.109
-0.008
-0.091
0.030
-0.055
-0.081
-0.087
0.046
0.125
-0.011
-0.101
-0.090
-0.012
0.024
-0.047
0.044
0.048
0.136
0.007
-0.117
-0.034
0.048
-0.000
-0.089
0.087
-0.008
0.048
0.012
0.037
0.007
0.073
-0.094
-0.184
-0.097
0.066
-0.040
-0.101
0.005
0.043
0.087
0.195
-0.002
-0.082
-0.223
-0.241
0.032
-0.058
-0.078
0.029
-0.091
0.197
0.002
-0.145
-0.114
-0.005
0.009
-0.077
-0.115
-0.070
0.070
-0.048
-0.047
0.061
0.033
0.045
0.000
-0.056
-0.174
-0.187
0.124
0.455
0.007
-0.025
-0.230
-0.330
-0.198
0.106
0.178
0.143
-0.075
0.036
-0.283
-0.602
-0.333
0.337
0.368
0.195
-0.125
-0.030
-0.141
0.064
-0.137
-0.136
0.068
0.197
0.063
0.075
-0.092
-0.055
0.028
-0.028
0.015
-0.110
-0.061
-0.152
-0.051
-0.009
-0.147
-0.126
-0.003
0.173
-0.070
-0.174
-0.027
0.038
0.102
0.127
0.165
0.030
0.109
-0.105
-0.103
-0.120
-0.233
0.028
-0.024
0.090
0.282
0.201
-0.111
-0.134
-0.236
-0.222
-0.222
0.012
0.066
0.116
0.264
0.130
-0.092
-0.091
0.214
0.120
-0.084
-0.223
0.114
-0.022
0.099
-0.034
0.064
-0.048
-0.046
-0.166
0.018
-0.145
-0.124
-0.013
-0.022
-0.079
-0.029
-0.059
0.006
0.165
0.096
-0.064
-0.050
-0.115
-0.001
-0.146
-0.009
0.293
0.161
-0.086
-0.231
-0.137
-0.169
0.040
0.035
0.056
0.147
0.118
-0.080
-0.089
-0.157
-0.052
0.015
0.008
-0.101
-0.054
0.053
0.100
0.145
-0.035
-0.060
-0.171
-0.259
-0.541
-0.069
0.299
0.435
0.217
-0.128
-0.335
-0.014
0.050
-0.078
-0.176
0.293
0.143
0.079
0.003
-0.048
-0.046
-0.119
-0.074
-0.091
0.209
-0.073
-0.165
-0.252
-0.126
-0.129
0.150
0.264
0.128
-0.133
-0.142
-0.072
-0.103
-0.043
0.026
0.101
-0.070
-0.033
-0.021
-0.076
0.004
-0.006
-0.063
-0.131
0.085
0.235
0.059
-0.108
-0.149
-0.047
-0.007
-0.053
0.006
0.201
-0.019
-0.011
0.089
-0.071
-0.156
-0.078
-0.018
-0.038
0.040
-0.003
-0.035
0.037
-0.115
-0.123
-0.022
-0.004
0.006
-0.030
-0.135
-0.080
-0.029
0.045
-0.002
-0.010
-0.107
0.056
0.003
-0.018
0.054
-0.029
-0.152
-0.214
-0.237
0.050
0.378
0.422
0.132
-0.302
-0.131
-0.229
0.045
-0.033
-0.062
0.101
0.033
0.097
-0.096
0.022
-0.001
-0.248
-0.152
0.024
-0.046
0.049
0.010
-0.027
-0.191
-0.119
-0.020
0.151
0.027
0.202
0.180
0.083
-0.006
-0.202
-0.160
-0.040
-0.049
0.042
0.066
-0.109
0.077
0.124
-0.014
0.023
-0.095
-0.258
-0.065
0.081
0.091
-0.010
-0.022
-0.049
-0.066
-0.321
0.093
0.340
0.228
0.038
-0.020
-0.050
-0.038
-0.196
-0.190
-0.076
-0.037
0.006
0.010
0.081
0.067
-0.036
-0.088
-0.025
0.198
0.112
-0.046
-0.152
-0.201
-0.027
-0.087
0.071
0.089
-0.006
0.097
-0.101
-0.087
-0.099
-0.165
-0.125
-0.105
0.015
0.128
-0.129
0.023
-0.154
-0.135
-0.127
-0.062
0.044
-0.004
-0.036
0.045
0.207
-0.017
-0.309
-0.249
-0.009
0.228
0.026
0.171
0.131
0.196
-0.112
-0.229
-0.124
-0.027
-0.031
-0.007
0.121
0.081
0.090
-0.129
-0.120
-0.093
-0.041
-0.042
-0.056
0.033
-0.068
0.089
0.001
-0.064
0.003
0.032
-0.267
-0.157
0.105
0.218
0.021
-0.144
-0.522
-0.236
0.203
0.244
0.054
0.098
-0.022
-0.044
-0.235
-0.081
0.008
0.078
0.059
0.045
0.109
0.039
0.013
-0.040
-0.004
-0.146
0.029
-0.067
-0.088
0.145
0.092
0.148
-0.140
-0.158
-0.281
0.071
-0.040
0.228
0.177
0.032
0.176
-0.144
-0.186
-0.307
0.135
0.248
0.111
0.013
-0.203
-0.049
-0.067
-0.113
-0.202
0.149
0.146
0.000
-0.154
-0.155
-0.045
-0.108
-0.055
-0.187
-0.018
0.116
0.139
0.091
-0.028
-0.130
0.015
-0.104
0.001
0.038
-0.161
0.088
-0.077
-0.073
-0.162
0.110
0.205
0.139
-0.198
-0.102
-0.122
-0.067
-0.053
-0.022
0.038
0.033
-0.064
-0.044
-0.016
-0.066
-0.039
-0.197
0.075
-0.002
-0.157
0.119
0.051
0.072
0.020
-0.146
-0.050
0.063
-0.028
-0.002
0.098
-0.013
-0.074
-0.105
-0.094
0.052
0.118
0.113
-0.133
-0.116
-0.067
-0.048
-0.061
-0.110
-0.025
0.026
0.111
-0.087
0.067
0.149
-0.049
-0.089
-0.253
0.011
0.055
-0.048
0.067
-0.054
-0.010
-0.149
-0.103
-0.009
0.001
-0.005
-0.030
0.075
-0.011
-0.010
-0.041
-0.191
-0.046
0.070
0.092
0.141
0.034
0.071
-0.088
-0.188
-0.082
-0.162
-0.045
0.155
0.022
-0.010
-0.080
0.050
-0.307
-0.529
0.063
0.371
0.162
-0.204
-0.050
0.010
-0.067
-0.055
0.003
0.108
0.005
0.220
0.044
0.008
0.055
-0.042
-0.077
-0.141
0.053
-0.084
-0.044
-0.078
-0.097
0.010
-0.078
-0.076
-0.112
0.010
0.042
-0.068
-0.003
-0.208
-0.227
0.327
0.296
0.123
-0.160
-0.166
-0.195
-0.011
-0.017
0.079
-0.025
0.015
-0.007
0.102
0.010
0.148
-0.150
-0.081
-0.083
-0.104
-0.023
0.038
-0.090
-0.067
0.103
0.077
0.033
0.019
-0.029
0.052
-0.077
-0.080
-0.089
0.099
0.104
-0.024
-0.145
-0.134
0.002
-0.042
-0.004
0.059
0.015
0.039
-0.004
-0.040
0.005
0.005
-0.056
-0.058
-0.021
-0.014
-0.074
0.114
-0.014
0.014
0.010
-0.100
-0.268
-0.177
0.178
-0.064
-0.099
-0.036
-0.097
-0.180
-0.207
-0.315
-0.309
0.464
0.404
0.141
-0.039
-0.043
-0.023
-0.154
-0.230
0.005
0.083
-0.028
0.125
0.210
0.083
-0.048
-0.159
-0.255
-0.225
-0.054
-0.071
-0.037
0.024
0.098
0.026
0.183
-0.032
-0.117
-0.234
0.021
0.148
-0.026
-0.069
0.028
0.054
0.060
-0.035
-0.081
-0.024
-0.180
-0.440
-2.724
1.343
1.477
0.953
0.362
-0.085
-0.537
-0.603
-0.603
-0.146
0.142
0.313
0.352
0.366
0.095
-0.065
0.038
-0.057
-0.044
-0.115
-0.231
-0.026
-0.062
-0.039
-0.095
0.045
0.172
0.213
0.222
0.035
0.072
0.067
-0.034
-0.161
0.071
0.090
-0.024
0.010
-0.082
-0.144
-0.072
0.039
-0.070
-0.153
0.134
-0.009
-0.034
-0.026
-0.036
-0.070
0.003
-0.141
-0.128
-0.022
-0.025
-0.080
0.071
0.171
0.142
-0.060
-0.198
0.034
0.095
0.010
0.020
0.034
-0.009
-0.040
-0.008
0.026
0.020
-0.087
-0.172
0.038
0.055
0.003
-0.017
-0.097
-0.026
-0.243
-0.123
0.225
0.170
0.074
-0.136
-0.099
-0.072
-0.133
-0.141
-0.055
0.409
0.048
-0.287
-0.086
-0.082
-0.124
-0.018
-0.081
0.017
-0.086
-0.045
0.034
-0.026
-0.087
-0.000
-0.075
-0.077
-0.006
-0.001
0.035
-0.069
0.036
0.152
-0.010
-0.116
-0.142
-0.053
-0.037
0.100
-0.052
-0.012
0.000
0.035
-0.029
-0.204
0.047
0.003
0.024
0.082
-0.017
-0.057
-0.007
-0.100
-0.122
0.090
0.100
0.006
-0.082
-0.044
0.081
0.056
0.073
0.152
-0.218
-0.297
-0.089
0.049
0.213
0.176
-0.076
-0.046
-0.049
-0.096
0.000
-0.100
0.095
0.020
-0.018
-0.121
-0.009
0.057
-0.081
0.035
-0.083
-0.009
-0.012
-0.092
-0.133
0.003
-0.032
-0.118
-0.069
-0.046
0.147
0.095
0.043
-0.091
0.007
-0.084
-0.020
-0.240
0.080
0.169
0.139
0.106
-0.191
-0.134
-0.120
-0.085
-0.115
0.049
0.225
0.060
-0.254
-0.227
-0.165
0.099
0.151
0.007
0.066
-0.019
-0.219
-0.235
0.080
0.033
-0.028
0.077
0.030
-0.066
0.048
-0.061
0.015
-0.152
-0.197
-0.081
-0.121
-0.217
0.010
0.123
-0.071
0.077
-0.028
-0.090
-0.181
-0.118
-0.033
-0.010
0.011
-0.117
0.029
0.170
0.120
0.017
-0.072
0.116
-0.082
-0.004
-0.066
0.010
0.035
0.005
0.087
0.089
-0.131
-0.066
-0.043
-0.166
-0.374
-0.179
0.190
0.274
0.059
-0.166
-0.029
0.074
-0.002
0.013
-0.073
-0.061
0.021
0.042
0.033
0.074
-0.243
-0.197
0.059
0.163
0.051
0.023
0.024
-0.112
-0.130
-0.255
-0.127
0.027
0.025
0.061
0.158
-0.017
-0.124
-0.071
-0.126
-0.077
0.168
0.330
-0.012
-0.268
-0.023
-0.053
-0.003
-0.147
0.047
0.135
-0.006
-0.036
-0.088
0.101
-0.023
-0.029
-0.063
0.075
-0.001
-0.227
-0.254
0.078
0.138
0.239
0.032
-0.157
-0.044
-0.146
-0.102
-0.099
-0.030
0.109
0.011
0.107
-0.120
-0.110
-0.090
-0.017
-0.246
-0.208
0.057
-0.036
-0.055
-0.073
0.143
0.031
-0.201
0.049
0.104
0.241
-0.140
-0.075
-0.155
0.021
-0.021
-0.064
0.005
0.017
-0.006
0.279
0.049
-0.257
-0.416
-0.252
-0.162
-0.105
0.081
0.171
0.154
0.138
0.031
-0.259
-0.146
-0.054
-0.025
-0.051
0.081
0.168
0.149
0.018
-0.223
-0.202
-0.060
0.137
0.191
0.081
-0.008
-0.130
-0.060
-0.055
0.012
-0.124
0.030
0.034
-0.137
-0.123
-0.064
-0.001
-0.013
-0.136
0.168
0.358
-0.034
-0.186
-0.036
0.114
0.084
-0.099
-0.096
-0.085
-0.119
0.146
0.077
0.037
-0.056
-0.079
-0.058
-0.045
-0.038
-0.035
0.021
-0.084
-0.155
-0.078
0.081
0.117
0.131
0.012
-0.095
-0.078
-0.053
-0.135
-0.091
0.102
0.141
-0.034
0.056
0.038
-0.028
-0.177
-0.267
-0.469
-0.160
0.316
0.373
0.174
-0.100
-0.067
0.164
0.021
0.018
-0.083
-0.144
-0.058
0.013
0.062
0.017
0.010
0.043
0.033
0.029
-0.091
-0.111
-0.217
-0.321
-0.061
-0.019
0.051
0.110
-0.229
-0.019
-0.054
-0.023
0.088
0.142
0.183
-0.006
-0.241
-0.228
-0.052
-0.006
0.130
0.004
0.041
-0.012
-0.015
-0.070
-0.084
0.053
-0.047
-0.026
-0.055
-0.017
-0.074
0.075
-0.148
0.058
-0.040
-0.163
-0.015
0.198
0.143
-0.001
-0.167
-0.372
-0.313
-0.010
0.279
0.138
0.138
0.202
-0.026
-0.162
-0.237
-0.309
0.015
0.231
0.263
0.018
-0.292
-0.089
0.122
0.198
0.009
-0.074
-0.172
-0.218
-0.217
0.059
0.137
-0.009
-0.003
0.001
0.181
-0.005
-0.127
-0.198
-0.076
-0.072
0.021
0.074
-0.035
-0.020
-0.098
0.046
0.172
0.078
-0.015
-0.127
-0.258
0.027
-0.021
-0.026
0.109
-0.052
-0.024
-0.313
-0.044
-0.035
0.214
-0.057
-0.065
-0.050
-0.077
-0.087
-0.065
-0.027
0.137
-0.096
0.111
0.006
-0.114
0.026
-0.157
0.127
0.019
-0.081
-0.026
-0.064
-0.069
0.028
0.174
-0.042
-0.019
-0.009
-0.295
0.088
0.149
-0.198
-0.105
0.198
0.283
0.171
-0.279
-0.169
-0.111
-0.059
0.096
0.116
-0.068
-0.097
-0.007
-0.104
0.072
-0.102
-0.305
-0.206
0.158
0.379
0.154
-0.139
-0.243
-0.302
0.061
0.324
0.127
0.013
0.001
-0.010
-0.023
0.041
0.081
0.047
-0.212
-0.082
-0.011
0.057
-0.026
-0.025
-0.427
-0.163
0.290
0.380
0.150
-0.061
-0.133
-0.179
-0.062
-0.050
-0.052
0.136
0.131
0.019
-0.014
0.028
-0.015
-0.115
-0.052
-0.060
-0.214
0.119
0.155
0.060
-0.096
-0.255
-0.261
-0.079
0.077
0.096
0.127
0.090
-0.235
0.043
0.153
0.159
-0.092
-0.118
0.175
-0.417
-0.368
0.166
0.376
0.199
0.063
-0.025
-0.123
-0.232
-0.161
0.017
-0.013
0.013
0.121
-0.016
-0.035
0.078
-0.082
-0.070
-0.260
0.006
0.239
-0.022
0.081
-0.107
-0.212
-0.019
-0.080
0.037
0.117
-0.122
-0.092
0.054
0.059
0.007
0.085
-0.084
-0.217
-0.145
0.021
0.010
0.055
0.072
-0.102
-0.101
0.127
-0.017
0.008
0.141
0.034
-0.036
-0.173
-0.141
-0.083
-0.104
0.062
0.047
0.013
-0.002
0.080
0.118
-0.008
-0.179
-0.053
0.047
0.106
0.028
-0.104
-0.176
0.195
0.143
0.023
-0.100
-0.061
-0.244
-0.154
0.046
0.004
-0.018
-0.075
0.126
0.118
0.057
-0.035
-0.343
-0.123
0.076
-0.024
-0.015
0.169
0.137
-0.030
-0.014
-0.051
-0.185
-0.291
-0.270
0.064
0.256
0.140
-0.044
-0.080
-0.095
-0.121
-0.152
-0.068
0.101
0.092
0.005
-0.011
-0.546
-0.336
0.374
0.425
0.015
-0.177
-0.202
-0.040
0.157
0.004
-0.136
0.039
-0.125
-0.047
0.116
0.171
0.005
-0.104
-0.017
0.227
0.036
-0.126
-0.187
-0.136
-0.209
-0.062
0.092
0.106
0.087
0.016
0.006
0.051
-0.138
-0.226
-0.170
-0.077
0.060
-0.052
-0.120
0.100
-0.049
-0.280
-0.067
0.252
0.020
-0.102
0.139
0.056
0.014
0.011
-0.211
0.148
-0.028
0.011
-0.154
0.002
0.178
0.201
-0.065
-0.153
-0.127
-0.052
-0.232
-0.063
0.044
0.161
-0.019
-0.170
-0.000
-0.014
0.031
0.044
-0.104
-0.063
-0.129
0.094
0.063
-0.118
-0.021
0.007
0.055
0.178
0.043
0.026
-0.034
-0.177
-0.193
-0.020
0.071
-0.001
0.176
0.024
-0.485
-0.190
0.362
0.376
0.090
0.152
-0.053
-0.241
-0.158
-0.101
-0.046
-0.068
0.065
0.324
0.182
-0.005
-0.153
-0.258
-0.300
-0.127
-0.165
0.011
0.096
0.047
-0.038
-0.080
-0.155
0.042
0.113
0.051
-0.169
0.087
-0.032
0.018
0.044
0.011
0.069
-0.050
-0.016
-0.043
0.020
-0.066
-0.381
-0.244
0.273
0.291
0.330
-0.070
0.015
-0.037
-0.129
-0.076
0.071
-0.048
0.037
0.127
0.056
-0.023
-0.127
0.100
-0.079
-0.148
-0.235
-0.081
0.161
0.037
-0.235
0.001
-0.122
-0.239
-0.081
0.172
0.284
-0.034
0.029
0.081
-0.035
-0.206
0.028
-0.048
0.127
-0.023
-0.323
-0.053
0.250
0.114
-0.006
-0.111
-0.092
0.033
-0.031
-0.048
-0.091
-0.064
0.134
-0.054
-0.061
-0.094
-0.081
-0.028
0.103
-0.027
-0.097
-0.073
-0.034
0.008
-0.036
0.022
0.025
0.008
0.057
-0.105
-0.228
-0.161
0.343
0.306
-0.015
-0.031
-0.166
-0.176
-0.024
0.113
-0.132
-0.156
-0.137
0.029
0.055
0.017
0.130
-0.098
-0.027
-0.044
-0.123
-0.113
0.122
0.130
0.008
-0.098
-0.005
0.062
-0.026
0.007
-0.039
-0.004
-0.059
-0.086
-0.055
-0.046
-0.070
0.006
-0.003
-0.376
0.143
0.122
-0.118
-0.057
-0.022
-0.025
0.041
0.034
-0.018
-0.126
-0.009
-0.029
-0.051
-0.167
0.245
0.178
-0.128
-0.003
-0.032
-0.140
-0.251
-0.031
0.151
0.197
0.054
0.027
-0.022
-0.123
-0.125
-0.026
0.015
0.089
-0.012
-0.050
-0.029
-0.142
-0.044
-0.085
-0.060
-0.122
-0.028
0.188
-0.068
-0.177
-0.051
0.052
-0.087
-0.008
-0.178
-0.143
0.132
0.224
0.133
0.138
-0.026
-0.319
-0.359
0.145
0.240
0.076
-0.024
-0.027
0.056
-0.141
0.047
0.229
0.001
-0.590
-0.476
0.269
0.253
0.079
-0.083
-0.131
0.115
0.001
-0.058
0.099
0.081
0.121
0.029
-0.181
-0.127
-0.030
-0.017
0.130
0.033
-0.007
-0.085
-0.069
-0.002
-0.172
-0.092
-0.078
0.014
0.002
-0.063
-0.123
0.072
0.051
-0.045
0.143
0.117
-0.037
-0.019
0.049
-0.082
-0.140
0.049
0.021
-0.019
-0.014
0.017
0.130
0.031
-0.041
-0.154
-0.248
0.124
0.251
0.083
0.006
-0.245
-0.143
-0.057
0.014
0.126
-0.025
-0.081
0.018
-0.086
-0.152
-0.059
-0.139
0.142
0.311
0.254
-0.023
-0.144
-0.220
-0.241
0.067
0.146
0.000
-0.017
0.070
-0.117
0.060
0.071
-0.057
-0.114
-0.107
-0.073
0.055
0.042
-0.112
-0.174
0.004
0.068
0.225
-0.053
-0.183
-0.167
0.087
0.084
0.025
-0.130
0.255
0.163
-0.012
-0.265
-0.259
-0.055
-0.020
0.266
0.010
0.028
-0.021
-0.030
-0.094
-0.122
-0.047
-0.116
0.025
0.085
-0.061
-0.048
-0.077
0.029
0.085
-0.002
0.041
0.180
0.036
0.076
-0.163
-0.121
-0.124
-0.007
0.039
-0.117
-0.011
0.101
0.124
0.011
-0.071
-0.027
-0.183
-0.308
0.011
0.293
0.269
0.064
-0.055
-0.045
-0.133
-0.209
-0.279
0.023
0.124
0.143
-0.106
-0.042
0.005
-0.110
-0.134
-0.234
-0.077
0.130
-0.006
-0.022
0.067
0.024
-0.166
0.023
-0.106
0.098
0.046
-0.053
0.057
-0.036
-0.102
-0.078
-0.026
-0.038
-0.065
0.097
0.117
-0.268
-0.054
-0.064
0.006
0.044
-0.057
0.027
-0.119
-0.152
0.091
0.098
0.035
-0.179
-0.013
-0.282
-0.163
0.090
0.146
-0.005
-0.055
-0.050
0.193
0.023
-0.042
-0.078
-0.085
-0.002
0.091
-0.017
-0.097
0.079
0.050
-0.088
-0.224
-0.130
0.123
0.159
0.121
-0.154
0.060
-0.102
-0.084
-0.300
0.050
0.316
-0.078
-0.097
-0.181
0.050
0.210
0.011
-0.246
-0.100
-0.223
-0.092
-0.046
-0.074
0.077
-0.062
0.030
0.104
0.050
0.161
0.067
-0.110
-0.162
0.138
-0.022
-0.071
-0.060
0.075
0.228
0.177
0.100
-0.141
-0.151
-0.023
-0.068
-0.116
-0.038
0.087
-0.007
0.090
-0.004
-0.125
-0.107
0.001
-0.148
-0.089
0.183
0.094
0.008
-0.099
-0.034
-0.123
-0.013
-0.008
-0.035
-0.038
-0.059
0.127
-0.022
-0.106
-0.136
-0.175
-0.176
-0.185
-0.013
0.331
-0.009
0.018
-0.033
0.010
-0.125
-0.054
-0.030
-0.049
-0.036
-0.085
-0.080
-0.018
-0.128
0.125
0.255
0.134
0.015
-0.251
-0.156
-0.145
-0.166
-0.023
0.113
0.042
0.185
-0.032
0.127
-0.127
-0.163
0.019
-0.030
-0.193
-0.146
-0.162
0.013
0.133
0.300
0.184
-0.044
-0.345
-0.213
0.068
-0.018
0.029
-0.041
0.068
0.073
-0.210
-0.135
-0.084
-0.066
-0.054
0.046
-0.020
-0.104
-0.190
-0.032
0.137
0.036
0.159
-0.092
-0.242
-0.108
-0.094
0.130
0.082
0.058
0.013
-0.181
-0.160
-0.046
0.029
0.006
0.022
-0.068
-0.107
-0.024
-0.049
0.166
0.058
-0.054
-0.050
0.075
0.097
0.018
-0.104
-0.064
-0.041
0.144
0.012
0.063
0.089
-0.090
-0.266
-0.201
-0.064
0.229
0.165
-0.033
-0.142
-0.149
-0.121
0.053
0.074
-0.097
-0.401
-0.165
0.201
0.225
0.066
-0.142
0.038
-0.062
-0.213
0.037
0.145
-0.002
-0.160
0.029
0.246
0.225
0.090
-0.169
-0.065
-0.134
-0.015
-0.073
-0.029
-0.259
-0.097
0.135
0.086
0.051
-0.075
-0.070
-0.103
0.001
0.048
-0.003
0.055
0.052
0.059
-0.078
0.030
-0.038
-0.030
-0.184
0.027
-0.046
-0.084
-0.096
-0.095
-0.060
0.100
0.107
0.071
-0.054
-0.187
-0.039
0.154
0.152
0.034
-0.006
-0.203
-0.702
-0.125
0.307
0.429
0.187
-0.015
-0.075
-0.026
-0.080
-0.194
-0.016
0.042
-0.260
-0.175
-0.075
0.175
0.139
0.103
0.135
0.134
-0.129
-0.297
-0.263
-0.194
-0.137
0.039
-0.011
-0.170
-0.043
0.144
0.455
0.279
-0.240
-0.189
-0.258
-0.329
-0.116
0.115
0.158
0.048
-0.026
-0.001
-0.145
0.009
0.204
0.015
-0.150
-0.123
-0.076
-0.054
-0.074
-0.002
-0.070
0.224
0.136
0.202
-0.020
-0.063
-0.110
-0.199
-0.026
0.133
0.004
0.038
-0.037
-0.065
-0.001
-0.062
-0.030
0.013
-0.008
-0.008
0.047
-0.020
-0.224
-0.268
0.030
-0.061
-0.068
0.018
0.163
0.069
-0.023
-0.062
-0.043
-0.195
-0.042
0.054
-0.042
0.023
0.017
0.074
0.174
-0.010
-0.133
-0.180
-0.345
0.211
0.171
0.022
0.167
-0.115
-0.213
0.054
0.071
0.043
-0.112
-0.115
0.214
0.035
-0.102
-0.291
-0.068
0.137
-0.043
-0.050
-0.103
-0.095
0.025
-0.115
-0.022
0.245
0.275
-0.057
-0.226
-0.347
-0.076
0.063
0.147
-0.031
-0.016
0.030
0.072
-0.134
-0.061
-0.166
-0.059
0.014
0.071
0.024
-0.186
-0.147
-0.397
-0.014
0.555
0.182
-0.052
-0.340
-0.207
-0.154
0.012
0.164
0.090
0.031
0.197
0.088
-0.177
-0.170
-0.059
-0.007
-0.049
-0.025
0.032
-0.014
-0.041
-0.046
-0.001
-0.105
-0.127
-0.012
0.049
-0.068
0.015
0.077
-0.013
-0.053
-0.018
0.006
-0.176
-0.118
0.137
0.006
-0.030
0.037
0.009
-0.130
-0.015
-0.027
0.060
-0.017
-0.079
0.095
-0.040
0.011
0.033
-0.020
-0.133
-0.108
0.092
0.110
0.019
-0.057
-0.036
-0.053
-0.175
0.010
0.039
-0.049
-0.087
0.130
0.025
-0.126
0.122
0.012
-0.100
-0.023
-0.044
-0.005
-0.053
0.039
-0.034
-0.094
0.045
0.025
0.192
-0.127
-0.263
-0.135
0.025
0.033
0.024
0.065
-0.142
-0.138
-0.023
0.071
-0.037
0.015
-0.045
-0.212
-0.065
0.086
0.131
-0.060
-0.342
-0.236
0.262
0.327
0.167
-0.101
-0.178
-0.089
-0.046
-0.144
0.224
-0.085
-0.167
-0.182
-0.024
0.125
0.120
-0.085
-0.001
-0.112
-0.104
-0.115
0.026
-0.041
-0.056
0.029
0.076
-0.030
-0.003
-0.017
-0.029
-0.136
-0.048
0.020
-0.074
-0.029
-0.130
-0.181
-0.067
-0.059
0.068
0.179
-0.182
-0.184
-0.160
-0.058
0.098
0.084
0.024
-0.107
-0.194
-0.129
0.202
0.066
-0.002
0.100
0.386
-0.019
-0.163
-0.164
-0.109
-0.025
-0.012
0.127
0.124
0.001
-0.022
0.141
0.027
-0.207
-0.281
-0.187
-0.049
0.006
0.016
-0.020
0.009
-0.068
0.099
-0.139
-0.065
-0.105
0.011
0.066
0.218
0.134
-0.188
-0.206
0.029
0.015
-0.183
-0.078
0.126
0.166
0.003
0.110
0.113
-0.110
-0.244
0.092
-0.279
-0.060
0.090
0.086
-0.046
-0.045
-0.045
0.146
0.021
-0.165
-0.185
-0.130
0.194
0.253
0.031
-0.139
-0.345
-0.112
0.131
0.174
-0.299
-0.143
0.191
0.154
0.019
-0.139
-0.314
-0.100
-0.220
-0.021
0.080
0.069
-0.060
-0.170
-0.024
0.124
0.025
-0.061
-0.119
-0.003
0.060
-0.041
0.152
0.215
0.087
0.014
-0.012
-0.080
0.060
0.064
0.019
-0.007
-0.095
-0.060
-0.028
-0.206
0.118
-0.061
-0.108
-0.084
0.000
-0.019
-0.180
-0.190
-0.079
0.040
0.085
-0.029
-0.165
0.065
-0.020
0.031
0.045
-0.107
-0.104
-0.101
-0.031
0.158
-0.018
-0.003
0.032
0.086
-0.295
-0.140
0.330
0.270
0.202
-0.079
-0.129
-0.246
0.010
0.295
0.226
0.086
-0.443
-0.577
-0.100
0.429
0.329
-0.059
-0.039
0.188
0.099
-0.227
-0.123
0.123
-0.041
0.065
0.144
0.042
-0.097
-0.038
0.131
-0.292
-0.258
0.010
-0.045
-0.070
-0.032
-0.224
-0.181
0.065
0.130
0.149
-0.203
-0.212
-0.060
0.154
0.124
-0.018
0.085
-0.016
-0.158
-0.104
0.011
0.024
0.016
0.005
-0.029
-0.085
-0.099
-0.045
-0.010
-0.108
0.101
0.038
0.141
-0.067
-0.304
0.004
0.023
-0.116
-0.020
0.117
-0.068
0.100
0.016
-0.030
0.048
-0.304
-0.017
0.082
-0.018
0.005
0.037
0.072
-0.011
0.072
0.007
-0.109
-0.122
-0.216
-0.024
0.026
-0.031
-0.069
-0.092
0.142
-0.072
-0.225
0.041
0.215
0.153
0.004
-0.117
-0.193
-0.213
0.033
0.241
0.234
0.021
-0.077
-0.053
0.003
-0.067
0.161
-0.081
-0.303
-0.258
-0.057
-0.137
0.134
0.232
0.211
0.031
-0.109
-0.095
-0.198
-0.066
-0.039
0.083
0.050
0.140
0.066
-0.063
-0.138
-0.058
-0.064
0.122
-0.025
0.083
0.010
-0.056
-0.041
-0.098
-0.197
-0.228
0.152
0.277
0.113
0.070
0.046
-0.049
0.012
-0.154
-0.172
-0.154
-0.022
0.065
0.093
0.032
-0.001
0.096
0.001
-0.146
-0.254
-0.163
-0.139
0.050
0.067
-0.022
0.049
0.101
-0.129
-0.067
-0.101
0.013
-0.017
0.125
0.107
-0.027
-0.153
0.031
-0.161
-0.017
0.023
0.053
-0.041
-0.089
-0.113
0.096
0.342
-0.192
-0.249
-0.119
0.088
-0.034
0.006
-0.089
-0.011
-0.054
0.039
-0.013
-0.044
0.064
-0.325
-0.171
0.018
-0.081
0.136
0.330
0.008
-0.203
-0.197
-0.112
-0.076
0.135
0.156
0.066
0.226
-0.012
-0.020
-0.145
-0.068
0.008
-0.028
-0.068
-0.154
0.055
0.169
-0.008
-0.093
-0.031
0.081
-0.087
-0.125
-0.135
-0.010
0.220
0.066
-0.077
-0.013
-0.111
-0.046
-0.182
-0.041
-0.230
0.005
-0.055
0.019
0.362
0.209
-0.105
-0.244
-0.185
-0.093
0.143
0.111
0.106
0.134
-0.002
-0.003
-0.187
-0.006
0.002
0.037
0.007
-0.132
-0.040
0.019
-0.251
0.127
-0.123
0.094
0.167
0.087
0.091
-0.061
-0.124
-0.127
0.066
-0.030
-0.028
0.096
0.164
0.016
-0.112
-0.065
-0.084
-0.038
-0.118
0.053
0.007
0.019
-0.109
-0.200
0.019
0.005
0.030
0.123
0.098
-0.054
-0.205
-0.109
0.003
-0.020
0.013
-0.017
0.018
-0.022
-0.098
-0.077
-0.163
-0.213
0.118
0.092
0.000
-0.107
-0.266
-0.111
0.043
-0.010
0.099
0.060
-0.031
0.167
0.039
-0.251
-0.007
0.012
-0.073
-0.182
-0.090
-0.104
-0.030
0.022
-0.063
-0.046
-0.064
-0.097
-0.096
-0.040
-0.014
-0.056
-0.142
0.077
-0.011
0.090
0.017
0.012
0.037
-0.168
-0.077
0.252
0.213
-0.082
-0.148
-0.147
-0.261
0.045
0.125
0.093
0.002
-0.089
-0.100
-0.148
-0.077
0.094
-0.044
-0.031
0.052
-0.001
-0.178
-0.220
-0.055
0.128
0.067
0.151
-0.072
-0.164
-0.074
-0.061
-0.087
-0.067
0.072
0.221
0.032
-0.028
-0.025
-0.004
-0.198
-0.059
0.012
0.119
0.209
0.096
0.013
0.035
-0.080
-0.214
-0.190
-0.258
-0.132
0.419
0.437
0.073
-0.255
-0.197
-0.157
0.069
-0.062
-0.040
0.094
-0.087
0.121
0.005
-0.236
0.164
0.120
-0.010
-0.137
-0.070
0.131
-0.063
-0.192
0.036
0.054
-0.004
-0.081
0.000
-0.017
-0.003
-0.031
-0.022
-0.207
-0.147
0.052
-0.012
0.016
0.003
-0.001
-0.093
-0.140
-0.129
-0.166
-0.023
-0.034
0.050
0.058
-0.043
-0.132
0.125
0.149
-0.085
-0.133
-0.129
-0.131
0.039
0.055
0.098
-0.080
-0.067
0.131
-0.034
-0.225
0.029
0.041
-0.035
-0.061
0.080
-0.131
-0.193
-0.150
-0.088
0.214
0.210
0.171
-0.026
-0.055
-0.031
-0.197
-0.124
-0.002
0.008
0.139
0.162
0.062
0.083
-0.118
-0.005
-0.115
-0.229
-2.724
0.612
1.474
1.221
0.520
-0.088
-0.623
-0.601
-0.204
-0.019
0.017
0.029
0.117
0.344
0.224
-0.051
0.036
0.071
0.026
-0.082
-0.211
-0.144
-0.171
-0.133
-0.098
0.015
0.099
0.163
0.144
0.259
0.195
-0.199
-0.018
-0.167
-0.198
-0.131
-0.068
-0.038
-0.135
0.066
0.162
0.037
-0.137
-0.198
-0.118
0.033
0.069
-0.098
0.038
0.173
0.171
-0.103
-0.102
-0.044
0.052
-0.032
-0.054
0.330
0.334
0.041
-0.312
-0.124
-0.015
-0.072
0.052
0.045
-0.189
-0.093
-0.178
-0.058
0.086
0.155
0.034
-0.032
-0.236
-0.189
-0.266
-0.049
-0.012
0.101
0.293
0.079
0.000
-0.087
-0.030
-0.188
-0.065
-0.055
-0.039
0.193
0.054
0.012
-0.051
0.131
-0.121
0.012
-0.122
-0.060
-0.300
-0.170
0.243
0.416
0.020
-0.086
-0.136
-0.240
-0.206
-0.068
0.276
0.164
-0.120
-0.324
0.029
0.027
-0.035
0.075
-0.030
-0.061
-0.159
-0.006
-0.002
0.048
0.074
0.089
-0.095
-0.150
-0.048
0.169
-0.108
0.144
-0.016
0.037
0.092
-0.061
0.051
-0.079
-0.005
-0.091
-0.003
0.023
0.121
0.208
-0.154
-0.078
-0.169
-0.022
0.049
-0.138
0.116
-0.184
-0.125
0.023
0.313
0.369
0.076
-0.397
-0.523
-0.110
0.091
0.260
0.212
-0.037
-0.123
-0.208
-0.094
-0.098
0.032
-0.044
-0.030
-0.051
-0.080
-0.100
-0.128
0.008
0.006
0.035
0.062
0.015
-0.066
0.042
0.048
0.026
0.020
-0.085
-0.069
-0.053
-0.013
-0.060
-0.075
0.101
0.034
-0.180
-0.103
0.111
-0.176
-0.069
0.245
0.127
0.076
-0.114
-0.387
-0.061
0.267
0.285
-0.081
-0.300
-0.121
-0.037
0.038
0.117
0.084
0.098
0.011
-0.117
-0.210
-0.133
-0.044
-0.055
-0.177
-0.422
-0.144
0.325
0.237
-0.179
-0.072
0.026
0.104
0.136
0.096
-0.185
0.043
-0.009
-0.075
0.128
0.097
0.099
-0.030
-0.139
-0.080
-0.045
-0.207
0.001
-0.167
-0.097
-0.236
-0.065
-0.046
0.067
0.232
0.147
0.163
0.067
-0.197
-0.114
-0.086
-0.240
-0.541
-0.005
0.593
0.440
0.115
-0.073
0.066
0.009
-0.155
-0.169
-0.171
0.077
0.148
0.057
0.020
-0.026
0.124
0.093
0.022
-0.144
-0.189
-0.123
-0.121
-0.212
0.029
0.078
0.112
-0.441
0.047
-0.040
-0.542
-0.133
0.361
0.293
0.075
0.028
-0.072
0.030
-0.105
-0.230
-0.019
-0.217
0.056
0.373
0.307
0.137
-0.274
-0.246
-0.161
0.149
0.229
0.043
0.033
-0.105
-0.292
-0.069
0.120
-0.089
0.081
0.050
-0.118
-0.124
0.119
0.106
0.038
-0.488
-0.115
0.078
0.215
-0.051
-0.111
-0.027
-0.070
0.171
-0.189
-0.092
0.068
0.115
-0.019
-0.163
-0.124
0.064
-0.209
-0.101
-0.168
0.008
0.242
0.222
-0.049
-0.101
-0.218
-0.225
-0.134
-0.014
0.057
0.081
0.308
0.103
0.052
-0.082
-0.218
-0.316
-0.092
0.052
0.024
0.007
-0.150
-0.145
0.002
0.134
0.005
-0.021
-0.083
-0.053
-0.017
0.114
0.012
-0.075
-0.028
0.046
-0.131
-0.127
0.021
0.066
0.056
0.039
-0.116
-0.100
0.136
-0.115
-0.097
-0.066
0.057
0.003
0.071
0.052
-0.075
-0.114
-0.070
0.047
-0.048
-0.111
-0.038
-0.015
-0.079
0.048
0.204
0.126
-0.255
-0.113
-0.173
-0.140
0.036
0.027
0.132
-0.067
-0.006
-0.062
-0.191
-0.307
0.162
0.291
0.084
-0.184
-0.279
-0.178
0.186
0.248
-0.002
-0.137
-0.012
-0.168
0.167
0.144
0.052
-0.119
-0.104
0.097
0.136
0.026
-0.084
-0.093
-0.233
0.008
0.044
0.136
-0.045
0.060
0.010
-0.034
-0.019
0.037
0.069
-0.042
0.032
0.048
-0.144
-0.074
-0.051
-0.059
-0.142
-0.063
-0.145
-0.028
0.037
0.120
-0.307
-2.848
1.162
1.346
0.909
0.342
-0.009
-0.499
-0.614
-0.256
-0.022
0.174
0.071
0.241
0.270
0.152
0.053
0.089
0.041
-0.139
-0.289
-0.051
-0.212
-0.200
0.010
-0.027
-0.068
0.239
0.070
0.056
0.035
-0.125
-0.025
0.078
0.062
-0.064
-0.006
-0.101
0.011
-0.273
-0.038
0.030
0.152
0.050
-0.143
-0.181
0.038
0.076
-0.042
-0.060
0.066
0.060
-0.060
0.077
0.038
0.026
-0.059
-0.139
-0.244
-0.016
0.296
0.133
0.060
-0.044
-0.080
-0.084
0.003
-0.055
-0.036
-0.001
0.136
0.085
-0.137
-0.441
0.002
0.130
0.038
-0.038
0.035
-0.080
-0.122
-0.020
-0.059
0.031
-0.103
-0.014
-0.129
-0.116
-0.010
0.104
0.096
-0.084
-0.094
-0.068
-0.086
-0.004
-0.128
-0.016
0.042
-0.047
-0.017
-0.086
-0.108
-0.063
-0.033
-0.052
0.062
-0.175
-0.026
-0.003
0.046
-0.041
-0.023
0.048
-0.044
0.013
-0.018
-0.100
-0.045
0.010
0.053
0.082
0.112
-0.034
-0.313
-0.013
0.011
0.075
0.035
-0.020
-0.134
-0.047
-0.170
0.147
-0.016
-0.092
-0.068
0.195
0.099
-0.099
-0.079
-0.135
-0.130
-0.227
0.037
0.209
0.138
0.014
-0.244
-0.257
-0.060
-0.144
-0.066
-0.026
0.071
0.217
0.080
-0.217
-0.291
-0.120
0.184
0.158
0.145
0.063
-0.095
-0.054
-0.028
-0.051
0.034
0.047
-0.114
-0.058
-0.154
0.036
0.026
-0.010
-0.045
-0.068
-0.100
-0.049
-0.002
0.083
0.032
0.057
-0.137
-0.032
0.074
-0.065
0.009
0.028
0.003
-0.017
0.068
-0.010
-0.019
0.032
-0.049
-0.115
-0.175
-0.221
-0.132
0.029
0.017
0.018
-0.038
0.030
-0.048
-0.112
-0.058
-0.009
-0.131
-0.072
0.068
-0.100
-0.022
0.115
-0.064
0.044
0.104
0.036
-0.112
0.041
-0.118
-0.073
-0.019
-0.130
-0.065
0.070
0.175
-0.040
-0.135
0.121
0.149
0.047
-0.094
-0.360
0.193
-0.015
-0.019
0.016
-0.119
-0.037
0.228
0.357
-0.033
-0.249
-0.170
-0.049
-0.099
-0.092
0.113
0.137
0.058
0.102
0.095
0.030
-0.245
-0.136
-0.047
-0.121
0.047
0.002
0.054
-1.832
-0.682
1.581
1.379
0.631
-0.060
-0.625
-0.583
-0.349
-0.164
0.010
0.007
0.314
0.386
0.384
0.224
0.034
-0.060
-0.167
-0.140
-0.072
-0.315
-0.056
0.045
-0.027
0.019
-0.054
-0.071
0.086
0.127
0.046
-0.138
-0.096
-0.051
0.057
-0.063
-0.074
-0.034
-0.185
0.070
-0.276
-0.220
0.049
-0.052
0.048
0.076
0.070
0.207
0.041
-0.065
-0.021
-0.044
0.080
0.044
0.092
0.027
-0.061
-0.166
0.001
0.074
0.154
0.093
-0.037
-0.145
-0.217
-0.089
0.179
0.220
-0.099
-0.218
-0.231
-0.126
0.289
0.211
-0.103
-0.108
-0.168
0.029
-0.017
-0.043
-0.095
-0.039
-0.005
0.145
0.010
0.024
-0.067
-0.076
-0.108
-0.070
-0.143
0.027
-0.006
0.020
0.067
-0.020
0.076
-0.023
-0.061
-0.085
-0.047
0.033
-0.145
0.011
0.085
-0.087
0.027
0.018
0.040
0.010
-0.004
-0.084
-0.017
-0.099
-0.108
-0.156
-0.064
0.268
0.089
-0.045
-0.020
0.216
0.063
-0.205
-0.147
-0.096
-0.137
0.151
0.158
0.128
0.080
-0.092
-0.155
-0.298
-0.149
-0.116
0.071
0.056
0.108
0.150
-0.066
-0.123
-0.196
-0.188
-0.173
-0.056
0.039
0.276
0.090
0.062
-0.100
-0.138
-0.421
0.111
0.372
0.149
-0.021
-0.216
-0.148
-0.114
-0.108
0.035
-0.185
-0.106
0.310
0.177
0.141
-0.136
-0.361
-0.251
0.006
0.008
-0.048
0.028
-0.057
0.104
0.055
0.032
-0.046
-0.157
-0.045
-0.043
-0.057
0.053
0.212
-0.084
-0.094
-0.111
-0.078
-0.014
0.067
0.015
-0.119
0.212
0.010
-0.152
-0.196
-0.040
0.174
0.044
-0.127
-0.160
-0.076
-0.071
-0.073
0.035
0.034
0.108
0.079
-0.008
-0.259
-0.163
0.004
-0.002
0.098
0.041
0.140
0.040
-0.082
-0.242
0.260
0.181
0.064
-0.298
-0.474
-0.040
0.169
0.105
0.076
-0.005
0.095
-0.009
-0.276
0.006
-0.016
0.052
-0.025
-0.189
-0.147
-0.035
0.094
0.021
0.011
-0.125
-0.014
-0.199
0.020
0.396
0.262
0.067
-0.228
-0.120
-0.184
-0.047
0.084
0.037
-0.084
0.332
0.342
0.022
-0.299
-0.372
-0.200
-0.076
0.135
0.093
0.099
-0.163
-0.115
-0.189
-0.068
0.145
0.054
0.107
-0.049
-0.058
-0.143
0.019
-0.170
0.027
0.130
-0.003
0.056
-0.004
-0.086
-0.074
-0.005
-0.067
0.003
-0.015
0.007
0.014
-0.032
-0.056
0.048
-0.068
-0.093
-0.109
-0.125
-0.060
0.122
0.149
0.082
-0.073
-0.113
-0.055
0.042
-0.054
-0.034
-0.062
0.001
0.173
0.005
-0.180
-0.101
0.001
0.111
-0.375
0.159
0.211
-0.015
-0.110
-0.037
-0.091
-0.264
-0.019
0.040
0.289
0.174
0.103
-0.224
-0.580
-0.150
0.313
0.236
0.095
-0.110
-0.102
-0.193
-0.323
-0.249
0.044
-0.030
0.060
0.435
0.118
-0.259
-0.350
-0.215
0.160
-0.251
-0.206
0.147
0.160
-0.059
0.034
0.351
0.089
-0.105
-0.625
-0.361
0.177
0.396
0.213
0.213
0.276
0.148
-0.222
-0.298
-0.173
-0.125
0.100
0.080
0.081
-0.011
-0.154
-0.081
0.049
-0.065
0.022
-0.064
-0.039
-0.278
-0.229
-0.128
-0.066
0.058
0.189
0.073
0.063
-0.043
-0.208
-0.130
0.052
0.037
0.014
0.074
0.033
-0.094
-0.115
-0.011
-0.019
0.105
0.090
0.048
-0.110
-0.005
-0.022
-0.092
0.049
0.007
0.119
0.068
-0.150
-0.200
-0.063
-0.075
-0.084
-0.062
-0.064
0.158
0.113
0.081
-0.121
-0.236
0.063
0.257
0.009
-0.130
-0.100
-0.087
-0.013
0.047
0.050
0.072
-0.048
-0.011
0.133
0.120
-0.039
-0.153
0.011
-0.073
-0.224
-0.393
-0.122
0.250
0.331
0.314
0.015
-0.198
-0.298
-0.236
-0.082
-0.017
0.130
0.069
-0.137
0.089
0.135
-0.037
-0.135
-0.236
0.022
0.211
-0.165
-0.075
-0.217
-0.097
0.211
0.079
-0.075
-0.012
-0.032
-0.120
-0.026
0.123
0.188
-0.019
-0.123
-0.078
0.112
0.052
-0.097
-0.145
0.048
0.108
0.100
0.002
-0.302
-0.154
0.069
0.228
-0.128
-0.056
0.078
0.084
0.019
-0.004
-0.098
-0.146
0.002
0.048
0.025
0.090
0.058
0.189
-0.156
-0.247
-0.026
0.161
-0.089
-0.307
0.091
0.064
0.124
-0.096
0.023
-0.035
0.021
-0.184
-0.015
-0.139
0.008
-0.096
0.120
0.029
0.011
0.044
-0.088
-0.115
-0.164
0.099
-0.061
-0.065
-0.041
0.162
0.285
0.108
-0.115
-0.302
-0.218
0.032
0.103
-0.007
-0.027
-0.065
0.096
0.054
0.094
0.080
-0.065
-0.165
-0.010
-0.035
0.029
-0.059
-0.079
-0.004
0.076
0.025
-0.007
0.033
-0.032
-0.008
0.092
-0.157
-0.140
-0.092
0.023
0.057
-0.139
0.114
0.007
-0.036
-0.028
-0.109
-0.258
0.086
0.046
0.134
0.029
0.001
-0.233
-0.105
-0.070
-0.070
0.048
0.064
0.010
-0.008
-0.044
-0.001
-0.008
0.092
0.028
-0.138
-0.031
-0.045
-0.127
-0.013
-0.084
-0.085
0.170
0.061
-0.052
-0.106
-0.014
-0.007
-0.076
-0.032
-0.043
-0.124
0.020
0.218
0.070
-0.122
-0.224
-0.072
0.158
-0.091
0.028
0.036
0.128
0.092
-0.099
-0.217
-0.075
-0.071
0.017
0.011
0.013
0.163
-0.167
-0.213
-0.175
-0.053
0.175
-0.046
-0.095
-0.018
-0.124
0.061
0.025
0.054
-0.023
-0.063
-0.056
0.031
0.058
-0.043
-0.040
-0.045
-0.074
-0.128
-0.136
0.107
0.022
0.101
-0.133
-0.044
0.141
0.072
0.040
-0.105
-0.046
0.020
-0.039
-0.184
-0.068
-0.039
0.042
0.118
-0.006
-0.103
-0.135
-0.126
-0.042
-0.058
-0.016
-0.008
0.058
-0.031
-0.168
-0.041
0.148
0.159
0.062
-0.195
-0.061
-0.036
-0.023
-0.000
-0.004
-0.026
0.166
-0.120
-0.106
-0.188
-0.122
0.009
0.006
0.118
0.008
-0.062
-0.104
0.075
-0.036
0.032
-0.012
0.042
0.053
-0.002
-0.081
-0.142
0.017
-0.063
0.009
0.138
0.201
0.037
-0.100
-0.176
-0.198
-0.048
0.045
0.035
0.042
-0.239
-0.059
-0.150
-0.119
0.035
0.222
0.004
0.042
0.113
0.026
0.032
-0.163
-0.192
-0.279
-0.037
0.230
0.133
0.169
0.166
0.118
-0.200
-0.322
-0.649
-0.057
0.025
0.053
-0.025
0.084
0.280
0.014
-0.202
-0.127
-0.008
0.016
-0.637
-0.201
0.303
0.450
0.102
-0.115
-0.044
-0.177
0.050
0.136
0.064
0.015
0.008
0.115
0.025
0.073
-0.110
0.107
-0.030
0.042
0.067
0.077
0.024
-0.201
-0.189
-0.148
-0.034
-0.048
-0.073
-0.006
0.086
-0.006
0.042
-0.071
-0.055
0.002
0.059
-0.076
-0.158
-0.116
-0.104
-0.055
0.006
0.137
0.144
-0.223
-0.138
-0.044
0.077
-0.096
-0.193
0.026
0.236
0.118
-0.158
-0.139
-0.027
0.012
0.025
0.197
0.005
0.058
0.054
-0.085
-0.026
-0.124
0.129
0.009
-0.177
-0.091
0.114
0.268
0.183
0.129
0.098
-0.143
-0.386
-0.283
-0.175
0.115
0.063
0.130
-0.121
-0.320
-0.084
0.126
0.077
-0.101
-0.167
0.006
0.160
0.235
0.101
-0.038
-0.137
0.065
-0.113
0.061
0.090
0.043
-0.028
-0.060
-0.123
0.052
-0.158
-0.197
-0.263
-0.218
-0.086
-0.148
0.041
-0.069
0.153
-0.017
-0.267
0.064
0.122
0.054
0.005
-0.081
-0.009
-0.071
-0.153
0.049
0.050
0.257
0.039
0.074
-0.157
-0.089
0.044
-0.063
-0.169
0.226
0.125
0.051
-0.116
-0.150
-0.033
-0.106
-0.164
-0.119
-0.015
0.252
0.206
-0.015
-0.082
-0.205
-0.173
0.032
-1.128
-2.048
1.685
1.609
0.957
0.161
-0.446
-0.931
-0.628
-0.113
0.099
0.239
0.364
0.258
0.136
0.014
-0.047
-0.088
-0.054
-0.094
-0.089
-0.181
-0.024
-0.188
-0.164
0.078
0.055
-0.163
0.230
0.411
0.022
-0.119
-0.070
-0.126
0.004
-0.034
0.034
0.127
-0.355
-0.393
-0.002
0.243
0.164
-0.048
-0.065
-0.202
-0.191
-0.107
0.021
0.007
0.021
0.179
0.228
0.069
-0.094
-0.142
0.066
0.031
0.024
-0.017
0.015
-0.115
-0.185
-0.072
0.092
0.021
-0.372
-0.279
0.138
0.233
0.101
-0.001
0.204
0.310
0.012
-0.104
-0.209
-0.244
-0.135
0.286
0.352
0.156
-0.006
-0.493
-0.185
0.128
0.153
-0.088
-0.353
-0.141
-0.165
-0.158
-0.119
-0.065
-0.012
0.107
0.028
-0.075
0.000
-0.047
-0.013
-0.026
-0.011
0.003
-0.056
-0.114
-0.290
0.006
0.176
0.167
-0.040
-0.160
0.161
0.226
0.023
-0.037
-0.167
0.033
-0.141
-0.053
0.103
0.279
0.043
0.002
-0.089
-0.113
0.038
-0.004
-0.034
-0.060
-0.241
-0.096
0.102
0.167
-0.011
-0.179
-0.105
0.115
-0.028
-0.006
-0.023
-0.106
-0.193
0.016
-0.030
0.073
0.024
0.044
-0.176
-0.032
-0.060
0.031
0.072
-0.070
0.068
-0.014
0.078
-0.052
-0.159
0.000
0.053
0.038
0.136
0.164
-0.021
-0.149
-0.237
-0.020
0.231
-0.072
0.028
0.003
-0.177
-0.097
0.056
0.066
0.006
-0.143
-0.292
0.000
-0.133
-0.020
-0.014
-0.087
-0.185
0.062
0.276
0.171
-0.202
-0.246
-0.122
-0.030
0.129
-0.015
0.173
0.119
-0.058
-0.277
-0.175
0.175
0.071
-0.049
0.365
0.222
0.151
-0.279
-0.298
-0.202
-0.161
0.003
-0.229
-0.334
0.326
0.541
0.209
-0.044
-0.252
-0.110
-0.092
-0.167
0.020
-0.053
-0.023
0.095
0.037
0.174
-1.908
-0.658
1.456
1.389
0.745
0.073
-0.527
-0.794
-0.659
-0.365
-0.192
0.130
0.505
0.330
0.367
0.377
-0.002
-0.179
-0.233
-0.180
-0.228
-0.158
-0.162
-0.065
-0.060
-0.063
0.327
0.193
0.209
-0.012
-0.000
-0.164
-0.138
-0.038
0.012
-0.032
0.020
-0.093
-0.085
0.069
-0.062
-0.001
-0.005
-0.084
0.030
-0.074
-0.107
-0.017
0.080
0.189
-0.003
-0.016
-0.093
0.065
0.078
0.119
-0.185
-0.004
0.178
0.010
-0.160
-0.090
0.148
0.043
-0.180
-0.190
-0.087
0.022
0.115
0.178
0.073
-0.099
-0.228
-0.172
-0.118
0.028
0.007
-0.025
-0.011
-0.013
-0.204
-0.176
-0.026
0.034
-0.068
0.016
0.009
0.150
-0.080
0.001
-0.211
-0.245
0.020
0.184
0.225
0.104
0.004
-0.138
-0.208
-0.121
-0.063
0.118
-0.066
-0.044
-0.009
0.011
-0.176
-0.135
0.037
0.049
0.061
-0.043
0.102
-0.038
0.073
0.015
-0.356
-0.015
0.313
0.173
0.053
-0.531
-0.405
0.056
0.379
0.309
-0.009
-0.031
-0.037
-0.087
-0.074
-0.187
-0.110
0.103
0.081
0.009
-0.110
0.002
0.035
0.123
0.110
-0.251
-0.186
0.109
-0.058
-0.109
0.022
-0.021
-0.119
-0.073
0.050
0.127
-0.160
-0.065
0.205
0.444
0.149
-0.366
-0.460
-0.133
0.009
0.238
0.140
0.157
-0.195
-0.081
-0.181
-0.075
0.117
0.183
-0.036
-0.153
-0.140
-0.068
-0.014
-0.028
0.025
0.147
0.043
0.058
-0.025
-0.184
-0.003
-0.107
-0.214
0.086
-0.025
-0.020
-0.078
0.072
-0.232
-2.864
0.954
1.561
1.227
0.480
-0.154
-0.566
-0.605
-0.530
-0.090
0.097
0.105
0.604
0.467
0.122
0.191
-0.049
-0.308
-0.343
-0.247
-0.155
-0.212
-0.160
0.100
0.096
-0.021
-0.128
0.146
0.323
0.223
-0.081
-0.310
-0.321
-0.013
0.050
-0.016
-0.244
-0.167
0.154
0.092
0.009
-0.052
-0.048
-0.047
-0.106
-0.083
-0.040
-0.059
0.064
0.164
-0.023
-0.009
-0.129
0.027
0.455
-0.054
-0.264
-0.118
0.045
0.054
0.212
-0.028
-0.121
0.048
0.093
0.045
0.123
0.031
-0.080
-0.167
-0.089
-0.050
0.289
0.071
-0.073
-0.298
-0.098
-0.164
-0.020
-0.077
-0.159
-0.058
-0.184
0.032
0.113
0.042
0.267
0.054
-0.094
-0.073
-0.055
-0.171
-0.045
-0.064
0.093
-0.062
-0.067
0.007
-0.036
-0.133
-0.112
-0.157
-0.108
-0.154
-0.075
-0.318
-0.070
-0.109
0.040
0.079
0.143
0.131
0.072
-0.005
-0.003
-0.051
0.015
-0.010
0.034
-0.055
-0.067
-0.010
0.024
-0.181
-0.477
0.012
0.635
0.549
-0.097
-0.264
-0.273
-0.054
0.172
0.051
-0.010
0.039
0.083
0.064
-0.112
-0.260
0.052
-0.135
-0.122
0.314
0.049
-0.025
-0.192
-0.296
-0.196
0.032
-0.049
0.184
0.116
-0.096
-0.222
0.274
-0.044
-0.221
-0.094
0.071
-0.038
-0.005
0.102
-0.094
-0.039
0.090
-0.069
-0.113
0.001
-0.002
-0.020
0.044
0.179
0.207
0.132
-0.075
-0.149
-0.125
-0.221
-0.077
0.181
0.100
0.155
0.145
-0.090
-0.107
-0.138
-0.185
0.001
0.024
0.162
0.085
-0.007
-0.101
-0.027
0.068
0.088
-0.220
-0.142
-0.156
0.071
0.341
0.114
-0.151
-0.144
0.009
-0.017
-0.010
-0.103
-0.130
-0.015
-0.113
-0.085
-0.017
0.033
-0.061
-0.084
-0.009
-0.035
0.009
-0.007
-0.039
-0.201
-0.083
0.100
0.193
-0.133
-0.238
-0.059
0.119
0.051
-0.143
-0.176
-0.005
0.098
0.146
0.092
-0.048
-0.054
0.065
-0.119
0.055
0.044
0.137
-0.076
-0.096
-0.125
-0.039
0.009
0.068
0.153
-0.058
-0.190
-0.277
-0.061
0.398
0.206
-0.050
-0.129
-0.066
0.034
-0.161
-0.231
0.030
0.133
0.128
0.198
-0.152
-0.172
-0.180
-0.196
-0.175
0.087
-0.039
-0.123
-0.052
0.072
0.145
-0.007
0.022
-0.077
-0.055
-0.129
0.021
-0.040
-0.051
0.116
-0.005
0.004
0.072
-0.237
-0.133
0.069
0.071
0.072
0.007
-0.033
-0.006
-0.104
0.088
0.062
0.094
-0.073
-0.004
-0.037
-0.065
-0.073
-0.085
-0.163
-0.256
0.139
0.283
0.139
-0.015
-0.153
-0.144
0.027
-0.014
-0.164
0.041
-0.027
0.072
-0.008
0.106
-0.026
-0.178
-0.116
-0.026
0.039
-0.087
-0.260
0.058
0.328
-0.077
-0.211
-0.058
0.049
-0.013
-0.080
0.020
0.086
-0.084
-0.067
0.035
-0.063
0.051
-0.078
-0.219
-0.204
0.103
-0.018
-0.165
0.128
0.266
0.171
-0.092
-0.139
-0.062
-0.037
0.052
0.073
0.012
-0.034
-0.121
-0.031
-0.061
-0.057
0.079
-0.183
-0.145
0.081
0.173
0.060
-0.050
-0.084
-0.008
-0.096
-0.076
-0.067
0.032
0.025
-0.063
-0.111
-0.131
-0.086
-0.008
0.184
0.102
-0.107
-0.011
-0.209
-0.128
0.143
0.119
-0.075
-0.037
-0.153
0.008
-0.081
-0.061
-0.157
-0.139
0.101
0.148
0.064
-0.112
-0.019
-0.099
-0.304
0.168
0.052
0.043
0.039
-0.234
0.106
0.124
0.266
0.018
0.015
0.198
-0.131
-0.267
-0.094
0.053
-0.085
0.044
0.119
0.039
-0.081
-0.225
-0.014
0.051
0.057
-0.221
-0.656
-0.346
0.251
0.576
0.378
-0.022
-0.151
-0.148
-0.324
0.018
0.052
0.102
0.100
0.062
-0.023
-0.033
-0.038
-0.036
0.024
-0.092
-0.003
0.034
-0.170
-0.098
-0.155
-0.057
0.001
0.060
0.023
-0.009
0.028
-0.021
-0.044
-0.107
-0.394
0.093
0.145
0.064
0.276
-0.040
-0.065
0.046
-0.184
-0.066
-0.061
0.045
0.051
0.156
0.041
0.066
0.006
-0.050
-0.163
-0.373
-0.250
0.207
0.370
0.161
-0.029
-0.260
-0.345
-0.202
0.028
0.204
0.141
-0.110
-0.164
0.049
-0.029
-0.006
-0.079
-0.150
-0.176
0.125
0.068
-0.031
0.018
0.031
-0.043
-0.247
-0.059
0.031
0.107
0.069
0.226
0.221
-0.175
-0.089
-0.163
-0.066
0.133
0.029
0.016
0.034
0.081
0.022
-0.103
-0.166
-0.077
0.034
-0.170
-0.036
-0.112
0.095
-0.043
-0.053
0.145
-0.032
-0.121
0.048
0.102
-0.017
0.028
0.069
-0.065
-0.091
-0.214
-0.525
0.087
0.413
0.325
-0.014
-0.049
-0.175
-0.081
-0.087
-0.035
-0.003
-0.007
0.039
0.116
-0.027
-0.003
-0.004
-0.229
-0.239
-0.106
-0.003
0.368
0.197
-0.150
-0.157
-0.001
0.023
-0.140
0.037
-0.171
-0.004
0.132
0.264
0.119
-0.150
-0.203
-0.241
-0.083
-0.160
-0.011
0.146
-0.066
0.041
-0.045
-0.061
0.216
-0.003
-0.131
-0.250
-0.002
0.193
0.009
-0.034
-0.057
-0.068
0.011
-0.126
0.034
-0.066
-0.060
-0.094
-0.064
-0.064
-0.035
-0.022
-0.052
-0.100
0.147
0.011
-0.034
0.007
0.051
-0.090
0.055
0.128
-0.079
-0.059
0.014
-0.095
-0.065
-0.016
-0.152
-0.041
-0.262
-0.161
0.259
0.198
0.024
-0.126
-0.044
-0.062
-0.275
-0.118
0.057
0.308
0.107
0.041
-0.052
-0.076
0.046
-0.081
0.034
-0.071
0.010
0.187
0.142
-0.066
-0.112
-0.156
-0.189
-0.056
-0.083
0.052
0.230
0.125
-0.104
-0.221
-0.421
-0.092
0.280
0.365
0.139
-0.112
-0.392
-0.356
-0.188
0.021
0.207
0.408
0.146
-0.128
-0.380
-0.010
0.110
0.080
0.046
-0.120
-0.153
0.024
0.215
0.059
-0.226
0.151
-0.043
-0.102
-0.212
-0.051
0.025
0.035
-0.025
0.069
-0.034
-0.032
0.048
-0.041
-0.105
-0.001
0.061
0.024
0.207
-0.036
-0.065
-0.112
-0.042
-0.116
0.125
0.183
0.101
-0.084
-0.195
-0.118
-0.043
-0.043
-0.126
0.011
0.003
-0.081
-0.161
-0.033
0.027
0.091
-0.041
0.011
0.023
-0.098
0.006
-0.142
-0.016
0.067
-0.012
0.106
-0.155
-0.034
0.002
-0.030
-0.173
-0.143
0.047
-0.020
0.013
0.098
-0.059
-0.034
-0.086
-0.142
-0.180
-0.051
0.043
0.356
0.271
0.147
-0.043
-0.144
-0.048
-0.139
-0.045
-0.108
-0.055
0.038
0.106
0.059
-0.034
-0.252
-0.153
0.084
-0.009
-0.068
0.043
-0.099
-0.188
0.003
0.037
0.008
0.014
0.154
-0.080
0.057
-0.025
-0.164
-0.289
0.020
0.132
0.135
0.156
-0.136
-0.181
-0.117
0.044
-0.007
0.135
0.093
-0.031
-0.053
0.031
-0.052
-0.079
-0.031
-0.026
-0.133
0.108
-0.111
-0.073
-0.061
-0.079
0.035
-0.059
-0.035
-0.097
0.089
-0.165
-0.036
0.008
0.015
-0.069
0.007
0.001
0.015
-0.060
-0.028
0.016
0.054
-0.111
0.064
-0.056
-0.007
0.015
-0.050
-0.044
0.061
-0.091
-0.122
-0.116
0.065
-0.175
-0.093
-0.076
0.291
0.518
0.134
0.066
-0.253
-0.155
-0.013
-0.153
-0.026
-0.015
-2.252
0.126
1.607
1.282
0.516
0.076
-0.482
-0.952
-0.704
-0.345
0.003
0.195
0.310
0.327
0.325
0.216
0.107
-0.125
-0.247
-0.262
-0.216
-0.306
-0.006
0.178
0.180
-0.023
-0.146
-0.206
0.051
0.161
0.244
0.067
0.005
-0.111
-0.074
-0.025
-0.044
-0.086
0.031
-0.049
-0.013
-0.013
-0.039
-0.062
-0.040
-0.155
0.065
0.099
0.081
-0.126
-0.091
0.179
0.325
-0.142
-0.158
-0.173
-0.012
0.075
0.020
0.009
0.193
-0.040
-0.156
-0.087
0.037
0.015
-0.102
-0.048
0.087
-0.072
-0.201
0.211
0.186
-0.010
-0.013
-0.162
-0.242
-0.057
0.042
0.199
0.111
-0.006
-0.204
-0.154
-0.701
-0.348
0.254
0.382
0.130
-0.024
0.199
0.011
-0.231
-0.204
-0.018
0.063
-0.109
-0.362
0.192
0.293
0.471
0.111
0.004
-0.161
-0.262
-0.230
-0.298
-0.155
-0.077
0.001
0.248
0.049
-0.037
-0.002
-0.046
-0.058
-0.051
-0.050
0.038
0.048
-0.014
0.086
0.125
-0.019
0.022
-0.056
-0.119
0.172
0.010
-0.035
-0.094
0.037
0.101
-0.037
-0.180
-0.139
0.150
0.037
-0.101
-0.064
-0.108
-0.052
-0.161
0.069
0.009
-0.005
0.002
-0.068
-0.015
-0.108
-0.193
-0.117
0.064
0.131
0.093
0.057
-0.028
-0.154
0.038
0.039
-0.151
-0.085
-0.066
-0.089
-0.134
-0.055
0.261
0.234
-0.070
-0.233
-0.289
-0.102
0.046
0.094
0.144
0.045
-0.027
-0.000
0.011
-0.087
-0.019
0.039
-0.140
0.030
-0.099
-0.106
-0.077
-0.195
-0.167
-0.233
0.117
0.276
-0.049
-0.201
-0.178
-0.047
0.144
0.054
-0.081
0.009
0.002
0.036
0.062
0.019
0.053
-0.112
-0.241
-0.051
-0.163
0.081
0.189
-0.130
-0.054
-0.037
-0.024
-0.214
0.068
-0.082
-0.020
-0.137
-0.019
0.319
0.161
0.076
-0.115
-0.249
-0.147
-0.104
0.069
0.110
0.088
0.048
-0.156
-0.002
-0.179
-0.068
0.011
0.021
0.064
-0.034
-0.054
-0.134
0.048
-0.087
-0.007
0.029
0.145
-0.029
0.039
-0.050
-0.092
-0.072
-0.189
0.066
0.109
0.077
-0.099
-0.341
-0.120
0.317
0.210
0.156
-0.228
-0.194
-0.066
0.065
0.001
-0.051
0.235
0.084
-0.141
-0.138
0.023
-0.168
-0.070
0.011
0.092
-0.039
-0.128
-0.097
-0.037
0.024
-0.078
-0.051
-0.145
-0.172
0.158
0.050
-0.175
-0.038
-0.016
0.104
-0.039
-0.186
-0.084
0.051
0.179
0.116
-0.100
-0.178
-0.096
-0.014
0.072
0.017
-0.026
0.239
-0.015
-0.015
-0.084
-0.198
-0.010
-0.015
0.096
0.041
0.079
-0.104
-0.078
0.084
-0.058
0.027
0.041
-0.125
0.008
-0.079
-0.022
-0.158
-0.017
0.175
0.098
0.020
-0.145
-0.203
-0.173
-0.068
-0.006
0.069
0.009
0.026
-0.072
0.064
0.068
-0.163
-0.039
-0.286
0.186
0.344
0.111
0.090
-0.027
0.083
-0.074
-0.181
-0.056
-0.041
0.134
0.244
0.204
-0.042
-0.313
0.031
0.036
-0.049
-0.250
-0.053
0.263
0.142
-0.115
-0.004
-0.115
-0.023
0.126
0.159
-0.041
-0.230
-0.156
-0.055
-0.152
-0.020
-0.191
0.016
0.182
0.160
0.087
-0.172
0.053
-0.111
-0.293
-0.077
0.012
-0.031
0.115
0.076
-0.207
-0.337
0.021
0.258
0.131
-0.142
0.031
0.192
-0.082
-0.063
0.040
-0.050
0.024
-0.039
-0.132
0.050
-0.159
0.039
0.098
0.155
-0.061
-0.153
-0.213
-0.174
-0.068
0.040
-0.038
0.025
0.026
-0.073
-0.039
-0.010
-0.013
0.062
-0.124
-0.241
-0.036
0.311
0.153
-0.137
-0.283
-0.096
-0.180
-0.011
0.182
0.203
-0.056
-0.152
-0.050
0.105
0.046
0.143
0.095
-0.121
-0.210
-0.277
0.057
-0.057
0.018
0.073
-0.074
-0.004
0.003
0.011
-0.033
-0.102
-0.148
-0.113
-0.097
-0.000
-0.063
0.029
0.130
0.003
0.038
-0.101
-0.187
0.040
0.031
0.059
0.029
-0.123
0.035
0.019
-0.106
-0.087
0.260
-0.034
0.032
-0.169
-0.281
-0.130
-0.007
0.005
0.147
0.274
0.179
-0.013
-0.233
-0.248
-0.238
-0.003
0.125
0.193
0.009
0.122
-0.078
-0.117
-0.262
-0.290
0.045
-0.024
-0.013
0.025
-0.122
-0.041
-0.190
-0.101
0.146
-0.069
-0.013
-0.081
-0.225
0.192
0.170
0.060
-0.098
0.038
-0.060
0.087
0.176
0.058
-0.154
-0.149
-0.169
-0.054
-0.124
0.132
0.202
0.057
-0.180
-0.074
-0.232
-0.005
0.026
-0.027
0.040
-0.042
-0.099
0.054
-0.032
0.063
0.005
-0.042
-0.004
-0.170
-0.032
-0.049
-0.106
-0.046
0.211
-0.064
-0.007
0.091
0.104
0.020
-0.064
0.000
-0.040
0.020
0.107
-0.161
-0.229
0.013
0.166
0.136
0.134
-0.053
-0.080
-0.206
-0.141
0.019
0.116
0.143
0.020
-0.077
-0.147
-0.285
-0.092
-0.240
0.012
0.252
0.309
0.186
-0.150
-0.318
-0.212
-0.205
-0.020
0.147
-0.038
0.158
0.107
-0.074
-0.069
0.124
-0.118
-0.097
-0.101
-0.267
0.227
0.452
0.011
-0.021
-0.113
-0.118
-0.119
-0.161
-0.002
0.408
0.427
-0.010
-0.325
-0.277
-0.033
-0.024
-0.200
-0.388
-0.127
0.226
0.305
0.167
-0.085
0.075
0.120
-0.199
-0.196
-0.157
0.075
0.152
-0.024
0.089
0.033
-0.053
-0.035
-0.117
-0.108
-0.277
-0.076
-0.127
0.011
-0.061
-0.037
0.007
-0.005
-0.004
0.057
-0.046
-0.085
-0.038
0.077
0.064
0.065
-0.072
-0.054
-0.049
-0.034
-0.059
0.039
0.022
-0.020
0.122
-0.183
-0.010
0.022
0.009
-0.110
-0.323
0.192
0.328
-0.000
-0.125
-0.124
-0.120
-0.016
-0.102
-0.015
0.036
0.031
-0.013
-0.138
-0.109
-0.028
-0.091
-0.010
0.002
-0.027
0.045
-0.113
-0.047
-0.003
-0.006
-0.012
0.222
0.026
-0.003
-0.053
-0.229
-1.918
-0.801
1.682
1.432
0.756
0.046
-0.647
-0.664
-0.519
-0.193
-0.028
0.185
0.100
0.067
0.320
0.320
0.090
-0.233
-0.067
0.024
-0.095
-0.062
-0.125
-0.125
-0.100
-0.035
0.045
0.084
0.300
0.164
0.022
-0.138
-0.160
-0.153
-0.084
0.073
0.056
-0.047
0.083
-0.317
-0.488
-0.079
0.207
0.045
0.027
0.021
-0.145
-0.161
-0.062
0.121
0.063
-0.115
-0.080
0.045
0.077
0.147
0.165
0.083
-0.081
-0.009
0.037
0.066
-0.115
-0.030
-0.009
0.056
0.057
0.157
0.102
-0.015
-0.100
-0.071
0.047
0.036
-0.241
-0.131
-0.141
-0.108
-0.048
-0.182
-0.021
0.134
0.154
-0.129
-0.272
-0.788
-0.230
0.155
0.388
0.165
-0.246
0.220
0.097
-0.183
-0.150
0.108
0.033
-0.132
0.043
0.082
0.093
0.084
0.029
0.080
-0.249
-0.252
-0.167
-0.161
-0.027
0.176
0.098
0.021
-0.060
-0.077
-0.051
0.056
0.215
0.008
0.065
-0.046
-0.091
-0.134
-0.199
-0.049
-0.241
0.272
0.386
0.071
-0.046
-0.071
-0.118
-0.119
-0.086
0.068
0.121
0.069
0.134
0.142
-0.076
-0.325
-0.070
-0.032
-0.116
0.002
0.078
-0.061
-0.161
0.027
-0.023
-0.005
-0.033
-0.036
0.037
-0.102
-0.028
-0.007
-0.046
-0.063
-0.014
-0.025
-0.009
-0.009
0.190
0.144
-0.007
-0.106
-0.148
-0.034
-0.074
0.137
-0.169
0.097
0.071
0.070
-0.000
-0.106
-0.113
-0.217
-0.123
0.196
0.220
0.046
-0.206
-0.114
-0.038
0.116
0.073
-0.025
-0.016
-0.125
-0.223
0.005
-0.004
-0.007
0.122
0.054
-0.113
0.002
0.087
-0.089
-0.153
-0.051
-0.176
0.005
-0.029
0.036
0.063
0.004
-0.018
-0.055
-0.092
0.016
-0.116
-0.157
-0.002
-0.150
-0.125
0.082
-0.011
-0.016
0.082
0.175
0.020
-0.095
0.055
-0.192
-0.117
0.003
0.097
0.134
0.007
0.008
-0.184
-0.254
0.014
0.135
0.177
0.089
0.050
-0.022
-0.131
-0.145
0.059
0.001
0.055
0.007
-0.037
0.010
0.016
-0.430
-0.277
0.126
0.409
0.144
-0.146
-0.114
-0.049
-0.068
0.091
-0.154
0.080
0.033
-0.005
-0.062
0.209
0.135
0.048
0.197
0.032
-0.202
-0.467
-0.166
-0.078
0.160
0.117
-0.226
-0.172
0.138
0.258
-0.044
-0.233
-0.070
-0.036
-0.196
-0.148
-0.001
-0.024
0.054
0.017
-0.020
0.150
-0.125
-0.125
-0.115
0.093
0.095
0.003
0.137
0.006
-0.022
0.048
-0.101
0.107
0.056
-0.069
0.069
-0.033
0.086
-0.049
-0.084
-0.024
-0.111
-0.019
-0.110
-0.051
-0.081
-0.108
-0.094
0.097
0.080
0.029
0.070
-0.079
-0.077
-0.071
0.078
0.123
-0.185
-0.303
-0.176
0.207
0.339
0.013
-0.257
-0.154
-0.005
-0.126
-0.087
-0.124
-0.100
0.157
0.260
0.093
-0.012
-0.141
0.107
-0.114
0.039
-0.047
-0.003
-0.054
-0.110
0.436
0.428
0.045
-0.219
-0.215
-0.061
-0.052
-0.120
0.036
0.041
0.162
-0.020
-0.126
-0.250
-0.062
0.154
0.017
-0.146
-0.196
-0.064
-0.066
-0.091
0.056
0.031
0.018
0.038
0.007
-0.021
0.010
0.095
-0.015
-0.071
-0.135
-0.099
-0.157
0.050
0.108
0.091
-0.011
-0.013
-0.075
0.021
-0.101
0.006
0.044
0.082
-0.021
-0.027
-0.094
-0.039
0.074
-0.041
0.001
0.002
0.021
0.023
-0.161
-0.166
-0.275
0.039
0.174
0.005
-0.187
-0.050
0.053
-0.089
-0.200
0.129
0.015
-0.055
-0.164
-0.036
-0.143
-0.136
0.007
0.281
0.245
0.032
-0.180
-0.268
-0.164
0.074
-0.089
0.040
-0.062
-0.121
0.169
0.293
0.188
-0.273
-0.524
0.061
0.213
0.126
0.064
-0.023
-0.156
-0.218
-0.031
0.108
-0.298
-0.274
0.094
0.188
0.308
0.114
-0.070
-0.149
-0.326
-0.129
-0.174
-0.071
0.074
0.142
0.205
0.203
-0.064
-0.070
-0.223
-0.145
-0.053
-0.147
0.028
0.147
-0.002
0.014
0.064
-0.102
-0.144
-0.047
-0.012
0.100
0.010
0.070
0.051
0.081
-0.087
-0.161
-0.083
0.098
0.073
-0.123
-0.075
-0.076
0.020
-0.167
-0.064
0.129
-0.161
0.004
0.075
0.058
-0.148
-0.109
-0.001
-0.059
0.002
0.065
0.109
-0.067
-0.061
0.008
-0.080
-0.225
0.104
0.021
-0.025
0.005
-0.046
-0.149
-0.132
0.341
0.238
-0.111
-0.388
-0.273
-0.150
0.187
0.269
0.197
0.080
-0.328
-0.021
-0.067
-0.067
-0.030
0.026
0.090
-0.012
0.010
-0.113
-0.016
-0.067
-0.015
-0.057
0.062
-0.004
-0.038
0.076
-0.087
-0.164
0.161
0.204
-0.120
-0.349
-0.214
0.104
0.009
0.107
0.032
0.019
0.048
0.035
-0.073
-0.105
-1.243
-2.313
1.483
1.523
0.905
0.326
-0.100
-0.359
-0.554
-0.505
-0.181
0.180
0.238
0.275
0.274
0.277
0.240
0.180
-0.082
-0.134
-0.249
-0.296
-0.262
0.022
0.038
0.128
0.212
0.028
0.078
0.026
0.134
-0.040
-0.123
-0.109
-0.005
-0.020
-0.121
-0.038
0.005
0.067
-0.025
-0.082
-0.226
-0.075
-0.024
-0.003
-0.124
-0.093
0.401
0.147
-0.198
-0.289
-0.079
0.137
0.212
-0.046
-0.071
-0.015
-0.055
-0.054
0.056
0.043
0.035
-0.045
0.032
-0.046
0.058
-0.017
0.000
0.078
-0.036
-0.074
-0.010
0.144
0.135
-0.162
0.019
0.034
-0.207
-0.009
0.020
-0.043
-0.033
-0.119
-0.067
-0.199
-0.105
0.198
0.073
-0.000
-0.066
-0.140
-0.199
-0.247
-0.003
0.133
-0.031
-0.030
0.103
0.103
-0.141
-0.423
0.020
-0.030
-0.086
0.019
0.095
-0.112
-0.319
-0.217
-0.037
0.219
0.140
-0.091
-0.084
-0.118
0.048
-0.019
-0.037
-0.017
0.042
-0.041
-0.042
0.088
-0.162
0.067
0.110
-0.095
-0.309
0.097
0.328
0.245
-0.197
-0.278
-0.016
0.010
-0.076
0.010
0.148
0.400
-0.002
-0.197
-0.167
-0.118
-0.074
-0.008
0.041
0.102
-0.003
-0.096
-0.020
0.024
-0.045
-0.099
-0.195
-0.283
-0.130
-0.080
-0.003
-0.148
-0.267
0.448
0.373
0.119
-0.193
-0.197
-0.033
-0.099
-0.089
0.043
0.054
-0.000
-0.076
0.318
0.477
-0.093
-0.287
-0.154
-0.084
-0.023
0.037
-0.184
-0.123
-0.008
0.107
-0.011
0.074
-0.010
-0.239
-0.005
0.091
0.105
-0.085
0.027
-0.164
-0.135
-0.163
-0.001
0.090
-0.042
-0.183
-0.004
-0.013
-0.253
-0.190
-0.156
0.021
0.259
0.292
-0.041
-0.170
-0.161
-0.287
0.043
0.055
0.158
0.044
0.133
0.079
-0.132
-0.190
-0.207
0.001
-0.254
-0.211
0.126
0.184
-0.043
-0.073
0.169
0.281
-0.136
-0.251
-0.100
-0.014
0.208
0.094
0.224
0.067
-0.059
-0.274
-0.103
0.012
-0.019
-0.084
-0.046
0.081
0.020
-0.113
-0.166
-0.149
-0.058
-0.028
0.051
0.037
0.012
0.026
0.009
0.052
-0.037
-0.434
-0.324
0.171
0.353
0.156
-0.152
-0.196
0.142
0.336
0.261
0.175
-0.141
-0.205
-0.020
0.056
-0.038
0.338
-0.032
0.085
-0.050
-0.085
-0.101
-0.205
-0.241
-0.061
-0.037
-0.184
-0.178
-0.097
-0.216
-0.094
0.117
0.438
0.288
0.002
-0.152
-0.265
-0.139
-0.074
0.091
0.160
0.015
0.048
-0.042
-0.037
-0.139
-0.071
0.127
0.073
-0.031
-0.491
-0.485
0.334
0.606
0.174
-0.287
-0.140
-0.167
-0.246
-0.093
-0.046
0.189
0.011
0.054
-0.072
-0.088
-0.100
-0.055
-0.098
-0.266
-0.029
0.062
0.079
0.112
-0.044
-0.022
-0.007
0.010
0.095
0.042
0.154
-0.061
-0.080
0.034
-0.164
0.065
-0.007
-0.044
-0.064
0.183
0.127
-0.050
-0.071
-0.180
-0.295
-0.011
0.057
0.008
0.025
0.143
0.162
-0.132
-0.306
-0.165
-0.154
-0.043
0.071
0.098
-0.024
-0.153
0.060
0.013
-0.019
-1.886
-0.488
1.397
1.139
0.859
0.255
-0.491
-0.663
-0.540
-0.045
0.356
0.142
0.202
0.259
0.282
0.118
0.057
-0.067
-0.285
-0.275
-0.129
-0.131
-0.063
-0.094
0.016
-0.099
0.073
0.017
-0.043
0.122
0.034
0.068
-0.104
-0.060
0.046
0.052
0.016
-0.069
-0.107
-0.198
-0.055
-0.424
-0.074
0.081
0.208
0.178
0.066
0.058
-0.111
-0.180
-0.089
-0.199
-0.071
-0.068
0.233
0.326
0.067
-0.031
-0.059
-0.139
-0.140
-0.041
0.027
0.018
0.020
-0.024
0.016
0.048
0.006
-0.029
0.071
0.180
0.096
-0.087
-0.001
-0.182
-0.106
0.050
-0.131
-0.221
0.046
-0.009
0.024
0.046
-0.081
-0.079
-0.223
-0.068
0.139
0.044
0.020
-0.123
-0.013
-0.036
-0.048
-0.157
0.007
0.148
0.112
0.063
-0.075
-0.110
-0.340
-0.075
0.177
0.174
0.019
0.118
-0.417
-0.448
0.080
0.160
0.228
-0.095
0.027
-0.008
-0.190
-0.040
0.100
0.121
0.045
0.083
-0.032
0.023
-0.061
-0.026
0.005
-0.199
-0.048
0.047
0.016
-0.016
0.057
-0.049
-0.041
-0.162
-0.299
-0.233
0.148
0.165
0.166
-0.069
-0.231
0.179
0.322
0.104
-0.208
-0.267
-0.220
0.186
0.125
-0.028
-0.078
-0.393
-0.128
0.184
0.181
0.028
0.008
-0.126
-0.063
-0.235
-0.033
0.165
-0.035
0.137
0.100
-0.073
-0.017
-0.227
0.068
0.012
-0.008
-0.097
-0.077
-0.298
-0.236
0.048
0.206
0.176
0.043
-0.199
-0.300
0.046
0.285
0.229
-0.021
-0.200
-0.162
-0.087
0.307
0.164
-0.173
-0.106
-0.220
-0.025
0.045
-0.017
-0.149
-0.073
0.274
0.187
0.050
0.178
-0.140
-0.207
-0.041
-0.071
0.116
0.122
0.050
-0.053
-0.120
-0.133
-0.098
-0.226
-0.088
-0.057
-0.034
-0.059
-0.110
-0.113
0.005
0.151
0.147
0.029
0.081
-0.092
-0.039
0.091
-0.126
-0.167
0.059
0.119
0.103
-0.055
-0.055
-0.117
-0.010
-0.130
0.122
-0.037
0.003
0.070
-0.090
-0.092
-0.076
-0.268
0.088
0.188
0.134
0.107
-0.168
-0.175
0.103
0.154
-0.089
-0.072
-0.220
-0.090
-0.043
0.233
-0.025
-0.021
-0.089
-0.096
-0.075
-0.293
-0.110
-0.051
0.344
0.263
-0.213
-0.173
-0.240
-0.261
0.030
0.111
0.017
-0.030
0.116
0.091
-0.145
0.025
0.147
0.076
0.009
-0.250
-0.166
-0.186
-0.109
0.114
0.034
-0.071
0.057
0.198
-0.077
-0.100
-0.116
0.036
0.001
-0.113
-0.135
0.054
0.034
0.064
0.098
0.000
-0.256
-0.163
-0.020
0.075
0.039
-0.036
0.018
-0.067
0.036
0.054
-0.146
-0.156
0.081
-0.044
-0.103
0.019
0.223
0.345
0.044
-0.075
-0.356
-0.220
-0.166
0.015
0.226
0.101
0.099
0.046
-0.009
-0.126
-0.045
0.010
-0.083
-0.212
-0.328
-0.181
0.076
0.347
0.330
0.022
-0.144
-0.163
-0.243
-0.178
0.193
0.111
0.207
-0.084
-0.147
-0.112
0.044
0.027
0.072
-0.183
0.115
0.018
-0.029
-0.103
-0.472
-0.454
0.119
0.430
0.203
-0.005
-0.395
0.100
0.217
-0.050
-0.208
0.067
-0.146
0.022
0.120
0.241
0.119
-0.078
-0.174
-0.191
-0.372
-0.107
-0.048
-0.125
0.008
0.183
0.280
-0.085
-0.230
-0.173
0.083
-0.172
-0.315
0.072
0.481
0.420
0.079
-0.060
-0.102
-0.112
-0.136
0.065
0.042
0.064
-0.168
-0.039
-0.108
-0.070
0.015
0.035
-0.081
-0.214
0.019
-0.131
-0.024
-0.148
-0.125
-0.161
0.034
0.267
0.231
0.011
-0.252
-0.180
0.095
0.132
0.026
-0.021
-0.059
-0.075
-0.019
0.032
-0.179
0.100
0.456
0.323
-0.227
-0.447
-0.013
0.075
-0.071
-0.092
0.080
0.081
-0.127
-0.072
0.117
0.143
-0.009
-0.147
-0.053
-0.067
-0.053
-0.141
-0.032
-0.216
-0.049
0.028
0.090
0.147
0.070
-0.049
0.011
0.097
-0.058
-0.044
-0.155
-0.090
-0.060
0.136
0.070
0.068
-0.210
-0.250
-0.067
-0.001
0.168
-0.011
0.093
-0.017
-0.056
-0.161
-0.009
-0.005
-0.004
0.053
0.060
-0.084
-0.055
-0.110
-0.022
0.213
-0.240
-0.027
-0.041
-0.092
-0.051
0.011
-0.023
0.115
-0.027
-0.023
-0.117
-0.082
-0.105
-0.235
-0.096
0.224
0.288
0.181
0.049
-0.036
-0.184
-0.262
-0.148
-0.066
0.108
0.089
-0.110
0.010
-0.034
-0.056
-0.025
0.139
0.091
-0.145
-0.222
-0.066
-0.155
-0.118
0.092
0.377
0.220
0.033
-0.270
-0.198
0.020
0.082
-0.362
-0.028
0.304
0.187
-0.022
-0.085
-0.091
-0.189
-0.031
0.012
-0.061
0.032
0.212
0.274
-0.311
-0.093
-0.313
0.089
-0.051
-0.025
-0.015
0.102
0.030
0.068
-0.093
-0.167
-0.166
-0.099
-0.080
-0.260
0.213
0.076
0.078
-0.000
-0.013
-0.003
-0.063
-0.012
0.032
0.057
-0.003
0.130
-0.011
-0.355
-0.055
-0.023
0.028
0.032
0.047
0.073
0.173
0.149
-0.187
-0.135
-0.143
-0.037
-0.127
0.004
0.037
0.167
0.079
-0.044
-0.059
-0.216
-0.021
-0.048
0.059
0.005
0.023
-0.200
-0.202
-0.216
0.019
0.292
0.330
0.107
-0.139
-0.573
-0.364
0.099
0.206
0.125
0.205
0.087
-0.037
-0.290
-0.122
-0.056
0.108
0.049
0.145
-0.107
-0.406
-0.086
0.187
0.009
-0.166
-0.024
0.172
0.102
-0.080
-0.065
-0.106
0.051
-0.165
-0.025
-0.021
0.097
0.264
0.162
0.016
-0.013
-0.139
-0.187
-0.140
-0.098
-0.095
-0.152
0.024
-0.164
-0.055
0.047
0.119
0.124
0.196
0.025
-0.069
-0.138
-0.164
0.062
0.114
0.015
-0.035
0.088
-0.036
0.054
0.109
-0.124
-0.120
-0.093
-0.209
-0.149
-0.079
0.074
-0.005
-0.050
0.093
-0.169
0.021
0.199
0.032
-0.032
-0.069
-0.032
-0.015
-0.158
-0.053
-0.039
-0.148
-0.018
0.170
-0.039
0.012
-0.099
-0.119
-0.082
0.010
0.026
0.049
-0.009
0.091
-0.103
-0.034
-0.057
-0.002
0.152
0.054
-0.018
-0.028
-0.065
-0.100
0.084
-0.058
-0.224
0.067
0.076
0.199
0.039
-0.108
-0.237
-0.039
0.001
-0.019
0.040
0.018
-0.036
0.157
-0.055
-0.096
-0.210
-0.160
0.003
-0.157
-0.075
-0.029
-0.170
0.044
0.299
0.201
-0.002
-0.067
-0.190
-0.099
-0.090
-0.050
0.352
-0.022
-0.218
-0.009
0.245
0.082
-0.076
-0.130
-0.147
-0.062
0.034
0.030
0.108
-0.057
-0.095
0.047
-0.142
0.027
-0.034
-0.105
-0.219
-0.262
-0.172
-0.021
0.340
0.460
0.234
0.016
-0.182
-0.213
-0.018
-0.017
-0.028
-0.198
0.059
0.107
0.321
0.249
0.066
0.032
-0.127
-0.307
-0.271
-0.377
-0.126
0.112
0.019
-0.095
-0.185
0.016
0.069
0.014
-0.025
-0.031
-0.150
0.042
0.060
-0.057
-0.053
-0.063
-0.103
-0.076
0.089
0.039
-0.023
-0.105
0.041
0.199
0.125
-0.007
-0.103
-0.154
-0.148
0.171
0.161
-0.162
-0.341
0.064
0.208
0.273
0.277
0.073
-0.033
-0.134
-0.155
-0.162
-0.155
-0.199
0.095
-0.037
0.070
0.059
-0.074
-0.037
-0.045
-0.129
-0.011
-0.094
0.025
0.034
0.039
-0.020
-0.129
0.077
-0.037
-0.079
0.052
0.040
0.017
-0.045
-0.022
-0.056
-0.009
0.025
-0.167
-0.052
-0.187
0.077
0.116
0.236
0.271
-0.034
-0.378
-0.263
-0.185
0.129
0.205
-0.052
0.018
-0.003
-0.123
-0.053
0.119
0.038
-0.019
-0.136
-0.078
0.013
-0.039
-0.000
0.091
-0.001
-0.137
0.043
0.072
-0.040
-0.151
-0.063
-0.159
-0.106
-0.063
-0.006
-0.005
0.507
0.206
-0.121
-0.232
-0.190
-0.215
-0.030
0.173
0.027
-0.112
0.143
-0.006
-0.107
-0.255
-0.179
0.096
0.061
-0.237
-0.317
-0.225
-0.393
0.051
0.483
0.417
-0.029
-0.150
-0.350
0.126
0.053
0.038
0.158
0.102
0.055
0.044
-0.085
0.091
-0.037
-0.096
0.023
0.054
-0.042
0.011
-0.204
-0.124
-0.166
-0.101
-0.036
0.019
0.074
-0.029
-0.048
-0.042
-0.086
-0.085
-0.168
-0.048
0.124
0.118
0.063
0.260
-0.008
-0.123
-0.065
-0.146
-0.231
-0.036
0.203
0.424
0.222
-0.009
-0.042
-0.024
-0.215
-0.130
0.031
-0.385
0.040
0.259
0.304
-0.018
-0.174
0.056
0.102
-0.011
-0.049
-0.059
-0.153
0.049
-0.444
-0.058
0.225
0.153
0.003
0.099
0.019
-0.157
-0.174
-0.057
-0.094
0.083
0.044
-0.028
0.062
0.058
-0.098
-0.068
-0.063
-0.046
-0.060
0.001
0.107
0.004
-0.043
-0.079
-0.071
-0.076
-0.157
-0.221
-0.037
0.007
0.075
0.305
0.228
0.206
0.100
-0.047
-0.188
-0.275
-0.070
0.014
0.165
0.028
-0.003
-0.020
-0.116
-0.068
-0.132
-0.133
0.100
0.200
-0.083
-0.194
-0.345
-0.318
0.164
0.284
0.205
0.326
-0.008
-0.118
-0.171
-0.077
-0.095
-0.052
0.014
0.033
-0.106
0.025
0.023
-0.157
-0.065
-0.119
-0.008
-0.066
-0.055
-0.093
-0.068
0.136
0.118
0.072
-0.146
-0.050
-0.031
-0.021
0.050
-0.021
0.061
0.015
-0.215
-0.131
0.228
0.349
0.213
-0.035
-0.202
-0.230
-0.074
-0.062
-0.045
0.240
0.008
0.019
0.079
-0.087
-0.016
0.058
-0.076
-0.057
-0.006
-0.203
0.004
-0.001
0.016
-0.044
-0.159
0.099
-0.039
0.035
0.042
0.043
-0.037
0.040
-0.218
-0.188
0.059
-0.073
-0.024
0.059
0.044
0.164
0.262
-0.146
-0.280
-0.238
-0.170
-0.084
-0.048
-0.002
0.096
0.233
0.075
-0.348
-0.393
0.086
0.378
0.101
0.012
-0.129
0.014
-0.147
-0.059
0.075
0.078
0.052
-0.053
-0.135
-0.156
0.086
0.256
-0.021
-0.256
-0.147
-0.257
-0.117
0.124
0.131
0.051
-0.006
-0.032
0.030
-0.135
-0.042
0.136
0.060
-0.130
-0.064
-0.086
0.048
-0.089
-0.069
-0.016
-0.051
0.078
0.107
0.106
-0.069
-0.238
-0.196
-0.105
0.138
0.057
0.072
-0.011
-0.067
0.086
0.179
0.007
-0.109
-0.188
-0.566
-0.082
0.262
0.446
0.077
-0.073
-0.015
-0.166
-0.140
-0.093
-0.071
0.079
0.161
0.156
0.100
0.013
-0.127
-0.213
0.015
0.012
0.082
0.007
-0.273
-0.194
-0.118
0.206
0.057
0.077
0.091
-0.009
-0.236
-0.138
-0.065
-0.030
0.017
0.024
0.116
-0.025
-0.087
-0.128
0.089
0.153
-0.121
-0.137
-0.079
-0.012
0.077
-0.089
-0.158
0.049
0.107
0.040
0.168
-0.065
-0.310
-0.009
0.140
0.282
-0.069
-0.162
-0.102
-0.050
-0.003
-0.135
-0.147
0.001
0.152
0.092
0.012
-0.126
-0.062
-0.141
-0.169
-0.084
-0.106
-0.176
-0.026
0.021
0.068
0.078
0.037
-0.231
-1.635
-1.127
1.838
1.424
0.694
0.180
-0.464
-0.744
-0.547
-0.195
0.150
0.292
0.502
0.294
0.319
-0.005
-0.063
-0.071
-0.006
0.032
-0.152
-0.183
-0.198
-0.209
-0.032
-0.022
0.200
0.259
0.090
-0.101
-0.149
0.062
-0.210
-0.200
-0.226
-0.246
0.201
0.133
0.233
-0.072
-0.338
-0.387
-0.103
0.257
0.229
0.052
-0.073
-0.104
-0.069
0.085
-0.193
-0.009
0.218
0.169
-0.054
0.008
0.061
0.162
-0.202
-0.014
0.039
0.084
0.050
0.006
-0.155
-0.070
-0.054
-0.074
-0.134
-0.421
0.158
0.254
0.296
0.096
0.043
-0.007
-0.054
-0.179
-0.230
-0.198
-0.036
0.079
0.120
0.178
0.101
-0.020
-0.168
-0.208
-0.368
-0.224
-0.004
-0.067
-0.191
-0.074
-0.057
-0.094
0.064
-0.016
-0.202
0.029
0.011
0.094
-0.068
-0.098
0.022
-0.175
0.068
-0.017
-0.011
-0.051
-0.189
0.170
0.100
-0.115
0.011
-0.010
-0.103
-0.008
-0.091
-0.327
-0.024
0.145
0.324
0.411
0.162
-0.263
-0.326
-0.272
0.057
0.175
-0.139
-0.204
0.011
0.285
0.276
0.074
-0.067
-0.166
-0.141
-0.131
-0.135
-0.049
0.161
-0.047
0.018
-0.071
-0.151
-0.081
0.001
-0.018
0.000
0.022
-0.068
-0.230
-0.121
-0.022
0.032
-0.003
0.054
0.060
0.086
0.079
-0.019
-0.080
-0.141
-0.172
-0.036
0.097
0.039
0.167
-0.372
-0.238
0.163
0.071
-0.199
0.077
-0.071
-0.039
0.176
0.176
0.073
-0.098
-0.148
-0.073
0.027
0.049
-0.021
0.089
0.003
-0.175
-0.100
-0.178
-0.086
-0.133
-0.189
-0.095
0.059
0.033
-0.140
-0.022
0.099
0.017
0.050
0.010
-0.184
-0.135
0.071
0.229
0.137
-0.163
-0.177
-0.267
0.167
0.111
0.025
-0.159
-0.281
-0.018
-0.041
0.075
0.184
-0.325
-0.168
0.030
0.096
0.036
0.066
0.153
0.145
0.087
-0.083
-0.185
-0.189
-0.145
0.006
0.160
0.105
-0.024
0.056
-0.024
-0.051
-0.173
-0.107
-0.167
0.171
-0.030
-0.277
-0.180
0.255
0.167
0.125
0.066
0.059
-0.063
0.004
-0.055
-0.099
-0.224
-0.020
0.276
0.062
-0.081
0.018
0.031
0.001
-0.070
-0.124
-0.146
-0.072
0.167
0.010
-0.076
0.071
-0.032
-0.060
-0.289
-0.075
0.093
0.082
0.101
-0.616
-0.451
0.429
0.396
0.019
-0.044
0.148
0.085
-0.098
-0.034
0.103
-0.019
0.047
-0.093
-0.051
0.060
-0.046
-0.010
0.020
-0.006
0.036
-0.144
-0.205
-0.141
-0.177
0.048
-0.058
-0.123
0.113
0.132
0.004
0.012
-0.115
-0.526
-0.103
0.229
0.319
0.040
-0.143
-2.518
0.483
1.525
1.215
0.580
0.057
-0.438
-0.460
-0.431
-0.169
-0.139
0.263
0.374
0.267
0.295
0.102
-0.170
-0.078
-0.200
-0.183
-0.344
-0.169
0.236
0.112
0.014
0.089
-0.026
0.126
0.131
0.164
-0.128
-0.155
-0.032
-0.128
-0.139
-0.071
0.083
0.015
-0.010
0.134
0.018
-0.225
-0.100
-0.066
0.118
0.034
0.077
0.141
0.061
0.135
-0.119
-0.131
-0.069
-0.118
0.087
-0.010
0.059
-0.065
0.023
0.077
0.024
-0.038
0.240
-0.003
-0.072
-0.097
-0.081
0.109
-0.006
0.036
0.095
-0.071
0.029
-0.215
-0.129
-0.100
-0.031
-0.247
-0.003
-0.051
0.012
0.112
-0.027
-0.086
-0.147
-0.025
-0.159
-0.116
-0.138
0.004
0.119
0.077
0.089
0.081
-0.088
-0.164
-0.160
-0.012
-0.131
-0.091
-0.082
0.027
0.018
0.063
-0.105
0.037
-0.005
-0.163
0.050
0.217
-0.076
0.060
-0.133
-0.211
0.068
-0.067
0.042
0.251
0.108
-0.071
-0.172
-0.036
0.234
-0.158
-0.155
-0.204
-0.109
-0.401
0.054
0.212
0.245
0.108
0.028
-0.093
-0.145
-0.168
0.069
0.177
-0.023
0.057
-0.001
-0.162
-0.197
-0.161
0.196
0.220
0.230
-0.007
-0.200
-0.214
-0.089
-0.089
0.002
0.061
0.005
0.001
0.064
0.067
-0.083
0.037
-0.145
-0.155
0.042
-0.017
0.035
-0.149
-0.036
-0.030
-0.298
-0.151
0.159
0.182
-0.036
0.122
-0.009
-0.208
-0.122
-0.031
-0.007
-0.149
-0.033
0.190
0.150
0.053
0.116
-0.143
-0.309
-0.078
0.249
-0.044
-0.016
-0.123
-0.061
-0.040
0.011
0.085
0.031
-0.120
-0.210
-0.030
0.012
-0.090
-0.124
-0.130
0.059
0.283
-0.046
-0.259
-0.112
0.108
0.022
-0.140
0.033
0.013
0.045
-0.085
-0.069
-0.003
0.026
0.041
-0.135
0.021
-0.027
0.013
-0.020
-0.064
-0.100
-0.102
-0.136
0.008
0.012
-0.283
-0.394
0.048
0.400
0.279
-0.033
-0.269
-0.065
0.111
0.161
0.040
0.100
-0.051
-0.119
0.003
0.035
0.120
0.091
0.137
-0.134
-0.132
0.003
-0.084
-0.139
-0.110
-0.252
-0.127
-0.164
0.045
0.195
0.170
0.013
-0.226
-0.263
-0.153
0.238
0.068
-0.077
-0.044
0.117
0.088
0.074
0.237
-0.069
-0.255
-0.215
0.133
0.314
-0.004
-0.164
-0.089
-0.171
-0.131
-0.087
0.060
0.100
0.034
-0.029
-0.237
-0.001
-0.349
-0.311
0.212
0.070
0.280
0.127
0.032
0.039
-0.056
-0.078
-0.105
-0.051
-0.120
-0.087
0.021
0.082
0.097
-0.120
0.037
0.025
-0.129
-0.128
-0.515
-0.192
0.242
0.405
0.127
-0.094
0.010
-0.068
-0.077
-0.144
0.123
0.071
-0.260
0.208
0.342
0.060
-0.183
-0.135
-0.194
-0.114
-0.194
-0.116
0.109
0.096
-0.040
-0.092
-0.097
-0.204
-0.038
-0.062
0.028
0.065
0.024
0.080
-0.058
0.025
-0.020
-0.032
0.037
0.039
0.165
0.013
-0.093
0.108
0.125
0.119
-0.078
-0.219
-0.177
-0.043
0.051
0.202
-0.086
-0.049
-0.087
0.058
0.250
0.021
-0.466
-0.532
0.003
0.495
0.220
-0.093
-0.441
0.069
0.043
0.024
0.413
0.020
0.044
0.026
-0.278
-0.114
0.026
-0.065
0.139
-0.014
0.030
-0.083
0.044
-0.011
-0.093
-0.288
-0.160
-0.004
-0.107
-0.081
0.187
0.159
0.117
0.076
-0.190
-0.090
0.260
0.158
-0.002
0.000
-0.091
0.046
-0.061
-0.019
0.060
-0.036
-0.128
0.061
0.042
-0.128
0.001
-0.018
-0.013
-0.106
-0.221
-0.059
-0.105
0.089
0.087
0.088
0.043
-0.099
-0.057
-0.109
0.063
-0.104
-0.124
-0.146
0.093
0.258
0.216
-0.068
-0.098
-0.132
-0.122
-0.062
-0.035
0.131
0.027
-0.168
-0.170
-0.144
-0.016
-0.104
0.089
0.079
0.066
-0.185
-0.016
0.036
-0.250
0.146
0.047
-0.120
-0.135
-0.079
-0.197
0.076
0.105
0.011
0.031
-0.179
-0.167
-0.107
0.032
0.010
0.073
0.025
-0.018
-0.225
0.084
0.178
0.107
-0.015
-0.057
0.218
0.149
-0.163
-0.150
-0.062
0.051
0.027
0.112
0.086
0.090
-0.036
-0.060
-0.125
-0.095
0.004
-0.082
-0.139
-0.025
-0.160
0.008
0.021
0.011
-0.100
-0.000
-0.032
-0.017
-0.151
-0.012
0.097
-0.054
-0.015
0.007
0.099
0.143
0.006
0.069
-0.076
-0.153
0.026
0.012
0.060
-0.169
-0.000
-0.021
0.035
0.217
0.149
-0.090
-0.074
-0.108
-0.122
0.084
-0.034
-0.016
-0.113
-0.038
0.013
-0.009
-0.124
-0.124
-0.030
0.182
0.069
-0.041
-0.054
-0.205
-0.071
-0.070
-0.007
0.189
0.209
0.076
-0.077
0.016
-0.031
-0.012
-0.113
-0.186
-0.077
-0.015
-0.110
-0.114
-0.181
-0.125
0.128
0.301
0.185
-0.168
-0.337
-0.279
-0.131
-0.046
-0.053
0.077
0.012
0.018
-0.036
0.007
0.054
-0.381
-0.218
0.138
0.186
0.013
-0.192
0.133
0.098
0.052
-0.173
-0.071
0.040
-0.005
-0.001
0.278
0.171
-0.015
-0.073
0.004
0.072
0.019
-0.163
-0.311
-0.019
0.207
0.038
-0.259
-0.188
-0.075
-0.059
0.012
-0.005
0.090
-0.038
-0.097
-0.187
-0.142
0.075
-0.153
0.067
0.082
-0.153
0.172
0.032
-0.026
0.046
-0.010
0.030
-0.056
0.037
-0.165
0.027
-0.049
0.030
0.043
0.003
0.008
0.186
0.006
-0.060
-0.080
-0.238
-0.007
0.038
0.163
-0.020
-0.027
0.015
0.020
0.069
-0.032
-0.439
-0.310
0.238
0.175
0.223
0.139
0.084
-0.195
-0.245
-0.296
-0.142
0.159
0.203
0.016
0.061
-0.112
-0.170
0.015
-0.129
-0.105
-0.145
-0.102
-0.126
-0.054
-0.147
-0.146
-0.055
0.213
0.216
-0.003
-0.189
-0.159
0.018
-0.074
0.070
0.170
0.258
0.002
-0.212
-0.094
-0.003
-0.051
-0.195
-0.051
-0.016
0.074
0.224
-0.056
-0.077
-0.187
-0.169
-0.018
-0.005
-0.001
-0.077
0.010
0.158
0.198
-0.088
-0.034
-0.183
-0.191
-0.071
-0.058
0.096
0.157
0.075
0.141
-0.035
-0.266
-0.209
-0.117
0.115
0.048
0.101
-0.016
-0.042
0.061
-0.028
-0.075
-0.032
-0.156
-0.079
-0.087
-0.148
-0.058
-0.016
0.124
0.059
-0.330
0.059
-0.175
0.055
0.057
0.290
0.008
-0.193
-0.163
0.082
0.125
0.059
-0.035
-0.110
-0.099
0.041
0.141
0.003
-0.038
-0.035
-0.126
-0.135
-0.303
-0.068
0.350
0.259
-0.033
-0.193
0.003
-0.138
-0.166
0.117
-0.035
-0.014
-0.153
0.066
0.251
0.032
-0.129
-0.214
-0.201
-0.058
-0.035
-0.002
-0.026
-0.144
0.061
0.158
-0.028
0.109
-0.063
0.008
-0.194
-0.042
-0.004
-0.079
-0.466
-0.244
0.268
0.343
0.051
-0.166
0.032
0.059
-0.200
-0.061
-0.134
0.002
0.017
0.172
-0.036
-0.102
-0.027
0.014
0.105
-0.074
-0.004
-0.245
-0.317
-0.276
0.109
0.218
0.009
0.015
-0.006
-0.030
-0.189
-0.210
0.030
0.300
0.343
-0.070
-0.129
-0.153
-0.064
0.080
0.063
0.192
0.111
-0.213
-0.120
-0.105
0.014
0.038
-0.107
0.018
0.141
0.205
-0.015
0.012
-0.196
-0.305
0.002
0.138
0.111
-0.124
-0.053
0.141
0.023
-0.023
-0.163
-0.106
-0.053
0.046
0.032
-0.210
-0.226
-0.001
0.026
0.151
-0.009
-0.042
-0.014
-0.067
0.021
0.074
0.052
-0.046
0.043
-0.118
0.029
0.077
0.016
0.092
-0.034
-0.069
-0.017
-0.022
-0.066
-0.148
-0.208
0.054
0.006
-0.009
-0.030
0.100
-0.012
-0.148
0.006
0.129
0.014
0.007
-0.043
-0.108
-0.075
-0.090
-0.054
-0.017
-0.011
0.028
-0.022
-0.146
-0.274
0.001
0.302
-0.003
-0.139
-0.270
0.100
0.125
-0.085
-0.235
-0.098
0.041
0.257
0.209
0.139
-0.222
-0.411
-0.338
-0.194
-0.022
0.245
0.298
-0.003
-0.092
-0.151
-0.085
-0.213
-0.230
0.051
-0.002
-0.055
-0.000
0.157
-0.031
0.005
0.174
0.007
-0.058
-0.132
-0.056
0.057
-0.028
-0.018
0.036
0.072
-0.045
-0.257
-0.002
0.109
-0.042
-0.006
-0.105
-0.037
0.039
0.001
-0.158
-0.168
0.015
0.085
-0.081
-0.045
0.123
0.170
0.041
-0.079
-0.038
-0.096
-0.186
-0.021
-0.034
0.008
-0.080
-0.102
0.272
0.259
-0.073
-0.253
-0.059
-0.124
-0.117
-0.062
-0.059
-0.023
0.144
0.189
0.045
-0.349
-0.307
0.011
0.308
0.149
-0.164
-0.218
-0.189
0.073
-0.026
-0.008
-0.058
0.141
0.141
0.101
-0.137
-0.180
-0.335
-0.059
0.129
0.247
0.229
0.037
-0.122
-0.239
-0.148
-0.030
-0.081
-0.027
0.047
0.034
-0.462
-0.179
0.119
0.304
0.301
-0.108
-0.088
0.104
-0.198
-0.223
-0.034
0.151
-0.010
0.045
0.121
0.080
0.126
-0.260
-0.221
-0.020
0.078
-0.224
-0.010
0.098
0.189
-0.011
-0.014
-0.278
-0.145
0.043
0.058
0.021
-0.010
-0.034
-0.048
0.078
-0.166
-0.285
-0.170
0.103
0.190
0.085
-0.039
-0.034
0.049
0.008
-0.036
-0.118
0.048
0.105
0.068
0.002
-0.090
-0.003
-0.085
-0.118
-0.014
-0.054
0.034
0.216
0.037
-0.212
-0.185
0.076
0.115
-0.097
-0.192
-0.027
0.155
-0.169
0.108
0.019
-0.235
-0.135
0.008
0.047
-0.073
-0.088
0.012
-0.170
-0.155
0.020
0.032
-0.091
-0.066
-0.081
0.111
0.165
-0.027
0.003
-0.086
-0.101
-0.128
-0.032
0.051
0.060
-0.015
-0.031
0.083
0.046
-0.052
-2.557
0.612
1.449
1.097
0.372
-0.039
-0.442
-0.593
-0.309
-0.140
0.006
0.213
0.379
0.166
0.011
-0.084
0.091
0.126
-0.107
-0.328
-0.187
-0.211
0.023
-0.062
-0.026
-0.124
0.074
-0.001
0.127
0.206
0.147
0.050
-0.053
-0.143
-0.204
-0.167
0.035
-0.193
-0.149
0.053
0.131
0.189
0.054
-0.058
-0.071
-0.060
-0.183
-0.090
-0.100
-0.519
0.141
0.807
0.645
0.064
-0.278
-0.142
-0.201
-0.163
-0.102
0.237
0.342
0.247
-0.018
-0.240
-0.087
0.039
0.148
0.100
-0.247
-0.403
-0.179
-0.074
0.219
0.192
-0.097
-0.039
-0.148
-0.143
-0.110
0.048
0.101
-0.070
-0.152
-0.166
-0.081
-0.059
0.022
-0.053
-0.062
-0.080
0.000
0.036
-0.071
-0.123
0.071
0.210
0.179
0.089
-0.155
-0.179
0.102
0.028
0.054
0.104
-0.002
-0.141
-0.213
0.024
-0.042
-0.016
-0.042
-0.093
0.046
-0.125
-0.152
0.098
0.111
-0.002
-0.026
-0.014
-0.115
0.011
0.333
-0.113
-0.110
-0.014
-0.014
-0.001
-0.166
-0.033
-0.105
-0.161
0.139
0.257
0.041
-0.151
-0.251
-0.112
0.076
0.062
-0.105
-0.192
0.182
0.293
0.233
0.120
-0.067
-0.094
-0.244
-0.310
0.077
0.063
-0.030
0.058
-0.019
-0.096
-0.092
0.045
-0.038
-0.146
-0.059
-0.043
-0.062
0.020
-0.103
-0.081
-0.163
-0.199
0.088
0.334
0.123
0.131
0.090
0.074
-0.072
-0.160
-0.155
0.020
0.131
0.124
-0.039
-0.035
-0.065
-0.021
-0.022
-0.157
-0.183
-0.184
-0.061
-0.082
0.075
-0.066
-0.135
0.051
-0.101
0.005
0.192
-0.121
-0.257
-0.007
0.314
0.079
-0.168
-0.045
-0.156
0.010
-0.008
-0.235
-0.116
-0.037
0.358
0.284
-0.129
-0.192
-0.254
-0.263
0.007
0.259
0.140
-0.059
0.068
0.073
-0.009
-0.065
-0.265
-0.214
-0.015
0.231
0.163
-0.115
-0.029
-0.017
-0.093
-0.012
-0.002
-0.008
-0.013
-0.126
0.124
-0.032
-0.086
-0.079
-0.124
-0.059
-0.039
-0.039
-0.014
0.068
-0.290
-0.443
-0.140
0.231
0.291
0.040
-0.229
0.101
0.037
-0.042
-0.002
-0.007
-0.077
-0.052
0.096
0.036
0.043
0.011
-0.067
-0.005
-0.050
-0.016
0.141
-0.018
-0.114
-0.112
-0.058
-0.131
0.059
-0.061
-0.007
-0.264
0.058
0.106
0.113
0.019
0.040
0.280
-0.088
-0.245
-0.310
-0.098
-0.008
0.073
0.077
0.077
-0.019
-0.164
-0.060
-0.049
0.114
-0.019
-0.083
-0.264
-0.056
-0.142
-0.039
-0.041
-0.167
-0.017
0.208
0.140
-0.028
-0.156
0.133
0.213
-0.109
-0.138
-0.075
0.016
0.060
-0.187
0.221
0.182
0.163
-0.058
-0.666
-0.439
0.256
0.188
-0.015
-0.012
0.162
0.078
-0.156
-0.059
-0.041
-0.083
0.052
-0.023
0.010
0.081
0.039
-0.146
-0.063
0.007
0.075
0.015
0.066
-0.129
-0.118
-0.068
-0.097
-0.031
-0.081
-0.106
0.076
0.092
0.142
0.214
-0.144
-0.117
-0.098
-0.049
-0.244
-0.069
0.222
0.168
-0.264
0.074
0.107
0.003
-0.159
-0.099
-0.003
0.054
0.017
0.025
0.004
-0.251
-0.148
-0.044
0.242
0.240
-0.155
-0.030
-0.080
-0.233
0.030
0.190
0.025
-0.021
0.007
0.107
0.076
0.016
-0.137
-0.214
0.097
-0.016
-0.097
-0.011
-0.122
-0.101
-0.035
0.017
-0.164
-0.151
0.081
0.003
-0.003
0.075
-0.024
0.012
0.059
-0.394
-0.175
0.154
0.207
0.211
0.095
-0.027
-0.231
-0.128
-0.016
0.062
-0.109
0.035
-0.170
0.032
-0.021
0.044
0.110
0.002
-0.293
0.046
-0.013
0.005
0.020
-0.298
-0.206
-0.026
0.028
0.051
-0.032
-0.011
0.088
-0.041
0.010
-0.041
-0.030
-0.004
0.005
-0.124
-0.322
0.007
0.097
0.189
0.126
-0.114
-0.209
-0.154
0.049
0.046
0.028
0.014
0.244
0.013
-0.187
-0.168
0.077
0.223
-0.015
-0.154
-0.046
0.017
-0.044
-0.165
0.055
0.020
-0.106
-0.229
-0.019
0.194
0.007
0.085
0.075
-0.176
-0.193
-0.118
-0.053
0.028
0.165
0.098
-0.090
-0.066
-0.017
-0.036
-0.034
-0.164
0.114
0.056
-0.010
-0.138
0.047
0.108
0.175
-0.004
-0.212
0.034
0.035
-0.042
0.097
0.124
0.234
-0.499
-0.336
0.165
0.066
0.150
-0.016
-0.097
-0.061
-0.199
-0.133
0.091
0.168
0.043
0.130
0.109
-0.121
-0.148
-0.162
0.101
-0.037
-0.122
-0.150
0.047
0.102
0.012
-0.037
-0.151
-0.144
0.108
0.045
-0.263
-0.411
-0.249
0.321
0.612
0.161
-0.307
0.041
0.078
-0.107
-0.052
-0.022
0.162
0.035
-0.005
-0.007
-0.097
-0.062
0.013
0.037
-0.132
-0.149
-0.142
-0.175
0.326
-0.115
-0.074
0.009
-0.041
-0.308
0.155
0.109
-0.035
-0.030
0.012
0.014
0.039
-0.042
-0.311
-0.221
0.128
0.172
0.062
0.021
-0.087
-0.160
-0.127
-0.018
0.161
0.151
0.131
-0.082
-0.058
-0.128
-0.047
0.026
0.201
-0.080
-0.081
-0.005
-0.102
-0.084
-0.116
0.098
0.006
-0.004
0.035
-0.183
-0.226
-0.105
0.138
-0.111
0.009
0.206
0.111
-0.127
-0.195
-0.213
0.003
-0.055
-0.057
-0.027
-0.059
0.022
-0.016
-0.074
0.070
-0.024
-0.184
0.100
0.198
-0.031
0.007
-0.186
0.085
0.164
0.076
0.033
0.136
0.060
0.072
-0.053
-0.576
-0.293
0.206
0.354
0.235
-0.110
-0.074
-0.233
-0.225
-0.136
-0.056
-0.122
0.134
-0.161
0.090
0.323
0.083
-0.252
-0.285
-0.098
-0.199
-0.019
-0.034
0.085
0.090
0.055
-0.004
-0.069
-0.074
0.025
-0.038
0.002
-0.118
-0.143
-0.191
0.089
0.164
0.196
-0.035
0.063
0.030
0.014
-0.212
-0.157
0.109
0.093
0.079
0.052
0.092
-0.021
-0.177
-0.146
-0.218
0.002
0.027
0.015
-0.053
-0.152
-0.043
0.368
0.280
-0.373
-0.346
0.117
0.207
0.018
-0.149
-0.129
0.100
0.271
0.172
0.048
-0.146
-0.224
-0.102
-0.136
0.009
-0.015
0.076
-0.028
-0.198
-0.114
-0.002
0.009
0.046
0.109
-0.049
-0.041
-0.083
-0.133
-0.095
0.065
0.198
0.084
-0.075
-0.096
0.013
-0.101
-0.018
0.067
-0.064
-0.096
0.143
-0.011
-0.344
-0.329
-0.107
0.574
0.482
-0.025
-0.268
-0.066
-0.176
-0.247
-0.134
0.096
0.213
0.117
0.233
0.130
0.167
-0.018
-0.190
-0.220
-0.016
-0.028
-0.091
0.133
-0.106
-0.056
-0.066
0.043
0.060
-0.129
-0.143
-0.091
0.036
-0.276
-0.199
0.311
-0.228
-0.216
-0.048
-0.024
-0.007
0.135
0.286
0.120
-0.025
-0.157
-0.126
-0.083
0.045
0.016
0.026
0.026
-0.163
-0.020
0.105
0.109
-0.033
-0.092
-0.055
-0.145
-0.182
0.047
0.132
0.011
-0.068
0.026
-0.195
-0.080
0.118
0.019
-0.005
-0.036
-0.108
0.030
0.017
-0.175
-0.095
0.104
-0.014
-0.123
0.044
-0.016
-0.113
0.008
0.282
-0.043
-0.099
-0.078
-0.194
0.110
0.144
0.070
0.034
-0.137
-0.198
-0.099
-0.059
0.106
0.092
-0.007
-0.080
-0.260
-0.092
0.016
0.026
0.024
-0.146
0.014
-0.044
0.035
-0.047
-0.104
0.058
0.049
-0.130
-0.057
-0.108
-0.021
0.038
0.006
0.092
-0.172
-0.048
0.190
0.083
-0.090
-0.122
-0.152
-0.053
0.057
-0.127
0.078
-0.089
0.030
0.034
0.050
-0.030
0.067
-0.039
-0.098
-0.330
-0.350
0.163
0.390
-0.023
0.117
-0.047
-0.037
-0.214
-0.088
0.003
0.008
-0.016
0.017
0.212
0.037
0.055
-0.099
-0.299
-0.142
-0.003
-0.021
0.113
-0.117
-0.050
-0.049
-0.061
-0.013
-0.162
-0.049
-0.053
-0.180
0.106
0.398
0.126
-0.041
-0.246
-0.179
-0.045
-0.053
0.020
-0.004
-0.471
-0.203
0.126
0.279
0.212
-0.023
-0.076
0.138
0.099
-0.261
-0.046
-0.064
0.004
0.104
0.104
0.040
0.018
0.055
-0.093
-0.278
-0.169
0.032
0.164
0.015
-0.054
-0.240
-0.389
0.215
0.244
-0.071
-0.216
-0.092
0.260
0.148
0.092
-0.123
-0.125
-0.229
-0.068
0.068
0.043
0.120
0.040
-0.080
-0.178
-0.323
0.103
0.110
-0.035
-0.000
-0.144
0.004
0.060
0.055
-0.044
-0.091
-0.051
-0.093
0.040
-0.043
-0.047
-0.035
0.214
0.022
-0.130
-0.016
0.046
0.088
0.037
0.087
-0.068
-0.183
-0.050
0.047
-0.059
0.059
0.120
0.159
0.003
-0.241
-0.458
-0.025
0.286
0.302
0.004
-0.136
-0.010
0.025
-0.211
-0.044
-0.152
-0.062
0.024
0.003
0.071
0.049
0.080
-0.157
-0.043
-0.038
-0.135
-0.322
-0.062
0.176
0.253
0.158
0.067
-0.037
-0.141
-0.116
-0.058
-0.004
0.060
-0.031
-0.112
0.197
0.221
-0.075
-0.035
-0.077
-0.202
0.050
0.044
-0.102
-0.297
-0.128
-0.148
0.036
-0.089
-0.011
0.222
0.324
0.159
-0.213
-0.192
-0.145
-0.095
-0.032
0.052
0.196
0.019
-0.401
-0.194
0.297
0.185
-0.071
-0.019
-0.011
-0.167
-0.253
-0.035
0.014
-0.010
-0.075
-0.036
-0.029
0.050
0.166
-0.041
-0.062
-0.199
-0.212
0.177
-0.043
-0.162
-0.238
-0.050
-0.083
-0.062
-0.022
0.133
0.283
-0.091
-0.216
-0.092
0.065
0.366
0.136
0.023
-0.223
-0.142
-0.113
0.085
0.024
-0.026
-0.107
-0.002
0.039
0.037
0.020
-0.161
0.055
-0.158
-0.034
0.085
0.110
-0.089
-0.047
-0.039
-0.005
-0.043
-0.071
-0.096
-0.091
0.202
0.231
-0.110
-0.274
-0.136
-0.116
-0.090
0.174
0.413
0.098
0.013
-0.157
-0.317
-0.190
0.020
0.259
0.307
-0.017
0.029
-0.245
-0.215
-0.079
0.118
-0.090
-0.013
0.083
-0.072
-0.026
-0.085
-0.096
0.056
0.046
-0.082
-0.080
-0.059
0.013
0.062
0.043
-0.083
-0.113
-0.014
-0.063
-0.197
-0.105
0.106
0.237
0.021
-0.003
-0.153
-0.003
-0.163
-0.158
-0.094
0.073
0.004
0.163
0.297
-0.017
-0.168
-0.312
-0.183
-0.016
0.143
-0.061
0.094
0.108
0.038
-0.163
-0.136
-0.030
0.056
0.006
-0.047
-0.138
0.062
-0.020
0.034
-0.073
-0.051
-0.105
0.125
0.226
0.012
-0.189
-0.105
-0.120
-0.122
0.058
0.077
0.045
-0.026
-0.024
-0.039
-0.024
-0.053
-0.019
-0.057
0.002
-0.173
-0.191
-0.065
0.211
0.002
0.195
0.068
-0.060
-0.112
0.024
0.014
-0.051
0.056
0.085
0.097
-0.854
-2.271
1.421
1.271
0.933
0.407
-0.184
-0.570
-0.689
-0.608
-0.103
0.188
0.275
0.505
0.547
0.290
0.006
-0.198
-0.240
-0.258
-0.232
-0.063
-0.005
-0.043
-0.021
0.005
0.046
0.016
0.029
-0.033
-0.043
-0.051
-0.021
0.044
0.189
-0.087
-0.313
-0.269
0.015
0.084
-0.046
-0.116
0.014
-0.095
-0.007
0.024
-0.067
-0.070
-0.027
-0.018
-0.047
-0.202
0.088
0.234
0.270
-0.177
-0.195
0.000
0.024
0.206
0.022
0.001
0.033
-0.080
-0.049
0.050
0.194
0.079
-0.136
-0.071
-0.119
-0.072
-0.062
-0.148
-0.139
0.098
-0.688
-2.160
1.568
1.424
0.775
0.213
-0.328
-0.541
-0.557
-0.237
0.031
0.308
0.334
0.365
0.379
-0.009
-0.079
-0.021
-0.158
-0.357
-0.177
-0.217
-0.178
-0.079
-0.202
0.025
0.131
-0.080
-0.016
-0.077
0.063
-0.081
0.019
0.080
0.024
-0.097
-0.132
-0.081
0.084
-0.033
0.015
0.080
-0.147
-0.097
-0.065
0.083
0.079
-0.122
-0.031
-0.168
-0.072
0.286
0.183
-0.084
0.328
0.084
-0.250
-0.447
-0.172
0.233
0.072
0.296
0.153
-0.044
-0.019
-0.020
0.021
-0.160
-0.128
-0.104
-0.137
-0.036
0.090
0.036
0.041
-0.045
-0.254
-0.179
0.046
0.024
-0.086
-0.004
-0.091
-0.135
-0.111
0.077
0.190
0.083
-0.347
-2.815
1.215
1.386
1.009
0.466
-0.610
-0.809
-0.580
0.065
0.302
-0.016
0.242
0.394
0.281
0.102
0.036
-0.124
-0.120
-0.011
0.004
0.021
-0.212
-0.130
-0.004
-0.045
-0.134
-0.115
0.119
0.039
-0.037
-0.137
-0.010
0.006
-0.079
-0.014
-0.103
-0.126
0.089
-0.084
0.029
-0.026
0.003
-0.020
-0.179
-0.057
-0.034
0.062
-0.012
0.034
0.076
0.237
-0.055
0.171
0.092
0.073
-0.091
-0.036
0.061
0.052
0.072
-0.081
-0.051
0.018
-0.125
-0.046
-0.008
-0.076
-0.093
-0.061
-0.007
-0.048
-0.216
-0.043
-2.564
0.658
1.425
1.028
0.343
0.212
-0.247
-0.468
-0.569
-0.252
0.120
0.276
0.295
0.347
0.233
0.136
-0.264
-3.022
0.899
1.164
0.829
0.410
-0.324
-0.634
-0.738
-0.345
-0.067
-0.052
0.308
0.322
0.505
0.389
-0.039
-0.082
-0.055
0.018
-0.297
-0.153
-0.181
-0.008
0.006
-0.054
0.066
0.162
0.011
-0.100
0.171
0.116
0.011
0.049
-0.017
-0.044
-0.497
-0.179
0.016
0.223
0.153
-0.149
0.011
0.142
0.049
-0.084
-0.206
0.253
0.111
0.040
0.111
-0.035
-0.044
0.036
0.312
0.223
-0.164
-0.181
-0.211
-0.167
0.158
0.060
-0.044
-0.187
-0.103
-0.024
0.163
0.268
-0.036
-0.395
-0.289
-0.082
0.344
-0.018
-0.013
0.139
-0.018
-0.327
-0.179
-0.138
0.053
0.258
0.121
0.013
-0.045
-0.250
-0.159
-0.027
-0.042
0.051
-0.065
-0.105
0.042
0.171
-0.051
-0.050
-0.054
-0.099
-0.092
0.102
-0.038
-0.026
0.032
-0.047
-0.153
-0.096
0.090
0.229
0.020
-0.106
-0.103
-0.016
-0.023
-0.122
-0.103
-0.104
0.069
0.142
-0.070
-0.009
-0.078
-0.109
0.071
0.065
0.037
-0.124
-0.022
-0.183
-0.071
0.029
-0.088
-0.054
0.024
0.023
-0.098
-0.037
-0.080
-0.045
-0.145
-0.161
-0.009
0.396
0.134
-0.183
-0.018
0.040
0.043
-0.060
-0.201
0.041
0.275
0.088
-0.023
0.017
-0.031
-0.186
-0.001
0.167
0.093
0.039
-0.026
-0.185
-0.047
0.001
-0.052
-0.140
-0.183
0.136
0.142
0.131
-0.015
-0.224
-0.139
-0.243
-0.093
-0.056
0.111
0.067
-0.009
0.099
-0.041
-0.093
0.143
-0.123
-0.046
0.004
-0.002
-0.029
-0.136
0.086
0.060
-0.073
-0.039
-0.141
-0.154
0.024
-0.029
0.069
0.064
-0.154
0.001
-0.021
-0.083
0.058
0.053
0.037
-0.106
-0.035
-0.002
0.111
0.050
-0.140
-0.034
-0.038
0.030
0.125
0.016
0.025
0.011
-0.123
-0.143
-0.172
-0.024
0.164
0.039
0.072
-0.038
-0.149
-0.252
0.008
-0.108
-0.088
-0.088
0.024
0.007
0.109
0.077
-0.247
-0.134
0.161
-0.179
0.027
0.211
0.116
-0.025
-0.055
0.003
-0.076
-0.022
-0.106
0.395
0.111
-0.103
-0.106
-0.109
-0.036
-0.121
-0.041
0.079
0.062
0.113
0.034
-0.066
-0.044
-0.125
-0.183
-2.705
1.199
1.379
0.684
0.252
0.163
-0.303
-0.607
-0.577
0.014
0.417
0.221
0.238
0.131
0.163
0.014
0.106
0.110
-0.076
-0.150
-0.030
-0.020
-0.198
-0.288
-0.173
-0.012
0.134
0.136
-0.010
-0.132
-0.079
0.136
0.048
-0.097
-0.168
-0.199
-0.172
-0.068
-0.054
-0.045
-0.039
-0.035
-0.043
-0.012
-0.084
0.079
-0.086
-0.151
-0.062
0.327
0.190
0.110
0.028
-0.060
-0.093
-0.006
0.025
-0.066
0.195
-0.123
0.010
-0.086
0.131
0.076
-0.112
-0.034
-0.113
-0.017
0.251
0.084
-0.138
-0.182
-0.295
-0.075
0.343
0.236
0.051
-0.149
-0.175
-0.126
-0.152
-0.209
-0.112
0.002
0.100
0.157
-0.114
-0.008
-0.061
-0.127
-0.113
-0.074
0.038
-0.112
-0.153
0.107
0.015
0.005
-0.096
0.032
-0.033
-0.020
-0.119
-0.201
0.128
0.133
0.020
-0.269
-0.015
0.073
0.081
0.056
-0.203
-0.133
-0.077
0.015
-0.163
-0.128
0.205
0.132
0.130
-0.177
-0.086
-0.008
-0.031
-0.030
-0.002
0.179
0.011
-0.205
-0.077
-0.866
-2.277
1.721
1.428
0.666
0.153
-0.452
-0.543
-2.523
-0.855
1.709
1.927
1.032
0.206
-0.380
-0.814
-0.760
-0.387
-0.033
-0.255
-2.293
1.277
1.055
0.724
0.333
-0.427
-0.687
-0.462
-0.064
-0.161
-0.019
0.382
0.481
0.589
0.487
0.320
0.071
-0.080
-0.100
-0.017
-0.046
-0.066
-0.085
-0.005
0.068
0.075
-0.062
-0.010
0.008
0.031
-0.143
0.049
0.034
-0.289
-0.490
-0.022
0.309
0.378
0.119
-0.186
0.001
0.088
-0.133
0.053
-0.066
-0.034
0.014
0.190
0.097
0.030
0.048
-0.067
-0.105
-0.005
-0.179
0.000
0.062
0.013
0.031
0.034
-0.035
-0.078
0.103
0.174
0.013
0.240
0.022
0.091
0.018
0.067
-0.039
-0.241
0.140
0.468
0.342
-0.055
-0.162
-0.225
-0.175
-0.149
-0.092
-2.591
0.520
1.636
1.096
0.530
-0.112
-0.679
-0.715
-0.544
-0.197
0.014
0.260
0.199
0.209
0.272
0.032
-0.059
-0.264
-0.241
-0.301
-0.181
0.114
0.095
-0.048
-0.128
-0.205
-0.210
-0.208
0.025
0.147
0.077
-0.064
0.069
-0.024
-0.183
-0.249
-0.062
0.057
0.015
0.104
0.163
-0.076
-0.207
-0.036
-0.025
0.083
0.162
0.283
0.046
0.050
0.111
0.050
-0.091
-0.143
-0.034
-0.000
-0.031
0.031
0.088
-0.036
0.016
0.026
0.079
0.000
0.065
0.090
-0.014
-0.225
-0.054
-0.007
-0.087
-0.024
-0.095
-0.058
-0.090
0.146
0.168
-0.062
-0.211
-0.118
0.065
-0.048
-0.000
-0.059
-0.143
0.127
0.137
-0.236
-0.206
0.008
-0.035
0.027
-0.256
-0.237
0.041
0.096
0.078
-0.056
-0.104
-0.148
-0.082
-0.203
-0.330
-0.184
0.120
0.186
0.169
0.205
0.188
0.079
-0.026
-0.218
-0.293
0.132
0.179
0.154
0.009
-0.057
-0.045
0.152
0.220
-0.029
-0.271
-2.832
1.236
1.038
0.640
0.251
-0.158
-0.420
-0.554
-0.342
-0.082
0.160
0.343
0.261
0.225
-0.002
-0.380
-0.144
0.106
0.163
-0.015
-0.084
-0.025
-0.174
-0.262
-0.293
-0.061
0.153
0.205
0.108
-0.036
0.344
0.362
-0.015
-0.090
-0.140
-0.195
-0.089
-0.209
-0.261
0.045
0.511
0.293
-0.080
-0.300
-0.211
-0.123
0.016
-0.002
-0.003
0.029
0.018
0.140
0.013
-0.081
-0.076
0.052
0.171
0.151
0.095
0.003
-0.098
0.049
0.056
0.160
0.000
0.116
0.026
-0.211
-0.007
0.043
-0.232
-0.035
0.028
0.272
0.218
-0.249
-0.375
-0.272
-0.035
0.341
0.285
-0.139
-0.226
-0.269
-0.144
0.028
0.032
-0.040
-0.029
-0.029
-0.105
-0.268
-0.120
0.120
-0.001
-0.036
0.096
-0.030
-0.258
-0.207
-0.116
0.167
0.115
-0.003
-0.072
-0.017
0.135
0.058
-0.121
-0.039
-0.047
0.020
-0.093
-0.057
-0.039
0.107
0.194
-0.007
-0.128
-0.120
0.006
-0.074
-0.153
-0.065
-0.033
-0.195
0.270
0.294
0.004
-0.249
-0.189
0.045
0.024
0.000
0.020
0.114
0.094
-0.097
-0.133
-0.035
-0.120
-0.014
-0.083
-0.167
0.002
0.040
0.028
0.114
0.099
-0.034
-0.024
-0.162
-0.096
-0.060
-0.046
0.056
0.048
-0.204
-0.035
0.157
0.031
-0.071
-0.061
-0.198
-0.172
-0.054
0.097
0.050
0.008
-0.115
0.196
0.167
-0.227
-0.192
0.084
0.220
0.035
-0.042
-0.201
0.054
-0.044
-0.069
-0.097
-0.116
-0.019
0.050
-0.037
0.052
-0.074
-0.169
-0.242
-0.109
0.071
0.069
0.124
-0.006
-0.043
-0.177
0.035
0.053
-0.161
0.008
-0.008
0.012
0.064
0.089
0.061
0.060
-0.235
-0.176
0.060
-0.185
-0.324
0.093
0.202
0.267
0.057
-0.013
-0.078
-0.009
-0.085
-0.109
-0.065
0.072
0.074
0.032
0.175
0.159
-0.021
-0.203
-0.137
-0.155
-0.288
-0.149
0.047
0.030
-0.023
0.019
0.007
0.165
-0.097
-0.108
-0.134
-0.131
0.037
0.108
0.053
0.213
0.267
0.049
-0.074
-0.080
-0.114
-0.070
-0.082
-0.063
-0.021
-0.153
0.107
0.331
0.227
-0.173
-0.252
-0.218
-0.051
-0.068
-0.040
-0.012
-0.031
0.178
-0.142
0.079
0.177
-0.130
-0.185
-0.097
-0.072
0.214
-0.011
-0.237
-0.042
-0.017
0.171
0.023
-0.009
-0.367
0.029
0.296
0.024
-0.084
-0.159
-0.116
-0.156
-0.091
-0.100
0.047
0.220
0.088
-0.073
-0.076
-0.078
-0.074
0.048
0.032
-0.061
-0.028
-2.509
0.466
1.593
1.141
0.540
-1.325
-2.049
1.242
0.796
0.135
0.041
-0.247
-0.365
-0.444
-0.064
-0.127
0.142
0.130
0.110
0.102
0.034
-0.054
-0.080
-0.133
-0.117
0.024
0.071
0.124
0.270
0.434
0.120
0.400
0.415
0.228
0.084
-0.138
-0.052
-0.083
-0.155
-0.045
-0.041
-0.043
-0.011
-0.168
-0.168
-0.087
-0.208
-0.077
-0.008
-0.046
0.008
0.049
-0.044
-0.018
-0.101
-0.135
-0.090
-0.120
0.009
0.006
-0.070
-0.007
0.056
0.062
0.049
-0.433
-0.056
0.226
0.283
0.277
-0.124
-0.091
0.227
0.254
0.192
0.127
0.047
0.079
0.048
-0.027
-0.176
0.050
0.243
0.383
0.057
-0.171
-0.070
-0.063
-0.153
-0.313
-0.141
-0.120
-0.222
-0.058
0.144
-0.031
-0.239
-0.015
-0.185
-0.289
-0.130
-0.455
-2.624
1.405
1.125
0.802
0.426
-0.241
-0.664
-0.536
-0.270
-0.061
0.222
0.254
0.242
0.342
0.199
-0.050
-0.066
-0.198
-0.314
0.079
0.028
-0.176
-0.212
-0.175
0.100
-0.051
-0.108
-0.035
0.109
-0.009
-0.000
0.134
0.363
0.028
-0.217
-0.127
-0.091
-0.091
-0.096
0.001
-0.062
-0.081
0.051
0.041
-0.083
0.115
0.047
-0.066
-0.105
-0.122
-0.007
0.124
0.087
0.042
-0.178
0.017
-0.057
-0.077
-0.412
-0.087
0.596
0.548
0.275
-0.178
-0.211
-0.251
-0.298
-0.192
0.006
0.171
0.337
0.139
0.236
0.252
0.093
-0.252
-0.234
-0.460
-0.281
0.292
0.075
0.133
-0.006
-0.028
-0.101
-0.138
-0.121
-0.093
0.096
0.127
0.079
-0.085
-0.081
-0.148
-0.248
-0.313
-0.019
0.233
0.153
0.197
0.050
-0.334
-0.233
-0.253
-0.028
0.079
0.086
0.127
0.018
0.027
-0.050
-0.142
-0.350
-0.049
0.028
0.137
0.121
-0.020
-0.044
-0.021
-0.096
-0.066
0.002
-0.024
0.046
0.117
0.112
-0.032
-0.042
-0.073
0.029
0.065
-0.083
0.012
-0.004
-0.062
-0.052
-0.036
-0.171
-0.221
-0.298
-0.026
0.336
0.363
0.180
-0.103
-0.349
-0.346
0.116
0.144
0.020
-0.025
-0.103
-0.068
0.011
0.171
0.003
0.020
-0.106
-0.082
-0.203
-0.140
-0.164
0.030
0.083
0.033
-0.004
-0.133
-0.131
0.122
0.111
-0.008
-0.067
-0.102
-0.052
0.119
0.069
0.052
-0.014
0.012
-0.027
-0.030
-0.215
-0.129
0.017
0.206
0.042
0.087
0.071
-0.282
-0.265
0.037
0.031
0.069
0.041
-0.002
0.180
-0.023
-0.190
0.001
-0.162
-0.042
-0.237
0.135
-0.059
-0.024
0.020
-0.014
-0.039
-0.239
-0.282
0.112
0.371
0.437
-0.079
-0.138
-0.188
-0.284
-0.092
0.101
-0.007
0.001
0.010
0.040
0.017
-0.042
-0.098
-0.179
-0.066
0.089
0.114
0.010
-0.187
-0.165
-0.021
-0.084
-2.258
0.060
1.811
1.237
0.562
0.019
-1.558
-2.417
1.117
1.027
0.688
0.300
-0.139
-0.524
-0.410
-0.201
-0.003
0.115
0.056
0.110
-0.061
-0.126
-0.077
-0.147
0.155
0.092
0.039
0.057
0.110
0.206
0.289
0.066
-2.266
1.286
1.022
0.864
0.369
0.043
-0.323
-0.509
-0.382
-0.351
-0.190
-0.035
0.173
0.388
0.279
0.036
0.019
-0.160
-0.313
-0.216
-0.084
-0.125
-0.040
0.050
0.037
0.131
0.130
0.046
0.032
0.162
0.127
0.030
-0.219
-0.098
-0.026
-0.113
-0.022
0.267
0.345
0.104
-0.364
-0.376
-0.080
0.047
0.346
0.168
-0.150
-0.230
-0.058
0.426
0.039
0.143
-0.102
-0.270
-0.028
0.056
0.228
0.137
0.065
-0.021
-0.022
0.143
0.021
-0.242
-0.149
-0.147
0.033
-0.132
0.083
0.021
0.070
0.038
0.035
0.076
-0.109
-0.039
-0.110
-0.087
-0.181
-0.169
-0.043
-0.053
0.099
-0.036
-0.008
-0.093
-0.049
-0.109
-0.287
-0.280
-0.228
-0.042
0.088
0.137
0.138
-0.055
-0.125
-0.181
-0.198
-0.057
-0.121
0.003
0.344
0.182
0.018
-0.077
-0.210
-0.092
-0.097
0.016
-0.210
0.011
-0.010
0.023
0.004
0.184
0.039
-0.092
0.056
-0.146
-0.078
0.042
-0.127
0.087
0.272
0.127
-0.144
-0.144
-0.018
0.091
0.098
-0.033
0.025
-0.130
-0.012
0.070
0.183
0.007
-0.077
0.009
0.070
-0.195
-0.107
0.030
-0.005
-0.025
-0.183
0.087
0.248
0.200
-0.133
-0.122
-0.170
-0.178
-0.072
-0.080
-0.314
-0.104
0.306
0.300
0.068
0.055
-0.090
0.034
-0.104
-0.220
0.060
0.149
0.127
-0.006
-0.149
0.085
0.329
0.155
0.054
-0.225
-0.166
-0.132
-0.126
-0.014
-0.146
-0.093
0.112
0.299
0.233
-0.045
-0.139
-0.252
-0.126
0.004
0.030
0.099
-0.022
-0.095
-0.080
0.071
0.092
0.208
-0.100
-0.166
-0.153
-0.082
-0.242
-0.065
-0.070
-0.994
-2.193
1.724
1.352
0.589
0.179
-0.175
-0.472
-0.492
-0.360
-0.041
0.305
0.359
0.292
0.163
0.168
0.128
0.078
-0.006
-0.247
-0.250
-0.282
-0.229
-0.183
-0.066
0.194
0.406
-0.021
-0.201
0.057
-0.178
0.028
0.110
0.030
-1.155
-2.033
1.659
1.198
0.625
0.249
-0.224
-0.481
-0.511
-0.406
-0.061
0.191
0.406
0.373
0.302
-0.220
-2.456
1.540
1.073
0.350
-0.060
-0.228
-0.533
-0.192
-0.343
-0.030
0.128
0.351
0.136
-0.885
-1.833
1.760
1.212
0.560
0.259
-0.430
-0.718
-0.727
-0.285
-0.003
-0.187
0.044
0.325
0.117
0.498
0.358
0.164
-0.072
-0.292
-0.206
-0.100
-0.025
0.102
0.095
0.025
0.015
0.023
0.006
-0.087
0.020
0.017
-0.012
0.120
-0.107
-0.282
-0.336
0.033
0.051
-0.104
-0.244
-0.258
-0.088
0.043
0.082
-0.012
0.052
-0.127
-0.076
-0.045
0.052
-0.199
-0.031
0.336
0.371
0.162
-0.015
0.163
0.008
-0.141
-0.213
0.076
0.184
0.149
0.023
0.019
0.034
-0.078
-0.055
-0.069
-0.105
-0.040
0.036
-0.096
-0.147
-0.107
-0.028
0.083
0.111
0.015
0.050
-0.179
-0.131
-0.025
-0.052
-0.008
-0.046
0.050
0.044
-0.190
-0.201
-0.068
-0.012
-0.017
-0.126
-0.057
-0.026
0.067
0.101
0.008
-0.129
-0.152
-0.044
-0.104
0.059
0.076
0.159
0.151
0.018
-0.026
-0.026
-0.166
-0.124
-0.127
-0.214
-0.036
0.053
0.042
0.064
0.053
-0.121
-0.149
0.015
0.220
0.266
0.021
0.001
-0.121
-0.239
0.024
-0.113
-0.038
0.099
0.181
0.210
-0.035
-0.289
-0.225
-0.134
-0.081
0.148
-0.029
-0.044
-0.262
0.087
0.215
0.214
0.167
-0.061
-0.214
-0.236
-0.129
0.005
0.127
0.032
-0.282
-0.122
-0.075
0.040
0.059
0.026
0.064
-0.232
-0.005
0.069
0.132
-0.024
-0.258
-0.094
0.015
0.053
0.120
0.110
0.257
0.058
-0.004
-0.071
-0.166
-0.143
-0.189
-0.105
0.142
0.179
-0.361
-0.238
-0.008
0.183
0.287
-0.281
-0.180
0.095
0.034
0.007
-0.044
-0.109
0.041
0.018
0.152
0.160
0.114
-0.083
-0.111
-0.006
-0.127
-0.029
-0.122
-0.185
-0.173
-0.108
-0.221
-0.089
0.046
0.108
0.410
0.122
-0.204
-0.282
-0.244
-0.071
-0.042
0.030
0.086
0.114
-0.018
-0.029
-0.138
-0.044
-0.041
-0.221
-0.117
0.016
0.158
0.088
0.020
-0.058
0.210
-0.051
-0.248
0.122
0.323
0.208
0.100
-0.167
-0.126
-0.060
-0.123
-0.035
0.008
0.044
-0.084
-0.242
-0.225
0.081
0.191
-0.009
-0.042
-0.159
-0.193
-0.092
0.007
0.087
0.042
0.123
0.201
-0.023
-0.115
-0.108
0.000
-0.044
0.034
-0.036
0.038
0.008
-0.111
-0.072
-0.099
0.049
0.115
-0.142
-0.177
0.021
0.055
0.127
-0.122
0.369
0.188
-0.137
-0.287
-0.280
-0.145
0.003
0.108
0.028
0.183
0.003
-0.163
-0.001
0.061
-0.122
-0.023
0.106
-1.351
-1.806
1.544
1.104
0.700
0.288
-0.039
-1.441
-2.384
1.496
1.093
0.730
0.507
-0.139
-0.761
-0.698
-0.187
-0.057
0.090
-0.143
0.111
0.278
0.026
-0.135
-0.173
-0.206
0.016
0.268
0.201
0.145
0.137
0.089
0.086
0.157
0.332
0.140
0.022
-0.096
-0.107
0.082
0.056
-0.118
-0.075
-0.082
-0.269
-0.330
-0.189
0.047
0.134
0.060
0.054
-0.056
-0.249
-0.077
0.053
-0.082
-0.113
-0.089
-0.008
0.138
-0.069
-0.063
-0.182
-0.076
0.045
0.030
0.326
0.233
0.013
-0.143
-0.023
-0.069
-0.104
0.122
0.064
0.136
0.083
0.132
0.142
-0.021
-0.101
0.010
0.005
-0.102
0.041
0.058
-0.032
-0.107
-0.149
0.174
0.257
0.182
-0.162
-0.389
-0.408
-0.032
0.217
0.037
0.064
0.086
-0.091
-0.243
-0.080
-0.183
-0.063
0.044
0.068
-0.172
-0.084
-0.127
-0.101
0.001
0.020
-0.228
-0.167
-0.017
-0.141
-0.067
-0.052
-0.009
-0.099
-0.033
-0.114
-0.083
-0.090
0.075
0.265
-0.031
-0.148
-0.143
0.103
0.093
0.027
0.025
-0.006
0.133
-0.078
-0.004
-0.119
0.095
0.095
-0.025
-0.060
-0.077
-0.013
-0.101
0.005
0.100
0.217
0.062
-0.282
-0.434
-0.115
0.247
0.192
-0.151
-0.233
-0.046
0.178
-0.018
-0.021
0.050
0.096
0.077
-0.069
0.043
-0.066
0.016
0.017
-0.019
0.004
0.175
-0.045
-0.104
0.008
-0.021
-0.446
-0.336
0.082
0.153
0.306
-0.163
-0.228
-2.612
0.738
1.507
0.835
0.269
0.063
-0.354
-0.394
-0.265
-0.075
-0.115
0.258
0.178
0.266
0.332
0.148
-0.247
-0.242
-2.458
0.087
1.475
1.111
0.394
-0.075
-1.395
-2.931
1.309
1.379
0.762
0.584
0.238
-0.389
-0.506
-0.378
-0.380
0.134
0.062
0.137
0.155
0.020
-1.260
-1.373
1.307
1.120
0.478
0.174
-0.295
-0.398
-0.262
-0.043
0.188
0.367
0.371
0.448
0.127
0.103
0.083
-0.044
-0.254
-0.200
-0.362
-0.232
-0.144
0.137
0.052
-0.047
0.055
-0.011
-0.062
-0.037
-0.043
0.210
0.083
0.001
-0.064
0.020
0.029
0.079
-0.035
-0.137
-0.070
-0.013
0.006
-0.222
0.100
0.092
0.175
0.055
-0.083
-0.205
-0.229
-0.011
0.194
0.432
0.162
-0.129
-0.313
-0.130
0.022
0.203
-0.020
-0.047
0.093
-0.025
-0.218
0.073
0.304
0.013
-0.135
-0.186
-0.064
-0.028
-0.010
-0.010
-0.005
-0.056
-0.017
0.038
-0.040
-0.112
-0.065
-0.017
-0.007
-0.285
-0.064
-0.039
-0.100
-0.094
-0.055
-0.216
-0.051
-0.003
-0.140
-0.140
-0.035
0.068
0.003
0.090
-0.047
-0.229
-0.032
-0.199
-0.215
-0.131
0.192
0.175
-0.109
-0.125
-0.213
-0.075
-0.058
0.030
-0.127
-0.114
-0.069
-0.001
-0.007
-0.127
-0.009
-0.031
0.050
-0.020
0.024
0.152
0.152
0.007
-0.128
-0.093
0.020
0.079
0.131
0.053
-0.004
0.042
-0.059
0.034
-0.017
-0.086
-0.267
0.080
0.112
-0.002
-0.031
-0.091
0.047
0.122
-0.068
-0.151
0.016
-0.055
-0.041
-0.060
0.036
0.080
0.038
-0.004
-0.207
-0.200
-0.018
0.111
-0.208
-0.101
0.258
0.209
-0.121
-0.083
-0.138
-0.056
0.005
-0.030
0.022
-0.014
-0.031
-0.135
-0.073
-0.107
-0.016
0.073
0.083
0.002
-0.081
-0.108
-0.047
0.087
0.076
-0.013
-0.129
0.105
0.082
0.006
0.002
-0.064
0.067
0.014
-0.142
-0.031
-0.144
-0.129
-0.112
-0.065
0.040
-0.005
-0.123
0.060
-0.057
0.183
-0.108
-0.092
-0.060
-0.103
-0.049
0.047
-0.024
-0.103
-0.089
0.141
0.128
-0.087
0.131
0.040
-0.018
-0.059
-0.122
-0.268
-0.094
-0.016
0.027
0.044
0.125
-0.055
-0.078
-0.218
-0.094
0.215
0.073
0.014
-0.264
-0.159
0.003
-0.284
-0.217
0.161
0.105
0.284
0.147
-0.230
-0.155
0.016
0.264
0.168
-0.182
-0.126
-0.034
-0.002
0.076
-0.498
-0.288
0.075
0.420
0.194
-0.142
-0.171
0.089
0.016
-0.301
-0.114
0.174
0.084
0.014
0.181
0.170
-0.251
-2.664
0.706
1.506
1.030
0.383
0.049
-0.450
-0.708
-0.631
-0.253
0.008
0.258
0.272
-0.034
-2.531
1.482
1.319
0.600
0.228
-0.525
-0.792
-0.813
-0.485
-0.122
0.039
0.375
0.332
0.292
0.366
0.062
0.062
-0.084
0.134
-0.144
-0.042
-0.051
-0.078
-0.032
-0.125
0.156
0.114
0.055
-0.043
0.056
0.144
0.036
-0.014
0.143
0.035
-0.038
-0.178
-0.283
-0.136
-0.301
-0.069
0.239
-0.484
-2.547
1.496
1.253
0.599
0.086
-0.449
-0.367
-0.356
-0.386
-0.500
-0.121
0.643
0.910
0.661
0.187
0.014
-0.111
-0.257
-0.258
-0.131
0.074
-0.059
-0.199
0.203
0.155
-0.098
-0.158
-0.172
0.083
-0.897
-1.757
1.525
1.063
0.618
0.191
-0.151
-0.609
-0.398
-0.133
0.296
0.171
0.245
0.239
0.160
0.052
-0.102
-0.187
-0.227
-0.008
-0.095
-0.097
-0.231
-0.151
-0.276
0.061
-0.066
-0.153
-0.085
0.009
-0.018
-0.062
0.071
-0.071
-0.083
-0.044
-0.051
-0.073
0.063
0.055
-0.068
0.034
0.044
0.022
0.058
-0.073
-0.102
0.042
-0.071
0.124
-0.083
0.126
0.376
0.247
-0.131
-0.181
-0.326
-0.628
-0.099
0.246
0.355
0.326
0.086
-0.123
-0.169
-0.129
-0.157
-0.040
0.088
-0.005
0.017
0.074
0.283
0.129
-0.038
-0.121
-0.248
-0.120
-0.314
-0.007
0.077
0.069
-0.084
-0.009
0.076
0.065
-0.015
0.023
-0.092
-2.586
0.320
1.511
0.980
0.356
0.005
-0.197
-0.298
-0.300
-0.574
-0.285
0.413
0.562
0.371
0.163
0.094
-0.090
-0.153
-0.161
-0.269
-0.133
-0.029
0.000
0.003
-0.142
-0.071
-0.145
0.106
-0.076
-0.008
0.119
0.149
0.204
0.003
-0.155
-0.115
-0.036
-0.006
-0.110
0.052
0.135
-0.072
-0.101
0.083
-0.031
-0.092
0.028
0.031
-0.155
-0.054
-0.031
0.091
0.137
-0.004
-0.008
-0.021
-0.103
0.173
0.164
0.025
-0.160
-0.240
-0.100
-0.157
-0.027
0.095
-1.977
-0.556
1.758
1.227
0.301
-0.090
-0.318
-0.347
-0.453
-0.112
0.159
0.228
0.102
0.053
0.271
0.168
0.213
0.049
-0.283
-0.331
-0.286
-0.291
-0.216
-0.013
-0.173
-0.478
-0.254
0.231
0.285
0.079
-0.092
-0.154
-0.083
-0.130
0.063
0.063
0.151
0.157
0.165
-0.033
-0.095
-0.078
-0.081
-0.017
0.083
0.146
0.155
-0.012
-0.139
-0.213
0.130
0.025
-0.134
-0.151
-0.136
-0.012
-0.027
-0.015
-0.044
0.093
-0.049
-0.055
-0.083
-0.072
0.000
0.067
-0.172
0.241
-0.140
0.012
-0.023
-0.014
0.007
0.037
0.053
-0.116
0.028
-0.005
0.066
-0.086
-0.130
-0.049
0.223
0.222
-0.106
-0.203
-0.207
0.121
0.083
-0.082
-0.153
-0.077
0.328
0.238
-0.087
-0.247
-0.206
-0.074
-0.059
-0.224
0.110
0.092
0.151
-0.044
-0.164
-0.134
-0.062
0.032
0.011
0.058
-0.097
-0.080
-0.019
-0.008
0.003
-0.070
-2.184
-0.105
1.578
1.005
0.675
0.020
-0.304
-0.496
-0.327
-0.136
0.161
0.188
0.409
0.218
0.011
-0.003
0.267
0.062
0.031
-0.027
-0.393
-0.263
-0.108
-0.182
-2.737
0.940
1.268
0.810
0.291
0.182
-0.235
-0.502
-0.637
-0.233
0.279
0.422
0.246
0.261
0.145
0.084
0.031
-0.142
-0.841
-2.860
1.356
1.367
0.829
0.301
-0.080
-0.357
-0.602
-0.349
-0.186
0.247
0.491
0.395
0.218
0.192
0.186
0.048
-0.221
-0.172
0.048
-0.171
-0.247
-0.226
-0.048
-0.129
-0.131
-0.009
0.188
0.224
0.069
-0.120
-0.103
0.101
0.075
0.036
0.027
-0.008
0.040
0.090
0.095
-0.040
0.142
-0.054
-0.159
-0.056
-0.037
-0.016
0.124
0.020
0.064
-0.080
-0.009
-0.043
-0.177
-0.062
0.053
-0.024
0.132
-0.097
-0.105
-0.058
-0.027
-0.005
-0.054
-0.036
-0.095
0.009
0.137
-0.042
-0.168
-0.005
-0.160
-0.198
-0.112
0.148
0.214
0.003
0.038
-0.037
0.006
-0.088
-0.079
0.035
0.045
-0.056
-0.118
-0.051
0.093
-0.026
0.014
-0.185
-0.064
-0.050
-0.154
0.210
-0.139
-0.099
-0.010
-0.053
0.074
0.009
-0.012
-0.117
-0.016
-0.096
-0.036
0.211
-0.117
-0.158
-0.044
-0.052
-0.060
-0.210
0.074
0.264
0.263
0.282
0.065
-0.087
-0.317
-0.192
0.048
0.108
0.186
-0.038
0.001
-0.041
-0.191
0.012
-0.136
-0.059
-0.037
-0.018
-0.066
-0.088
-0.113
-0.113
0.151
0.235
-0.089
-0.140
-0.117
-0.005
-0.051
-0.162
-0.093
0.118
-0.049
-0.009
-0.062
-0.220
0.089
0.239
0.130
-0.028
-0.010
0.001
-0.086
0.007
-0.120
0.088
0.125
0.140
0.001
-0.316
-0.053
0.037
-0.099
-0.035
-0.024
-0.045
0.067
0.092
-0.017
-0.043
-0.118
-0.166
-0.076
0.018
0.152
0.056
0.015
-0.083
-0.038
-0.031
-0.198
-0.023
-0.110
-0.155
-0.014
0.009
-0.064
-0.082
-0.091
0.010
0.037
-0.032
-0.031
-0.139
0.171
0.054
0.044
-0.023
-0.052
0.003
-0.246
0.027
0.221
0.097
-0.132
-0.102
-0.019
-0.067
-0.006
-0.037
0.030
-0.062
0.004
-0.120
-0.027
-0.003
-0.011
0.048
-0.235
-0.096
-0.036
0.035
0.118
0.023
-0.024
-0.084
-0.139
0.028
-0.142
0.053
-0.032
0.073
-0.004
0.078
-0.027
-0.067
-0.042
-0.038
-0.075
0.069
-0.081
0.014
-0.021
-0.209
-0.184
0.093
0.278
0.255
-0.086
-0.187
-0.024
0.059
0.150
0.003
-0.092
-0.124
0.079
-0.010
0.119
-0.093
-0.057
-0.135
0.053
0.032
-0.070
-0.255
-0.013
0.025
-0.006
-0.230
0.035
0.057
-0.042
-0.031
0.223
-0.042
-0.311
-0.077
-0.200
0.109
0.036
0.057
0.305
0.157
-0.094
-0.293
-0.304
0.152
0.211
0.071
-0.147
0.050
0.033
0.025
-0.000
-0.022
-0.265
-0.255
0.012
0.220
0.093
-0.089
-0.313
-0.187
-0.050
0.066
0.189
0.174
-0.108
-0.001
0.055
-0.072
-0.070
-0.021
0.097
0.003
-0.041
-0.062
0.034
-0.474
-2.751
1.569
1.329
0.789
0.229
-0.138
-0.452
-0.514
-0.312
-0.010
0.118
0.258
0.275
0.241
0.194
-0.032
0.079
-0.110
-0.261
-0.086
-0.259
-0.088
0.053
0.111
0.039
0.018
-0.097
0.059
0.003
0.026
-0.083
-0.151
0.020
-0.088
0.033
-0.053
0.090
-0.040
-0.147
-0.119
0.051
-0.123
-0.180
-0.035
0.109
0.216
0.155
-0.140
-0.191
-0.302
-0.036
0.320
0.401
0.037
-0.079
-0.096
-0.046
-0.094
-0.016
0.091
0.132
0.036
0.140
0.085
0.032
-0.219
-0.444
-0.129
0.114
0.224
0.239
0.010
0.117
-0.188
-0.204
-0.091
-0.072
-0.038
0.066
-0.010
-0.101
0.009
-0.147
0.050
0.052
0.027
-0.105
-0.287
-0.030
0.053
-0.094
-0.146
-0.184
0.067
0.213
-0.002
-0.024
-0.042
-0.047
0.148
0.031
-0.071
-0.007
-0.122
-0.115
-0.121
-0.031
0.036
0.071
0.064
-0.046
-0.041
-0.151
-0.268
-0.020
0.072
-0.047
0.175
0.160
0.082
-0.027
0.078
-0.087
-0.058
-0.163
0.148
0.122
0.163
-0.181
-0.429
-0.285
-0.038
0.286
0.283
-0.097
-0.264
-0.112
-0.114
-0.054
0.063
-0.039
-0.030
0.020
-0.007
-0.057
0.060
0.116
-0.030
-0.007
0.142
-0.162
-0.165
-0.035
-0.064
0.064
-0.220
0.155
0.362
0.178
0.063
-0.221
-0.106
-0.167
-0.161
-0.169
0.029
0.111
0.111
0.112
-0.100
-0.055
0.009
-0.032
-0.307
0.020
-0.015
-0.011
-0.003
0.040
0.042
-0.198
0.039
0.094
-0.184
0.138
0.133
0.215
-0.023
-0.181
-0.208
-0.075
0.052
0.014
-0.033
0.076
0.066
0.054
0.025
-0.094
-0.034
-0.082
-0.014
0.053
0.007
0.007
-0.011
-0.002
-0.084
-0.057
0.110
-0.091
-0.079
-0.061
0.209
0.205
0.048
-0.160
-0.415
-0.166
0.009
0.151
0.437
0.179
-0.072
-0.072
-0.165
-0.301
-0.136
0.105
0.124
0.071
-0.032
-0.119
-0.030
-0.062
-0.065
-0.166
-0.118
-0.027
-0.515
-2.801
1.400
1.353
0.770
0.421
0.195
-0.189
-0.429
-2.959
0.597
1.410
1.190
0.848
0.235
-0.374
-1.039
-0.975
-0.089
0.113
0.229
0.059
0.036
0.043
-0.096
0.175
-0.022
-0.061
-0.042
0.062
0.216
0.156
0.170
0.233
0.317
-0.050
0.063
0.129
0.157
-0.023
-0.237
-0.435
-0.116
-0.020
-0.069
-0.140
-0.179
-0.214
-0.045
-0.015
-0.135
-0.071
-0.087
0.035
0.078
-0.120
-0.245
-0.046
0.153
0.205
0.273
0.042
0.080
-0.054
-0.038
-0.048
0.094
0.070
-0.052
-0.045
0.063
0.186
0.251
0.090
-0.033
0.091
-0.009
0.000
-0.010
0.025
-0.038
0.026
0.136
0.009
-0.055
0.038
-0.140
-0.234
-0.179
0.017
0.157
-0.189
0.139
-0.041
-0.252
-0.334
0.012
0.116
0.076
-0.008
-0.203
-0.089
0.105
-0.184
-0.129
-0.096
-0.057
-1.684
-0.564
1.540
1.051
0.489
0.013
-0.295
-0.552
-0.509
-0.167
0.119
0.347
0.449
0.213
0.344
0.044
0.029
-0.150
-0.247
-0.113
-0.200
-0.250
-0.075
-0.108
-0.060
-0.012
-0.008
0.132
0.005
-0.057
-0.107
-0.126
0.114
0.197
0.192
-0.152
-0.135
-0.165
-0.101
0.166
0.052
-0.106
-0.049
-0.085
-0.021
0.023
0.001
0.052
0.135
0.115
-0.099
-0.140
-0.064
-0.187
0.047
0.246
0.296
0.140
-0.326
-0.108
0.056
-0.068
-0.288
0.082
0.215
0.290
0.025
-0.112
0.021
0.043
-0.031
-0.131
0.041
0.088
0.006
0.067
-0.062
0.058
0.036
-0.094
-0.199
-0.130
-0.021
-0.089
0.041
0.208
0.042
-0.076
-0.119
-0.275
