0.075
-0.007
0.060
-0.008
-0.012
-0.035
0.067
-0.065
0.037
0.038
-0.031
-0.065
0.051
0.013
-0.046
0.022
0.060
0.009
-0.024
0.048
-0.043
0.039
0.030
0.025
-0.029
0.003
0.031
-0.028
-0.020
0.052
0.023
0.040
-0.017
-0.008
-0.053
0.051
0.073
-0.087
0.038
0.012
0.011
0.096
-0.007
-0.002
0.049
-0.035
-0.019
-0.006
0.001
0.019
0.034
0.087
0.011
0.095
-0.050
0.031
0.013
-0.014
0.045
0.041
0.055
0.040
-0.016
0.009
0.019
0.094
-0.069
0.050
0.026
0.045
0.068
0.003
-0.037
0.036
-0.039
0.075
0.050
-0.058
0.038
0.145
-0.009
-0.069
0.009
0.175
-0.014
-0.090
0.044
0.038
-0.043
0.070
-0.059
0.032
0.054
0.016
0.012
-0.018
0.023
0.066
0.121
-0.051
0.039
-0.039
-0.004
-0.039
-0.048
0.080
0.064
0.101
-0.010
-0.035
0.068
0.011
0.103
-0.031
0.049
0.046
-0.056
0.049
-0.008
0.022
0.045
0.164
-0.005
-0.086
0.049
-0.018
-0.046
0.110
0.024
0.060
-0.008
-0.030
-0.023
0.022
0.053
-0.033
0.090
0.043
-0.079
-0.071
0.061
0.050
0.080
-0.074
-0.036
0.028
-0.039
-0.048
0.037
-0.036
0.011
0.079
0.045
0.055
-0.037
0.067
-0.087
0.112
-0.003
-0.004
-0.041
0.058
0.066
0.032
0.072
0.078
-0.086
-0.020
-0.018
0.134
0.047
-0.029
-0.010
-0.027
-0.110
0.118
0.023
0.080
0.004
-0.014
0.012
-0.072
-0.011
0.055
0.004
0.012
-0.027
0.163
0.067
-0.060
0.018
0.018
-0.036
0.072
-0.033
0.025
0.071
0.042
0.032
-0.059
0.003
0.062
0.032
0.038
0.020
0.065
0.061
-0.033
0.005
-0.032
0.033
0.049
-0.054
0.081
-0.029
0.009
0.052
0.088
-0.030
-0.051
0.017
-0.089
0.053
-0.003
0.035
0.019
0.070
-0.003
0.014
0.078
-0.020
0.049
-0.023
0.056
-0.012
0.002
0.067
-0.048
0.021
0.011
0.025
-0.090
0.034
0.011
0.026
0.007
0.048
-0.037
0.057
-0.032
0.029
0.087
0.079
0.142
0.034
0.006
-0.024
0.038
-0.073
0.081
0.017
-0.013
-0.004
0.100
0.062
-0.019
-0.017
-0.059
-0.051
-0.038
0.031
0.072
0.105
0.032
-0.086
-0.039
0.004
0.022
-0.069
0.091
0.039
-0.024
-0.000
0.092
0.030
0.006
-0.056
-0.025
0.040
0.101
-0.039
0.007
-0.059
-0.066
0.151
0.070
0.002
0.084
-0.000
-0.013
-0.001
0.015
0.070
0.082
-0.072
-0.004
0.088
0.027
0.040
0.052
0.059
0.089
-0.040
-0.096
0.038
0.048
0.043
0.058
0.087
-0.156
-0.147
-0.004
0.137
0.050
-0.029
0.014
-0.012
-0.040
-0.025
-0.000
0.043
0.065
-0.038
0.045
0.009
0.037
0.057
0.023
-0.037
-0.005
0.130
-0.052
-0.040
0.055
0.043
0.024
-0.048
0.034
0.069
0.024
0.032
-0.083
-0.008
0.065
0.155
0.011
-0.092
-0.062
0.088
0.076
-0.032
-0.025
-0.002
-0.003
0.040
0.006
0.043
0.012
-0.082
0.058
-0.001
0.066
0.048
-0.013
-0.003
-0.101
-0.044
0.078
0.029
0.074
-0.011
-0.066
-0.006
0.111
-0.037
0.046
0.018
0.083
0.094
-0.046
-0.051
-0.006
0.061
-0.006
0.107
0.027
0.015
0.038
-0.062
0.053
-0.032
0.067
0.035
0.014
0.030
-0.038
-0.002
0.081
-0.004
-0.029
0.061
0.018
0.008
0.009
-0.017
-0.040
0.153
0.026
0.039
0.041
-0.003
0.002
0.007
0.013
0.074
-0.062
0.009
0.049
-0.002
0.135
0.038
-0.058
0.032
-0.062
0.052
0.095
0.150
-0.126
0.012
0.015
0.013
0.004
0.077
0.053
0.040
-0.038
0.148
-0.094
-0.016
0.021
0.139
0.046
-0.009
0.019
0.074
-0.002
-0.023
0.026
0.020
0.038
-0.012
0.043
0.107
0.018
0.087
-0.053
0.154
-0.048
0.023
-0.040
-0.039
0.092
0.055
-0.041
0.071
-0.065
0.020
-0.018
0.094
0.014
0.048
0.023
0.028
-0.079
0.133
-0.003
-0.015
0.001
0.099
0.033
-0.088
0.052
0.075
-0.050
0.053
0.033
-0.035
0.027
0.023
0.036
-0.014
0.043
0.131
-0.072
0.017
-0.070
-0.055
0.068
0.036
0.018
0.065
0.033
0.057
-0.010
-0.029
-0.094
0.032
0.057
0.067
0.005
0.058
-0.002
-0.025
0.012
0.122
-0.046
-0.015
-0.073
-0.097
-0.003
0.057
0.045
0.021
-0.001
-0.023
0.022
-0.020
0.030
0.008
0.024
0.018
-0.019
0.085
0.056
0.015
-0.102
0.010
0.078
-0.009
-0.016
0.072
-0.011
-0.017
-0.034
0.073
0.018
0.068
0.026
-0.020
-0.009
0.084
-0.023
0.036
0.042
0.008
-0.053
-0.004
0.085
0.048
-0.020
-0.006
0.045
0.011
0.041
-0.095
-0.044
-0.033
0.058
0.074
0.023
0.014
-0.038
0.038
0.081
-0.037
-0.036
0.103
0.002
0.105
-0.030
-0.046
0.007
0.091
-0.062
0.054
0.112
0.074
0.022
-0.039
0.030
0.015
0.008
-0.053
0.056
0.061
0.019
-0.002
-0.043
0.019
0.002
0.005
-0.020
0.083
0.059
-0.020
-0.029
0.108
-0.018
-0.014
-0.034
-0.011
0.046
-0.041
0.076
0.028
0.039
0.017
0.020
-0.024
0.041
-0.024
0.086
0.018
-0.073
0.028
0.108
-0.001
0.004
0.042
-0.055
0.037
-0.010
0.041
-0.002
-0.022
-0.091
-0.005
0.053
0.088
0.003
0.023
-0.074
0.090
0.031
0.003
-0.065
0.043
0.016
0.079
0.021
0.037
-0.068
-0.054
0.030
0.087
0.001
0.052
-0.085
0.032
0.006
0.026
0.072
-0.028
-0.025
-0.004
0.033
0.075
-0.008
0.050
-0.049
-0.074
-0.009
0.123
-0.018
0.061
-0.065
-0.022
0.071
-0.041
0.006
0.063
0.036
-0.032
0.034
-0.090
0.092
0.008
0.012
0.065
-0.044
0.035
-0.018
0.013
0.009
0.018
-0.047
-0.017
0.016
-0.051
-0.014
0.003
0.099
0.087
-0.026
0.018
0.040
-0.107
-0.038
0.111
0.059
0.006
-0.004
0.021
-0.007
0.004
-0.049
0.007
-0.005
0.029
0.093
-0.008
0.009
0.019
-0.049
0.064
0.043
0.040
0.038
-0.014
-0.041
-0.009
0.063
0.009
0.082
0.046
-0.001
-0.041
0.100
0.024
0.020
-0.075
-0.041
-0.064
0.084
0.005
0.085
-0.005
-0.015
0.017
-0.019
-0.017
0.064
0.120
-0.025
0.091
-0.008
0.105
-0.026
0.071
0.044
0.014
-0.014
-0.041
0.074
0.036
0.019
0.068
-0.026
0.061
0.038
-0.034
0.070
0.027
-0.017
0.053
0.068
-0.015
0.050
0.024
0.079
-0.021
-0.044
0.098
0.005
-0.006
0.040
0.023
0.018
-0.108
0.048
0.110
-0.050
-0.015
0.030
0.068
0.053
0.026
-0.004
0.074
0.002
0.023
0.058
-0.004
-0.007
-0.037
0.063
0.098
0.020
0.009
-0.033
0.083
0.043
0.024
-0.088
0.004
-0.033
0.020
0.074
0.090
0.019
-0.063
-0.024
0.019
0.019
0.148
-0.089
-0.043
-0.031
0.102
0.004
0.022
0.070
-0.012
-0.054
0.047
-0.018
0.057
0.039
0.019
0.057
0.113
-0.135
0.027
-0.031
0.051
0.061
0.043
-0.001
-0.017
0.051
-0.064
-0.007
0.036
0.011
-0.005
0.092
0.181
-0.124
-0.020
0.070
-0.042
-0.046
0.082
-0.019
0.052
-0.012
0.060
0.043
0.069
-0.007
0.018
-0.046
-0.009
-0.013
0.083
0.021
-0.045
0.128
0.055
0.003
-0.042
0.054
-0.067
0.046
-0.062
0.113
0.056
0.023
0.008
0.022
0.068
0.055
0.052
-0.030
-0.009
0.122
0.023
0.007
0.059
-0.014
0.056
-0.086
-0.001
0.018
0.006
-0.030
-0.102
0.071
0.057
-0.024
0.043
0.047
0.010
-0.050
0.028
0.102
0.023
-0.056
-0.027
0.039
0.079
0.033
0.053
0.012
0.037
-0.059
0.060
0.019
0.039
0.011
0.094
0.009
0.032
-0.064
-0.018
-0.015
0.012
0.112
0.107
-0.008
0.023
0.027
-0.002
0.010
0.021
0.027
-0.038
-0.044
-0.005
-0.048
0.135
0.000
-0.046
0.006
-0.081
-0.047
0.103
0.045
0.056
0.021
-0.081
0.073
0.039
-0.030
0.073
0.021
0.086
0.070
-0.015
0.053
-0.075
-0.052
0.169
-0.000
-0.011
0.025
0.036
-0.055
0.037
0.006
-0.035
0.096
0.089
0.041
-0.093
0.036
0.044
-0.008
0.019
0.014
0.077
0.029
0.027
-0.014
-0.020
0.058
-0.043
0.042
0.031
-0.004
0.025
0.010
-0.011
0.141
-0.016
-0.028
0.004
0.083
-0.028
0.001
-0.015
-0.055
0.073
0.079
-0.027
0.085
0.024
0.066
0.002
-0.099
0.017
0.148
0.040
-0.039
0.064
0.010
-0.051
0.018
-0.020
0.116
-0.116
-0.032
-0.015
0.127
-0.006
0.022
-0.043
0.034
0.047
0.102
0.038
-0.020
0.042
-0.053
0.022
0.080
-0.018
0.007
0.003
0.103
0.006
0.043
-0.026
-0.012
0.072
-0.061
0.041
0.027
0.012
-0.019
-0.043
0.112
0.041
0.083
0.006
-0.032
0.046
-0.034
-0.041
-0.012
0.070
0.043
0.065
-0.005
0.022
0.039
-0.068
-0.035
0.070
-0.030
-0.052
0.049
0.035
-0.008
0.068
-0.003
-0.030
-0.013
-0.016
0.057
-0.035
0.008
0.100
0.050
0.010
-0.029
-0.036
0.013
-0.002
0.136
0.124
-0.049
0.067
-0.067
0.042
0.039
0.030
0.026
0.071
-0.039
-0.010
0.048
0.005
-0.058
0.007
0.078
-0.043
-0.110
-0.001
0.107
0.036
-0.028
0.011
0.011
0.073
-0.081
0.022
0.090
-0.018
0.007
0.019
0.011
0.005
0.093
0.001
0.001
-0.037
0.066
0.104
-0.058
-0.031
-0.055
0.021
0.104
0.055
-0.002
0.011
-0.032
0.063
0.024
-0.032
-0.047
0.106
0.066
-0.073
0.105
0.024
-0.003
-0.007
0.055
-0.020
0.087
-0.019
-0.042
0.013
-0.003
-0.005
0.128
0.040
-0.002
0.036
0.025
-0.022
-0.107
0.054
-0.042
0.151
0.077
0.041
0.011
-0.002
0.041
-0.063
0.033
0.022
0.057
-0.043
0.010
0.012
0.057
0.086
-0.027
0.053
-0.033
-0.042
0.032
-0.007
0.032
-0.013
-0.040
0.080
-0.070
0.021
0.049
0.078
-0.046
0.004
-0.030
0.024
0.099
0.056
-0.082
-0.043
0.031
0.100
0.027
-0.078
-0.019
0.054
0.011
0.055
0.055
0.061
0.021
0.038
0.070
0.069
-0.108
-0.110
0.131
0.070
-0.025
-0.065
0.172
-0.104
-0.041
-0.042
0.070
0.077
0.029
-0.040
0.107
-0.020
0.026
-0.018
-0.029
0.060
0.089
-0.013
0.019
-0.014
0.046
0.019
0.041
-0.012
0.008
-0.020
-0.062
0.110
-0.083
-0.012
0.016
0.117
0.060
-0.025
0.081
0.098
-0.088
0.025
-0.025
-0.037
-0.083
0.086
0.076
0.026
0.041
0.102
-0.021
0.046
0.082
-0.017
0.074
-0.010
0.012
0.057
0.024
0.003
0.114
-0.069
0.047
0.027
0.026
0.056
0.127
-0.052
0.032
0.016
-0.031
0.046
0.029
0.042
-0.033
0.084
0.002
0.006
-0.096
0.053
0.056
0.023
0.016
0.040
-0.000
-0.054
-0.011
-0.011
0.007
0.084
-0.006
-0.038
0.099
0.089
-0.051
-0.094
0.018
0.093
-0.027
0.006
0.054
0.054
0.019
-0.020
0.091
0.015
0.101
0.100
-0.039
0.016
-0.042
-0.001
0.073
0.136
0.058
-0.088
-0.055
0.071
0.052
0.040
-0.062
0.059
-0.009
0.013
0.009
0.069
-0.035
-0.049
0.036
0.076
-0.012
0.044
0.081
-0.087
-0.015
0.095
-0.064
-0.027
0.090
0.004
-0.014
0.039
-0.049
-0.139
0.033
-0.029
0.112
0.097
0.080
-0.059
0.052
0.025
-0.039
0.074
0.030
0.057
0.059
0.148
0.046
-0.081
0.008
0.071
-0.004
0.027
0.049
-0.029
-0.024
0.088
-0.049
0.072
0.037
-0.082
-0.022
0.145
-0.059
0.092
0.072
0.034
-0.095
-0.050
-0.044
0.129
0.018
-0.038
0.037
0.037
-0.060
0.000
0.150
0.099
-0.059
-0.030
0.091
0.019
0.019
0.068
-0.028
0.079
0.133
0.022
-0.055
-0.027
0.062
-0.013
0.018
-0.009
-0.036
0.024
0.081
0.070
-0.055
0.019
0.056
0.018
-0.009
-0.057
0.071
0.177
0.024
-0.118
0.020
0.060
-0.002
-0.083
0.021
0.033
-0.028
0.010
0.021
0.036
-0.014
0.065
0.118
0.045
-0.040
0.020
0.066
0.050
-0.061
0.029
-0.083
0.034
0.116
0.004
0.067
-0.048
0.038
0.002
0.054
0.105
-0.079
-0.007
-0.086
0.040
-0.000
0.112
0.003
-0.023
-0.046
0.008
-0.037
0.096
-0.080
0.021
0.092
0.101
0.012
0.041
-0.001
0.003
0.016
0.049
0.010
-0.014
0.077
0.040
0.046
0.018
-0.066
-0.020
-0.024
-0.012
0.011
0.012
0.036
0.029
0.098
-0.019
0.067
-0.006
-0.037
0.123
0.012
-0.013
0.013
0.028
0.069
0.018
0.035
0.097
0.018
0.012
0.017
-0.004
0.067
-0.000
0.124
-0.059
0.004
-0.024
0.040
0.089
-0.019
0.070
-0.041
-0.029
-0.003
-0.002
0.040
0.051
-0.026
0.016
-0.001
0.089
0.056
0.095
-0.044
0.079
0.000
0.015
-0.041
0.051
0.019
-0.079
0.123
0.114
-0.088
0.021
0.026
-0.007
0.041
0.098
0.004
-0.011
0.043
0.005
0.058
0.043
0.062
0.008
-0.012
-0.015
0.074
0.049
-0.055
0.061
0.021
0.074
-0.036
0.089
0.008
0.079
-0.053
0.009
-0.038
0.012
0.051
0.060
-0.016
0.057
-0.007
-0.027
0.028
-0.005
-0.015
0.026
-0.005
0.079
0.052
-0.025
-0.042
0.006
-0.007
0.051
0.014
0.105
0.001
0.040
-0.018
0.010
-0.007
0.033
-0.059
0.006
0.099
0.006
0.005
0.021
0.021
0.090
-0.117
0.078
0.001
0.129
0.052
-0.016
0.007
0.011
0.011
0.001
0.058
-0.011
-0.025
-0.004
0.162
-0.001
0.009
0.012
-0.057
-0.047
0.064
0.108
-0.035
0.059
0.002
0.054
0.077
-0.007
0.044
0.021
-0.017
0.024
0.023
-0.132
0.070
0.051
0.005
-0.091
0.015
0.054
0.028
-0.022
0.065
0.018
0.007
0.080
-0.064
-0.016
0.019
0.038
0.039
-0.014
0.133
-0.071
0.019
0.043
0.039
0.065
0.058
-0.020
-0.034
-0.015
0.095
-0.084
0.031
0.124
0.050
0.036
-0.042
0.013
0.067
0.050
-0.010
0.000
0.021
0.108
-0.065
-0.057
0.080
-0.007
0.029
0.014
-0.015
-0.081
-0.014
0.055
0.059
-0.032
-0.013
-0.036
-0.022
0.114
0.037
0.102
-0.070
-0.009
-0.016
0.165
-0.006
0.073
-0.002
-0.025
-0.001
0.026
0.018
0.058
0.042
-0.002
-0.022
-0.029
0.060
0.067
-0.018
0.043
-0.030
0.030
-0.111
0.021
0.078
0.090
0.011
-0.026
0.006
-0.038
0.045
0.112
-0.046
-0.074
0.073
0.058
0.054
0.072
-0.013
-0.062
0.097
0.044
0.006
-0.056
0.126
0.077
-0.072
-0.027
-0.088
0.117
0.010
0.067
-0.051
-0.057
-0.069
-0.032
0.050
0.149
-0.046
0.072
-0.047
0.060
0.054
0.014
0.024
-0.010
0.016
0.137
0.043
-0.045
-0.069
0.102
-0.032
0.082
0.138
0.014
-0.049
0.077
0.044
-0.013
0.108
0.091
0.006
0.029
-0.026
-0.060
0.024
0.157
0.036
0.026
-0.024
-0.023
0.005
0.017
0.047
-0.006
0.023
0.068
0.033
0.017
-0.073
-0.034
-0.000
0.046
0.105
0.084
-0.032
0.034
0.074
0.119
0.038
-0.021
0.016
0.048
0.046
-0.001
-0.023
-0.054
0.068
0.075
0.016
0.058
0.015
0.048
-0.035
0.079
0.034
0.073
-0.006
-0.018
0.060
0.075
0.053
-0.044
0.011
0.045
-0.002
0.004
0.026
0.035
0.088
0.151
-0.039
0.042
-0.057
0.034
0.057
-0.012
0.113
0.039
-0.034
-0.097
0.024
-0.060
0.157
0.084
-0.036
0.150
0.092
0.038
-0.100
-0.118
-0.002
-0.008
0.001
0.064
0.029
0.091
-0.009
-0.026
-0.041
0.073
0.026
-0.018
0.026
0.105
-0.043
-0.039
0.034
0.091
0.083
-0.063
-0.047
0.076
0.088
0.069
-0.078
0.022
0.125
0.036
0.104
-0.002
0.072
0.031
-0.052
-0.002
0.026
0.004
0.041
0.054
-0.021
-0.089
-0.008
-0.075
0.051
0.146
-0.041
-0.079
0.137
0.077
0.046
-0.054
0.026
0.084
0.077
0.040
0.000
0.037
0.007
0.056
0.006
-0.018
-0.027
0.066
-0.019
-0.029
0.026
0.075
0.050
-0.003
-0.062
0.088
0.056
0.016
0.043
-0.000
-0.068
0.009
0.045
0.063
0.123
0.016
-0.032
0.025
-0.068
0.030
-0.023
-0.009
-0.025
0.080
0.022
0.066
0.087
0.004
-0.016
-0.002
0.061
-0.010
0.037
0.068
0.125
-0.069
0.007
0.037
-0.006
0.161
-0.152
-0.041
0.060
0.108
-0.017
0.058
-0.052
-0.001
0.004
-0.046
0.050
0.007
0.092
0.089
0.069
0.022
-0.004
0.005
-0.087
-0.016
0.099
0.055
0.133
-0.038
-0.014
0.085
0.010
-0.046
0.004
-0.060
0.071
-0.036
0.117
0.053
0.023
-0.020
0.028
0.016
0.057
0.035
-0.037
0.038
0.027
-0.019
0.075
0.096
-0.011
-0.056
0.043
0.023
0.036
0.097
-0.030
-0.019
0.019
0.044
0.017
-0.039
0.139
0.067
0.038
-0.054
-0.109
0.083
-0.008
0.000
0.034
0.034
0.104
-0.041
0.082
-0.042
0.114
0.066
-0.018
-0.048
0.009
0.036
0.068
-0.035
0.023
0.046
-0.027
0.022
0.094
-0.060
0.013
0.004
0.023
0.039
0.047
0.015
-0.040
0.050
0.035
0.020
-0.034
0.041
0.042
-0.022
0.074
0.015
-0.052
0.077
0.032
-0.007
0.035
0.058
0.054
0.005
-0.040
0.001
-0.046
-0.037
0.064
0.023
-0.063
0.000
0.081
0.049
0.058
-0.009
-0.019
0.048
0.047
-0.072
0.071
-0.001
0.050
0.006
-0.009
0.026
-0.008
0.064
0.090
-0.078
0.109
0.053
0.027
-0.015
0.062
-0.005
0.016
0.074
0.075
-0.030
0.050
0.023
-0.117
0.101
0.070
-0.005
-0.058
-0.019
-0.014
-0.000
-0.013
0.032
0.016
0.055
-0.018
-0.077
0.065
0.033
0.046
0.054
0.018
0.052
-0.010
0.083
-0.031
-0.080
0.074
0.072
-0.015
-0.064
0.129
0.078
-0.044
-0.098
0.034
0.034
0.133
0.040
-0.017
0.065
0.010
0.099
-0.025
0.012
0.059
-0.054
-0.050
0.021
0.061
0.069
-0.008
0.052
0.049
-0.004
-0.008
-0.157
0.035
0.142
0.055
-0.030
0.067
-0.032
0.065
-0.059
0.049
0.048
0.115
0.018
-0.081
0.012
-0.031
0.059
0.063
0.086
-0.068
0.014
0.068
0.018
0.024
-0.042
0.014
0.105
-0.056
0.022
0.134
-0.021
-0.063
-0.018
0.031
-0.011
-0.021
0.074
0.086
0.024
0.000
0.032
0.024
-0.109
0.047
0.128
0.030
0.010
-0.003
-0.102
0.047
0.017
0.020
0.005
-0.101
0.054
0.070
0.091
0.029
0.042
-0.060
0.036
0.060
0.053
0.045
0.085
-0.050
-0.014
0.021
-0.016
0.165
-0.008
0.029
-0.047
0.026
0.050
-0.012
-0.044
0.012
-0.071
-0.052
0.085
0.035
-0.012
0.010
-0.030
0.091
-0.042
0.030
-0.014
0.053
0.032
-0.078
-0.034
0.105
0.040
0.059
-0.028
-0.023
0.040
0.018
0.009
0.080
-0.113
-0.039
0.036
0.109
-0.004
0.061
0.009
-0.003
0.011
0.097
-0.031
0.061
0.110
-0.014
0.015
0.045
0.061
0.045
0.022
0.019
-0.015
0.001
-0.001
0.026
-0.035
0.028
0.087
0.056
0.012
-0.060
-0.055
0.019
0.030
0.101
-0.015
0.115
-0.017
-0.027
-0.031
0.017
-0.032
0.067
0.084
0.006
0.088
0.022
-0.044
0.012
-0.054
0.076
0.103
0.056
0.047
-0.011
-0.054
-0.063
0.055
0.072
0.044
-0.044
0.074
0.030
-0.003
-0.033
-0.073
0.110
-0.006
0.061
0.040
0.014
0.078
-0.040
-0.003
0.047
0.022
-0.007
0.058
-0.048
-0.017
0.069
0.085
-0.079
0.029
0.065
-0.036
-0.014
0.027
0.014
0.077
-0.011
-0.004
0.087
0.036
0.001
0.014
-0.031
0.046
0.178
-0.049
-0.080
0.038
-0.024
0.073
0.117
-0.020
-0.036
-0.009
-0.015
0.040
0.013
0.044
-0.044
0.028
0.004
-0.007
-0.014
0.119
0.042
-0.001
0.015
-0.019
0.015
0.019
0.081
-0.057
0.013
-0.007
0.078
0.132
-0.044
0.040
0.074
-0.020
-0.047
0.082
0.120
0.004
0.019
0.024
0.029
0.071
-0.099
-0.032
0.055
0.097
0.040
0.002
0.015
-0.087
0.018
-0.027
0.088
0.096
-0.040
0.032
0.012
0.033
-0.033
0.008
-0.001
0.069
0.031
0.015
0.006
0.060
0.053
-0.042
0.004
0.010
0.031
0.015
0.094
0.011
-0.040
0.002
0.123
0.090
-0.150
0.023
0.037
-0.006
0.030
0.006
0.004
0.000
-0.040
0.088
0.047
-0.094
-0.037
0.091
0.083
0.049
-0.013
-0.043
0.067
-0.078
-0.039
0.014
0.061
0.012
0.047
-0.021
0.028
-0.038
0.002
-0.007
0.013
0.005
0.013
-0.076
0.150
0.028
-0.077
0.102
0.029
0.074
0.001
0.003
0.030
-0.048
0.085
0.123
-0.090
-0.011
0.094
-0.034
0.054
-0.112
0.194
-0.086
-0.090
-0.055
0.061
0.033
0.047
0.014
0.068
0.018
-0.127
0.049
0.015
-0.005
-0.012
-0.003
0.058
0.073
0.004
0.008
0.062
0.049
0.060
-0.040
-0.013
0.022
0.064
0.062
-0.022
0.007
0.045
-0.037
-0.044
0.002
0.093
0.054
-0.025
-0.053
0.025
0.002
0.001
-0.040
0.031
0.067
0.032
0.003
-0.015
0.164
0.016
-0.069
0.003
0.005
0.045
0.038
0.040
-0.068
0.093
0.150
0.062
0.002
-0.020
-0.076
-0.005
0.050
-0.045
0.051
0.065
-0.006
0.061
0.036
0.027
-0.023
0.088
-0.026
-0.002
0.075
-0.005
0.044
-0.004
-0.084
0.095
0.102
0.011
-0.113
0.035
0.063
-0.006
-0.010
0.104
0.019
0.072
0.010
-0.048
0.044
0.087
-0.052
0.057
-0.000
-0.054
0.099
0.046
0.088
0.062
-0.026
-0.039
0.015
-0.038
0.085
0.079
0.078
-0.084
-0.045
-0.023
-0.026
0.055
0.043
0.039
-0.077
0.070
0.091
0.033
0.018
-0.036
0.048
0.015
0.033
-0.061
0.035
0.092
-0.081
0.032
0.062
0.084
-0.033
-0.076
0.082
0.078
-0.061
0.014
0.072
0.032
-0.016
-0.039
-0.039
0.094
0.013
-0.060
-0.050
-0.035
0.000
0.084
0.089
-0.001
-0.001
0.037
-0.014
-0.053
-0.011
0.014
0.104
-0.091
0.032
0.024
-0.010
0.039
0.049
-0.020
0.025
0.106
0.040
-0.042
0.034
0.030
-0.003
-0.042
0.138
0.011
-0.016
-0.029
-0.114
-0.015
-0.030
0.073
0.132
-0.019
0.025
0.006
-0.040
-0.078
-0.070
0.165
0.069
0.106
-0.080
-0.053
0.087
0.004
0.085
-0.053
0.076
-0.032
-0.014
0.104
-0.079
0.058
-0.022
0.100
0.005
-0.010
-0.020
-0.056
0.014
0.041
-0.026
0.045
0.029
-0.001
0.004
0.055
0.061
-0.052
0.039
-0.001
-0.063
-0.000
0.090
0.049
0.071
-0.051
0.059
-0.001
0.152
-0.028
-0.037
0.051
-0.015
0.009
0.064
-0.044
0.078
-0.025
0.010
-0.065
-0.076
0.016
0.078
0.064
0.140
-0.128
0.077
0.062
0.049
-0.105
-0.063
0.043
0.035
0.020
0.090
0.049
-0.019
-0.123
0.012
0.018
0.030
0.019
-0.008
0.008
-0.014
-0.057
0.108
0.055
0.046
-0.023
0.029
0.038
0.075
0.096
0.060
-0.009
0.015
0.008
0.057
0.005
0.006
0.001
0.105
-0.048
0.063
0.039
-0.051
-0.004
-0.014
-0.007
-0.004
0.038
0.092
0.031
-0.030
-0.022
0.045
0.026
0.107
0.024
-0.008
0.064
-0.079
0.107
-0.051
-0.048
0.032
0.052
0.022
0.075
-0.049
0.047
0.031
0.051
0.024
0.115
-0.014
0.021
-0.032
0.001
-0.028
0.067
0.017
0.101
-0.030
-0.005
0.020
0.013
0.050
-0.007
-0.034
0.030
0.096
0.037
-0.039
0.021
0.072
-0.035
-0.075
0.072
0.045
-0.035
-0.002
0.066
0.007
-0.037
0.039
0.087
-0.059
0.038
0.075
0.036
-0.034
0.077
-0.053
-0.035
0.039
0.028
0.052
0.014
-0.001
-0.036
-0.055
0.017
0.039
0.111
-0.016
-0.021
0.044
0.010
0.036
-0.020
0.002
0.093
0.008
0.041
-0.028
0.033
-0.019
0.099
0.011
0.033
0.033
0.060
-0.026
-0.067
0.019
0.030
-0.009
-0.070
0.016
0.088
0.013
-0.035
0.057
0.053
-0.043
0.097
0.048
0.058
0.026
0.069
-0.106
-0.050
-0.054
0.134
0.094
-0.058
-0.041
-0.020
0.053
0.052
-0.015
-0.032
0.092
0.061
0.052
-0.012
0.026
0.000
0.015
0.036
-0.036
-0.048
-0.010
-0.043
0.136
0.041
0.028
0.001
0.024
0.006
0.080
0.027
0.057
0.016
0.002
0.058
-0.010
0.007
0.043
-0.037
0.088
-0.036
0.041
0.083
-0.074
0.038
0.021
-0.042
0.103
0.057
0.053
-0.042
-0.031
0.024
0.007
0.027
-0.080
0.062
0.041
-0.047
-0.025
0.059
-0.032
0.060
0.046
0.003
0.074
0.008
0.048
-0.003
-0.130
0.019
0.125
0.044
0.036
0.069
0.000
-0.009
0.015
-0.029
0.038
0.100
-0.007
0.001
0.027
0.034
-0.075
0.008
0.058
0.045
0.051
-0.009
0.106
0.013
0.094
0.002
-0.063
0.086
-0.021
-0.060
0.036
0.018
0.087
0.065
0.022
0.016
-0.028
0.047
0.023
0.004
0.044
0.007
0.062
0.000
0.022
-0.033
0.068
0.019
0.083
-0.008
-0.002
-0.077
-0.030
0.087
0.105
0.007
-0.017
0.044
-0.009
0.030
-0.023
-0.042
0.161
0.006
0.062
0.022
-0.008
-0.003
0.038
0.006
-0.020
-0.022
0.123
-0.067
0.066
0.012
-0.008
0.019
-0.033
0.019
0.130
0.015
0.016
0.039
0.004
0.011
0.070
-0.010
-0.063
0.024
-0.005
0.044
0.066
-0.041
0.028
0.006
0.011
-0.008
0.047
0.022
0.036
0.029
0.099
0.013
-0.017
0.047
-0.010
0.027
-0.025
0.005
0.133
0.035
0.039
-0.042
0.021
0.058
-0.009
0.076
-0.027
-0.226
-0.000
0.004
0.131
0.033
0.031
0.087
-0.034
0.036
0.112
0.047
-0.071
0.005
-0.013
0.097
0.007
-0.005
-0.002
0.030
0.011
-0.072
0.104
0.014
-0.077
0.042
-0.001
0.043
0.077
-0.017
-0.112
-0.008
0.063
0.050
0.077
0.101
-0.001
-0.045
0.008
0.060
0.067
-0.026
-0.102
0.025
0.110
0.013
-0.025
-0.023
0.085
0.037
-0.080
0.020
0.008
0.017
-0.018
0.052
0.035
-0.001
0.050
0.019
0.069
-0.013
-0.043
0.113
-0.024
-0.086
0.175
-0.028
0.029
0.027
-0.022
-0.033
0.009
-0.000
-0.032
0.044
0.003
0.041
0.051
0.043
0.054
0.049
-0.093
-0.041
0.009
0.065
0.025
0.098
-0.003
0.043
-0.020
0.074
-0.018
0.073
0.127
-0.026
-0.008
0.108
0.019
-0.008
0.029
0.061
-0.024
-0.033
0.031
0.051
0.025
-0.023
0.039
0.051
-0.019
-0.042
0.077
0.020
0.039
0.010
0.090
0.046
-0.071
0.089
-0.079
0.079
0.057
0.016
0.011
0.120
0.011
0.071
0.085
-0.011
0.056
0.079
0.076
-0.087
-0.024
0.047
0.045
0.026
0.030
0.027
0.064
-0.011
0.043
0.054
0.025
-0.012
-0.047
-0.042
-0.014
0.062
0.003
-0.035
0.000
0.075
-0.008
-0.069
0.007
0.063
0.011
-0.003
-0.016
0.004
0.054
0.049
-0.011
-0.036
0.052
0.049
-0.023
0.013
0.067
0.032
0.077
-0.129
-0.018
-0.017
-0.065
0.100
0.088
-0.055
0.089
0.066
0.045
-0.043
-0.032
0.073
0.110
0.013
-0.053
0.015
0.016
-0.054
0.045
0.020
-0.127
0.130
0.006
-0.039
-0.004
0.011
0.016
0.038
0.067
-0.068
-0.072
0.027
0.012
-0.010
-0.029
0.171
0.033
-0.019
0.034
-0.072
0.015
-0.022
0.020
0.095
-0.028
0.017
0.048
0.046
-0.107
0.070
0.075
-0.048
0.035
0.057
0.090
0.027
-0.016
0.027
0.052
0.044
0.015
0.028
0.098
0.088
0.069
-0.092
-0.006
0.035
0.003
0.030
0.074
0.081
0.049
-0.008
0.040
-0.027
-0.040
-0.034
0.079
-0.030
0.101
-0.004
-0.027
-0.034
0.073
0.022
0.010
0.017
0.023
-0.008
0.079
0.138
0.079
-0.057
0.062
0.013
-0.043
-0.045
-0.001
0.060
0.039
-0.007
0.009
0.041
-0.034
0.016
0.092
0.154
0.014
-0.060
-0.062
0.039
0.013
0.001
0.064
0.013
0.002
0.036
0.055
0.055
0.024
-0.039
0.038
0.091
-0.014
0.003
-0.041
0.038
0.065
-0.051
0.129
-0.010
0.069
0.029
-0.044
-0.018
0.084
0.037
-0.007
-0.037
-0.017
0.047
-0.023
0.014
0.081
-0.003
-0.068
0.046
-0.014
0.061
0.026
-0.024
-0.020
-0.041
0.010
0.090
0.070
-0.022
-0.024
0.001
0.105
0.103
0.038
0.040
-0.132
0.047
-0.024
0.013
-0.022
0.050
0.061
-0.016
0.025
0.041
0.027
-0.091
0.014
0.056
0.103
0.003
-0.039
-0.077
0.045
0.030
-0.010
0.087
0.014
-0.002
0.064
0.117
0.010
-0.041
-0.053
-0.078
0.070
0.075
0.010
-0.006
0.057
-0.038
0.084
-0.012
-0.053
0.053
0.042
0.080
0.021
-0.010
0.018
-0.010
-0.010
0.035
-0.017
-0.040
0.086
0.055
-0.002
-0.081
0.012
-0.045
0.069
0.052
0.037
-0.023
0.023
-0.048
0.043
0.031
0.136
-0.084
0.014
-0.006
-0.013
0.023
0.062
0.093
-0.003
-0.018
-0.021
0.067
0.083
0.119
-0.047
-0.063
-0.006
-0.031
0.025
0.071
0.007
0.098
0.023
0.133
0.012
0.020
-0.002
0.020
-0.001
0.075
0.005
-0.021
0.050
-0.077
0.008
0.111
-0.022
0.080
0.050
0.098
-0.099
0.022
0.026
0.043
0.020
-0.069
0.021
-0.040
0.024
0.117
-0.087
0.027
-0.054
0.071
0.043
-0.034
0.024
0.088
0.054
0.053
0.047
0.097
-0.022
-0.021
0.047
0.030
-0.037
-0.030
0.017
0.028
-0.080
0.036
0.082
0.053
0.028
0.032
-0.023
-0.025
0.093
0.015
0.007
0.058
0.074
-0.011
0.097
-0.046
0.020
0.022
-0.081
0.070
-0.063
0.020
0.046
-0.043
0.009
-0.040
0.075
0.033
0.003
0.059
0.047
-0.095
0.082
0.116
-0.000
0.002
0.032
0.066
0.055
0.017
0.008
0.034
-0.069
-0.083
0.015
0.071
0.028
0.028
-0.086
-0.104
0.010
0.109
0.050
-0.017
0.052
0.003
-0.066
0.049
0.103
0.026
0.065
-0.057
0.005
0.039
0.027
-0.099
0.146
-0.024
-0.001
0.061
-0.020
0.028
-0.005
0.111
-0.008
0.108
0.027
0.023
0.016
0.057
-0.081
0.031
-0.034
0.069
0.042
0.055
0.082
0.015
-0.005
-0.029
-0.008
0.006
0.149
-0.022
-0.101
0.016
0.036
-0.023
0.042
-0.002
0.084
0.029
-0.008
-0.015
-0.056
0.021
-0.034
0.173
-0.020
0.089
0.032
-0.028
0.025
0.034
-0.020
-0.018
0.055
0.092
-0.016
-0.022
0.055
0.023
-0.027
0.094
0.026
0.051
-0.001
0.025
0.037
0.071
0.027
-0.044
0.044
0.067
0.060
0.053
0.020
-0.040
0.003
0.119
0.065
0.091
-0.016
-0.005
-0.021
0.013
0.025
-0.056
0.016
0.095
0.057
-0.077
0.126
-0.004
0.009
0.023
-0.050
0.054
-0.025
-0.029
0.047
-0.033
0.003
0.071
0.022
0.033
-0.066
0.061
0.090
0.059
0.014
0.008
0.059
-0.025
0.042
0.016
0.009
0.072
0.036
0.067
0.097
0.050
0.036
0.062
0.030
0.040
-0.056
-0.027
0.069
-0.046
0.032
0.023
0.010
-0.024
0.048
-0.002
-0.088
0.041
0.042
0.027
0.090
0.001
-0.033
-0.012
0.015
0.005
0.124
-0.011
-0.055
-0.031
0.026
0.070
0.047
0.003
0.045
0.072
0.028
0.119
-0.082
-0.103
0.100
0.016
0.069
-0.014
0.056
0.006
0.026
0.005
-0.003
0.036
0.067
-0.026
-0.125
0.087
0.078
-0.030
0.016
0.071
0.037
0.046
0.083
0.015
0.061
0.080
-0.047
0.041
0.000
0.024
0.028
-0.063
0.088
-0.032
-0.004
-0.002
0.075
0.125
0.005
-0.048
0.078
0.058
0.062
-0.035
0.166
-0.032
-0.084
0.084
0.003
0.081
-0.026
-0.044
0.001
0.020
-0.025
0.041
0.116
0.061
0.005
0.040
0.065
0.049
-0.017
0.151
0.017
-0.064
0.015
0.023
-0.001
0.044
0.065
0.009
0.018
-0.025
0.000
0.080
-0.040
0.068
-0.017
0.111
0.001
-0.033
0.089
-0.009
0.057
-0.073
0.034
0.007
0.094
-0.005
0.090
0.046
0.108
-0.131
0.071
-0.017
-0.024
0.077
0.046
0.024
0.041
0.009
-0.054
0.054
-0.038
0.043
0.053
0.020
-0.030
0.001
0.067
-0.045
0.036
0.015
-0.075
0.023
0.058
0.050
0.071
-0.107
-0.074
0.038
0.091
0.038
0.054
0.077
0.035
0.048
-0.043
-0.087
0.088
0.128
0.076
-0.069
-0.044
-0.035
0.081
0.080
0.076
-0.083
-0.015
-0.028
0.109
0.065
0.020
-0.040
0.071
-0.079
-0.078
-0.026
0.093
0.029
0.085
-0.073
0.021
0.025
0.058
0.025
0.029
-0.024
0.075
0.001
0.078
-0.069
0.004
-0.016
0.136
-0.006
0.009
0.049
0.059
0.061
0.023
0.051
-0.004
0.017
0.020
0.095
0.024
-0.199
0.016
0.088
0.000
-0.005
0.083
0.009
0.029
0.033
0.065
-0.004
-0.036
0.103
0.016
0.043
-0.012
0.090
-0.049
-0.021
0.113
0.021
-0.019
-0.045
0.020
0.099
0.069
0.042
-0.017
-0.030
-0.005
0.004
0.026
0.081
0.089
0.037
-0.068
0.097
-0.019
0.034
-0.016
-0.008
0.033
0.027
0.020
0.091
-0.017
0.009
-0.024
0.101
0.080
-0.008
0.044
-0.005
0.082
-0.005
0.077
-0.008
0.052
0.060
-0.055
-0.011
0.031
0.026
0.077
0.015
-0.011
0.069
0.056
-0.045
-0.052
0.030
0.073
-0.015
-0.033
0.117
0.004
0.044
-0.066
-0.091
0.040
0.127
0.013
0.053
-0.018
-0.004
0.048
-0.004
0.015
0.022
0.096
-0.039
0.024
0.118
0.069
0.047
0.021
0.043
-0.048
0.059
-0.009
-0.028
0.005
-0.073
0.109
0.093
0.059
0.006
-0.104
0.048
0.060
0.005
0.006
0.024
0.024
-0.014
-0.037
0.119
-0.042
-0.089
0.015
0.018
0.043
0.050
0.005
0.087
-0.069
0.093
0.102
0.032
-0.106
-0.019
0.043
0.016
0.056
0.024
-0.017
0.060
-0.012
0.071
0.028
-0.056
0.055
0.055
0.087
0.020
-0.018
0.030
-0.101
0.008
0.054
0.082
0.014
0.015
-0.050
0.059
0.075
0.008
0.073
-0.005
0.014
0.057
0.036
-0.055
0.029
0.032
0.108
-0.053
0.067
0.039
-0.008
0.060
-0.019
0.038
0.089
0.005
0.061
0.030
0.059
-0.001
-0.004
-0.104
0.063
0.033
0.087
-0.061
-0.068
-0.046
0.058
0.077
-0.012
-0.042
0.053
0.008
-0.064
0.046
0.113
0.063
-0.047
-0.044
0.079
-0.001
0.071
0.017
0.027
-0.075
0.056
-0.049
0.131
0.043
-0.041
-0.008
0.038
0.082
-0.012
0.029
0.027
-0.035
0.075
0.048
0.051
0.008
0.029
0.018
-0.002
-0.001
0.023
0.046
0.081
0.026
-0.012
-0.083
-0.056
0.077
0.063
0.020
0.025
-0.046
-0.068
0.054
0.045
0.031
-0.005
0.020
-0.065
0.018
0.073
-0.004
0.062
-0.030
0.007
0.032
0.086
-0.074
0.000
0.082
0.038
-0.068
0.034
-0.023
0.022
0.065
0.042
-0.023
0.058
-0.076
0.091
0.058
-0.022
-0.030
0.067
0.046
-0.015
0.036
-0.031
0.051
0.035
0.110
0.050
0.005
0.009
-0.067
0.000
0.040
0.015
0.008
-0.028
0.111
0.065
-0.053
-0.089
0.095
0.097
-0.007
0.029
-0.035
-0.015
-0.008
0.121
-0.005
-0.048
-0.026
0.040
0.068
-0.005
-0.075
0.012
0.013
0.093
-0.067
-0.005
0.122
0.012
-0.011
-0.009
0.013
0.127
0.030
-0.003
-0.106
0.104
-0.006
0.032
0.019
0.003
0.023
-0.024
0.101
0.017
0.077
0.001
-0.023
0.026
0.069
-0.097
0.010
0.020
-0.034
0.036
0.059
0.058
-0.063
0.084
0.084
0.048
-0.030
-0.067
0.061
0.095
-0.010
-0.001
-0.122
-0.026
0.113
0.089
0.056
0.040
-0.099
-0.016
0.083
-0.059
0.079
0.069
-0.014
0.047
0.008
-0.012
0.035
0.044
0.010
-0.001
0.075
0.015
-0.034
-0.047
0.068
0.073
0.007
0.081
0.019
-0.005
-0.032
-0.014
0.055
0.064
-0.062
0.008
0.007
-0.029
0.120
-0.037
-0.094
0.030
0.042
0.093
0.073
-0.032
-0.093
-0.103
0.012
0.056
0.083
-0.023
-0.014
0.021
-0.083
0.113
0.039
-0.032
-0.008
0.086
0.127
-0.010
-0.043
0.070
-0.067
0.076
-0.049
0.074
0.052
-0.020
-0.072
0.042
0.103
0.036
0.035
-0.079
-0.056
0.168
-0.042
0.014
0.051
0.129
-0.050
-0.007
0.024
0.078
-0.033
-0.025
0.054
0.084
-0.024
0.019
0.025
0.081
0.008
-0.072
-0.083
0.027
-0.031
0.000
0.105
0.015
0.046
0.031
0.078
0.084
-0.052
-0.103
-0.004
-0.000
0.099
0.093
-0.008
0.083
-0.010
-0.050
0.014
0.092
0.066
0.026
-0.083
0.044
0.128
-0.019
-0.034
-0.010
0.052
0.026
-0.034
0.028
-0.007
0.101
0.041
0.118
-0.066
0.136
0.006
0.006
0.055
-0.042
0.029
0.057
-0.001
-0.040
0.003
0.006
0.103
0.044
0.019
0.062
-0.098
-0.044
-0.089
0.121
-0.045
0.075
0.024
0.007
0.014
0.028
0.022
-0.107
0.084
0.020
0.135
-0.089
0.084
0.029
-0.028
-0.079
0.011
0.031
0.103
0.053
0.005
0.049
0.046
-0.065
0.069
0.047
-0.046
0.011
0.062
0.121
0.070
-0.043
-0.012
0.004
0.113
0.060
-0.017
0.015
-0.042
0.057
-0.015
0.000
0.099
-0.054
0.043
-0.087
0.005
0.068
0.109
0.042
-0.078
0.084
0.175
-0.043
-0.087
0.108
0.140
-0.153
0.003
0.057
0.095
-0.024
0.089
0.001
-0.004
0.037
0.024
0.014
0.028
-0.044
0.011
-0.082
0.087
0.152
0.044
0.022
-0.075
-0.069
-0.018
-0.037
0.118
0.075
0.100
-0.042
-0.003
-0.041
-0.001
0.075
-0.008
0.026
-0.000
0.047
-0.040
-0.039
0.024
0.099
0.033
0.067
-0.024
0.135
0.008
0.025
-0.061
0.058
0.008
-0.009
0.102
-0.033
0.020
-0.013
0.068
-0.051
0.016
0.064
0.061
-0.119
0.000
0.076
0.016
-0.045
0.024
-0.077
0.032
0.005
-0.034
0.009
-0.029
0.159
0.129
-0.050
0.045
-0.078
-0.021
-0.008
0.074
0.014
0.074
-0.003
0.056
0.139
0.006
-0.097
0.030
0.049
-0.001
0.049
0.090
0.000
-0.032
0.011
-0.083
0.002
0.049
-0.012
0.144
-0.006
0.082
-0.084
0.030
-0.001
0.089
0.028
-0.052
0.100
0.100
0.122
-0.071
-0.124
-0.003
-0.036
0.056
0.037
0.043
0.003
0.009
0.010
0.018
-0.038
-0.002
0.145
0.017
-0.044
0.021
-0.032
0.123
-0.015
0.005
0.054
-0.061
-0.016
0.037
0.039
0.062
0.050
0.058
-0.048
0.019
0.038
-0.036
-0.013
-0.038
0.019
0.132
0.022
0.020
-0.061
0.030
0.007
-0.032
0.044
-0.082
-0.008
0.080
-0.034
0.078
-0.110
-0.032
0.034
0.044
0.037
-0.052
0.049
-0.012
0.073
0.002
-0.075
-0.016
0.107
0.062
-0.084
-0.037
0.074
0.003
-0.060
0.134
0.015
0.137
0.053
0.024
-0.021
0.021
-0.007
-0.024
-0.012
0.021
0.037
-0.032
0.075
-0.021
-0.014
-0.062
0.084
-0.046
-0.063
-0.012
0.046
-0.012
0.022
0.071
0.057
-0.026
-0.058
0.088
-0.010
0.054
-0.101
0.057
0.076
0.002
-0.012
0.051
0.021
-0.004
-0.009
0.022
-0.046
-0.004
0.049
0.044
0.020
0.091
-0.015
-0.038
0.080
0.074
0.062
-0.101
0.129
0.020
0.021
0.029
0.038
0.043
-0.093
0.086
0.072
0.016
-0.064
-0.029
0.046
0.027
-0.008
0.007
0.071
-0.026
0.002
-0.086
-0.016
0.125
0.002
-0.024
-0.001
-0.024
0.026
0.096
-0.045
0.092
0.054
-0.019
-0.060
0.047
-0.032
-0.063
0.048
0.105
-0.030
0.032
0.078
0.039
-0.014
-0.061
0.143
0.155
0.038
-0.087
-0.044
0.076
-0.029
0.001
0.058
0.035
0.043
-0.024
0.000
0.059
0.003
0.057
0.024
0.057
-0.117
0.070
-0.047
0.068
0.088
0.005
0.020
0.020
0.030
-0.019
0.028
0.014
0.044
-0.028
0.046
0.064
0.055
-0.067
0.079
0.054
-0.036
-0.016
0.030
0.051
0.015
-0.048
0.011
0.033
0.085
0.001
-0.052
0.034
-0.002
0.053
0.091
-0.096
0.067
-0.044
0.016
0.078
0.061
-0.071
0.045
0.027
0.046
0.058
-0.059
0.135
-0.024
0.066
-0.017
-0.008
0.075
0.001
-0.026
0.045
-0.008
0.171
0.003
0.027
-0.057
0.012
-0.051
0.022
0.059
0.055
-0.036
-0.086
-0.016
0.008
0.073
0.031
-0.034
-0.048
0.014
0.043
-0.030
0.105
0.104
0.102
-0.068
-0.031
-0.032
-0.109
0.042
0.046
0.116
-0.033
-0.012
0.039
0.042
0.006
-0.008
0.005
0.059
0.038
0.006
0.008
-0.030
0.031
-0.023
-0.012
0.067
0.010
0.022
0.039
0.002
0.034
-0.065
0.092
0.068
0.132
-0.114
0.082
0.097
0.069
-0.097
-0.043
-0.012
0.127
0.038
-0.022
0.068
-0.005
0.067
-0.007
-0.063
-0.004
-0.008
-0.006
0.028
-0.005
-0.083
0.036
0.088
-0.024
-0.064
0.045
-0.000
0.030
0.070
0.090
0.052
0.019
-0.019
0.012
0.054
0.091
0.065
0.049
-0.010
0.047
-0.025
0.007
0.092
-0.031
0.014
0.059
0.014
0.034
-0.047
-0.025
-0.028
-0.013
-0.010
-0.030
0.144
0.018
-0.022
-0.027
-0.026
0.007
0.014
0.014
0.083
0.013
0.086
0.008
-0.042
-0.013
-0.018
0.038
0.054
0.027
0.009
0.016
-0.076
0.087
0.100
-0.011
0.078
0.015
-0.045
0.012
-0.096
0.025
-0.041
-0.063
0.066
0.081
0.108
0.035
-0.006
-0.056
0.050
0.022
-0.054
-0.050
0.068
0.047
0.034
-0.046
0.055
-0.087
-0.066
0.121
0.047
-0.024
0.011
0.016
0.051
0.049
0.022
-0.044
-0.007
-0.014
0.136
0.042
-0.020
0.049
0.067
0.051
0.011
0.005
-0.055
-0.006
0.012
-0.021
0.063
0.048
-0.036
-0.016
-0.041
0.047
0.048
0.016
-0.005
-0.004
-0.032
0.040
0.003
-0.015
0.052
-0.072
0.014
0.102
0.002
0.113
0.052
-0.098
0.082
0.064
0.057
-0.022
0.046
-0.019
-0.006
0.037
0.057
0.037
-0.002
0.014
-0.014
-0.025
0.001
-0.017
0.016
0.074
0.059
-0.055
0.046
-0.007
0.017
0.035
-0.019
0.031
0.051
0.055
-0.147
0.008
0.016
0.063
0.064
-0.045
0.021
-0.011
0.010
0.001
-0.012
0.135
-0.018
0.057
0.004
-0.038
0.105
0.018
0.009
0.023
-0.091
0.048
0.075
-0.001
0.035
-0.018
0.067
-0.042
0.002
-0.070
0.100
0.093
0.032
-0.082
0.037
0.007
0.028
0.023
0.027
0.105
-0.023
0.042
0.017
0.066
-0.088
-0.020
0.049
0.048
0.019
0.027
0.038
0.045
-0.055
0.014
-0.052
0.041
0.028
0.005
0.004
0.065
-0.009
0.069
-0.016
-0.009
0.097
-0.001
-0.034
0.041
-0.076
0.067
0.024
0.039
-0.037
-0.020
0.082
0.010
-0.032
0.005
0.074
0.006
0.055
-0.003
0.025
0.049
-0.014
-0.015
0.066
0.008
0.087
0.019
0.033
-0.032
0.001
-0.031
0.090
0.043
-0.025
-0.042
0.050
0.013
0.071
-0.041
0.135
-0.040
0.079
0.086
-0.037
-0.085
0.025
-0.001
0.049
0.050
0.106
-0.065
0.105
-0.055
-0.108
-0.002
0.089
0.008
0.055
0.078
-0.024
0.007
0.014
0.077
0.025
-0.057
-0.035
0.000
0.078
-0.040
0.084
0.088
-0.081
0.011
-0.014
0.075
-0.003
-0.048
-0.003
0.070
0.035
0.039
0.030
0.039
-0.048
-0.065
0.059
0.096
-0.017
0.095
-0.011
0.118
0.021
0.038
0.007
-0.001
-0.027
0.031
0.050
0.061
0.028
-0.080
0.041
-0.027
0.028
-0.053
0.013
0.127
-0.022
0.056
-0.031
0.024
-0.005
0.017
-0.033
0.021
0.030
0.057
-0.008
-0.049
0.067
0.009
0.023
0.070
0.015
-0.051
0.048
-0.011
-0.122
-0.005
-0.035
0.097
0.021
-0.019
0.047
-0.061
0.014
0.044
0.037
0.054
-0.041
0.012
0.088
0.031
0.042
-0.049
0.230
0.057
-0.060
-0.034
0.004
0.079
0.003
0.064
0.034
0.015
0.004
-0.039
0.011
-0.011
-0.028
-0.011
0.080
-0.022
0.004
0.012
0.006
0.062
-0.034
0.029
-0.039
0.038
0.024
0.067
-0.023
0.104
-0.077
0.102
0.101
-0.005
0.013
0.045
0.047
0.077
-0.076
-0.010
0.004
0.046
0.036
-0.005
-0.039
-0.019
-0.021
0.003
0.093
0.032
0.036
-0.005
-0.036
0.042
0.023
0.012
0.019
-0.014
-0.070
0.033
0.123
0.076
-0.100
0.027
0.089
-0.078
0.010
-0.008
0.139
0.055
0.006
0.068
0.021
0.007
-0.038
-0.004
0.068
0.148
-0.010
-0.046
0.020
0.046
-0.017
-0.042
0.046
-0.015
-0.092
-0.027
-0.006
0.001
0.062
0.086
0.054
0.018
-0.071
-0.057
0.126
-0.079
-0.013
0.045
0.129
-0.021
0.058
-0.092
-0.018
-0.043
0.002
0.069
0.126
0.001
0.014
0.006
-0.004
-0.042
0.010
0.042
0.037
-0.050
0.045
0.023
0.175
0.053
-0.152
-0.043
-0.032
0.074
0.042
0.018
0.087
0.007
0.062
0.001
0.032
-0.053
-0.086
0.030
0.054
0.084
0.072
0.020
-0.033
-0.001
0.110
0.043
0.072
0.006
0.082
-0.055
-0.021
-0.010
0.068
0.041
0.118
-0.039
-0.050
0.047
-0.027
-0.061
-0.008
0.072
0.016
0.038
-0.012
-0.024
0.069
-0.001
0.006
-0.005
0.022
0.019
0.108
0.011
-0.009
0.045
0.015
-0.012
0.033
0.054
0.068
0.052
0.036
-0.022
0.054
0.061
0.023
0.048
-0.038
0.038
0.036
0.021
0.068
-0.092
-0.069
0.032
0.066
0.012
-0.006
0.019
-0.017
0.057
-0.022
-0.038
0.090
0.115
-0.061
0.081
0.057
0.055
-0.100
-0.020
-0.062
0.182
0.048
0.014
0.010
-0.008
-0.020
0.021
-0.011
0.057
0.004
0.021
-0.019
-0.027
0.099
-0.005
-0.064
0.000
0.110
0.010
-0.037
-0.041
0.039
0.078
-0.002
0.026
0.052
0.084
-0.033
0.023
0.000
-0.055
0.097
0.046
0.132
0.046
-0.021
0.041
-0.106
-0.046
-0.005
0.118
-0.012
0.061
-0.012
0.050
0.007
0.013
0.001
0.178
0.058
-0.038
-0.070
0.112
0.039
0.057
0.070
-0.015
0.078
-0.085
0.061
0.102
-0.013
0.019
0.001
-0.011
0.034
0.049
-0.071
0.004
0.081
0.093
0.064
-0.002
-0.105
0.024
-0.011
0.137
0.080
0.020
-0.113
0.006
-0.016
0.064
0.133
0.042
-0.020
-0.075
0.030
0.016
0.111
0.072
-0.048
0.036
0.060
0.018
0.062
0.030
0.047
-0.053
-0.019
0.085
0.013
0.056
-0.031
0.017
0.040
0.088
0.016
0.028
-0.061
0.008
-0.054
0.032
0.099
-0.006
0.046
-0.055
-0.002
-0.032
0.068
0.015
0.129
0.059
-0.042
-0.042
-0.045
0.051
-0.019
-0.082
0.002
0.107
0.063
0.030
0.033
-0.008
-0.090
0.042
0.025
0.091
0.025
-0.060
0.033
0.057
0.004
-0.024
-0.008
-0.014
0.008
0.019
0.150
0.092
-0.035
0.039
-0.038
0.025
0.090
0.069
0.005
-0.038
-0.023
-0.007
0.016
0.019
0.058
0.033
-0.116
0.009
0.085
0.108
0.033
0.017
0.019
-0.010
-0.007
0.096
-0.056
-0.021
0.115
-0.033
0.045
-0.047
0.070
0.090
-0.038
-0.005
0.038
0.043
0.037
0.008
0.040
-0.015
0.011
0.029
0.009
-0.057
0.022
-0.007
0.106
0.064
-0.015
-0.034
-0.030
0.076
0.102
0.003
0.072
-0.006
-0.029
0.028
0.031
-0.045
0.046
0.047
0.057
0.043
0.065
0.059
0.034
-0.100
0.034
0.088
-0.068
-0.017
-0.004
0.021
-0.039
0.050
0.011
0.095
0.004
-0.016
0.013
0.004
0.045
-0.033
-0.036
0.042
0.099
0.023
0.011
-0.091
-0.025
-0.003
0.038
0.047
0.123
0.008
0.003
0.025
0.007
0.030
0.035
0.022
-0.013
0.005
0.073
0.042
-0.025
0.036
-0.008
0.009
-0.100
0.012
-0.025
0.072
-0.028
0.024
0.058
0.005
-0.094
0.120
0.127
0.049
-0.109
-0.015
0.066
0.063
0.059
-0.029
0.049
0.053
0.023
0.058
-0.023
-0.002
-0.060
-0.077
0.090
0.062
0.132
0.012
0.011
-0.055
0.015
0.049
-0.028
-0.044
0.059
-0.014
-0.079
0.074
0.057
0.014
-0.064
0.087
0.021
0.040
0.093
-0.065
0.005
0.104
-0.001
0.085
0.011
-0.051
-0.009
-0.040
0.083
0.053
-0.023
0.004
0.041
0.091
-0.068
-0.002
0.114
0.057
-0.020
0.045
0.108
-0.021
-0.006
0.036
0.055
-0.009
-0.001
0.047
0.051
0.034
0.091
-0.037
-0.018
0.009
-0.004
-0.012
0.008
-0.039
0.079
0.160
0.019
-0.046
0.019
-0.016
0.002
0.069
0.146
-0.004
0.082
-0.054
-0.030
0.033
0.065
-0.063
0.041
0.062
0.093
0.003
0.006
0.033
-0.006
0.090
-0.098
-0.036
-0.024
0.098
0.010
0.148
0.014
-0.044
-0.088
-0.007
0.020
0.077
0.000
-0.012
0.107
0.056
0.055
0.021
-0.050
0.006
-0.023
0.069
0.056
0.050
0.027
0.027
0.076
0.004
0.008
0.093
0.092
0.020
0.062
0.030
-0.048
0.031
-0.019
-0.063
0.034
0.021
0.036
0.067
0.002
-0.040
-0.020
-0.025
-0.021
0.142
-0.009
-0.072
0.078
-0.033
0.025
0.000
-0.027
0.027
0.091
0.037
0.031
0.023
-0.058
-0.046
0.081
0.076
0.055
-0.097
-0.015
0.019
0.038
0.046
-0.008
-0.000
-0.067
0.083
-0.133
-0.014
0.112
0.106
0.033
0.087
-0.011
-0.078
0.059
0.052
-0.007
-0.109
0.105
0.025
-0.038
-0.047
0.042
0.100
0.030
-0.018
-0.005
-0.053
0.051
0.034
0.059
-0.004
0.116
-0.038
0.013
-0.023
-0.134
0.062
-0.022
0.064
0.005
0.052
-0.026
0.011
-0.069
0.105
0.059
0.031
0.038
-0.044
-0.088
0.075
0.059
0.024
-0.020
-0.021
0.073
0.009
-0.034
0.067
0.052
-0.058
0.063
-0.049
-0.009
0.039
-0.008
0.002
0.105
0.037
0.057
0.030
0.060
0.045
-0.026
-0.042
-0.058
0.105
-0.006
0.007
0.076
0.132
0.091
-0.094
-0.018
0.013
-0.024
-0.037
0.025
0.056
0.022
0.112
-0.005
-0.006
0.042
0.019
-0.035
0.010
0.102
0.030
0.008
0.090
-0.032
0.030
-0.012
0.011
0.006
0.099
0.076
0.052
-0.043
0.055
-0.077
0.036
0.060
0.037
0.003
0.012
0.087
-0.049
-0.022
-0.028
0.015
0.066
0.036
-0.017
-0.070
0.072
0.016
-0.091
-0.120
0.177
0.180
0.003
-0.004
-0.094
0.013
0.047
0.054
0.015
0.069
0.044
0.021
0.087
-0.012
-0.007
0.030
-0.074
0.061
0.039
0.017
0.102
0.098
-0.035
-0.101
0.050
0.043
0.088
0.003
-0.040
-0.010
0.049
-0.011
-0.021
-0.038
0.046
0.039
0.046
-0.008
-0.003
0.036
0.030
-0.043
0.103
-0.015
0.038
0.060
0.074
0.019
0.070
-0.006
-0.028
-0.009
-0.005
0.050
0.069
0.006
0.074
0.007
0.063
0.087
0.006
0.005
-0.052
0.005
-0.088
0.029
0.045
0.136
-0.023
0.061
-0.004
-0.011
-0.007
-0.046
0.028
0.047
0.149
0.044
-0.011
0.014
-0.060
0.014
0.094
0.122
0.042
0.009
-0.011
0.025
0.037
0.038
-0.072
-0.016
0.038
0.090
0.019
0.035
-0.042
0.010
-0.002
0.046
0.052
-0.087
0.033
-0.017
0.047
-0.010
0.039
0.112
-0.092
0.044
0.033
0.026
0.031
0.152
-0.023
-0.000
-0.120
0.127
0.064
0.102
0.024
0.032
-0.005
0.045
-0.017
-0.074
0.017
0.088
0.028
0.021
0.068
0.046
-0.037
-0.040
0.024
0.034
0.022
-0.038
-0.015
0.070
-0.005
-0.012
0.021
0.008
-0.000
0.096
-0.034
0.066
-0.016
-0.012
-0.019
0.068
-0.128
0.113
0.136
0.054
-0.022
0.046
0.042
0.006
0.036
0.026
-0.007
0.029
0.076
0.062
-0.025
-0.041
0.001
0.010
-0.023
0.024
0.037
0.029
0.011
0.011
-0.016
-0.016
0.028
0.029
0.019
0.042
0.053
0.057
-0.031
0.016
0.092
-0.048
-0.072
0.051
-0.062
0.008
0.119
0.067
-0.012
-0.009
0.057
0.033
0.075
-0.078
0.039
0.026
0.005
0.058
0.039
0.101
-0.025
0.009
0.053
-0.024
-0.034
-0.030
0.062
-0.009
0.018
0.044
-0.025
0.036
-0.036
0.081
-0.022
0.084
0.054
0.037
0.009
0.016
0.001
-0.092
0.064
0.017
0.100
-0.051
0.113
0.046
-0.033
-0.070
0.017
0.146
0.082
-0.019
-0.065
0.045
-0.005
0.034
0.083
0.001
0.009
0.029
0.060
-0.006
-0.012
0.023
-0.002
0.026
-0.037
0.097
0.148
-0.054
0.073
0.082
0.058
0.030
-0.105
-0.007
0.075
-0.069
0.014
0.066
0.048
-0.009
-0.008
-0.005
0.001
0.075
-0.016
0.088
-0.002
0.086
-0.002
0.028
0.067
0.005
-0.009
-0.058
0.092
0.136
-0.132
0.033
0.059
0.038
0.060
-0.066
0.060
-0.036
0.068
0.050
0.041
-0.058
-0.013
0.010
0.110
-0.077
-0.024
0.038
0.066
0.096
0.104
0.059
-0.084
-0.089
0.084
0.194
-0.009
-0.011
0.072
0.107
0.089
-0.086
-0.108
0.111
0.066
0.019
0.029
0.034
0.064
-0.122
-0.018
0.056
-0.047
0.086
-0.023
0.001
0.071
0.081
-0.012
-0.006
-0.033
0.094
-0.005
0.040
0.065
-0.054
0.119
0.049
0.010
0.001
0.003
0.075
0.020
0.055
-0.006
-0.017
0.076
-0.096
0.067
-0.064
0.011
0.114
0.062
-0.033
-0.008
-0.043
0.004
0.079
0.052
-0.029
0.061
0.032
0.090
0.024
0.065
-0.103
0.004
0.065
0.066
0.055
-0.023
-0.006
-0.043
0.075
0.089
-0.047
-0.031
0.097
-0.004
-0.065
0.010
0.035
-0.033
0.065
0.070
-0.070
-0.003
-0.063
-0.033
0.047
0.054
-0.035
0.057
0.038
-0.080
-0.041
0.032
-0.051
0.037
0.027
0.076
0.059
0.057
-0.045
0.055
-0.004
0.011
0.047
0.072
0.067
-0.006
0.112
0.020
0.034
-0.040
-0.013
0.036
-0.004
-0.014
0.115
-0.053
0.024
0.111
0.002
0.007
0.026
0.017
0.043
0.007
0.061
-0.054
0.056
-0.021
0.063
0.021
-0.004
-0.000
0.005
0.028
-0.042
-0.003
0.001
0.002
-0.097
0.085
0.052
0.042
-0.013
0.016
0.080
-0.019
0.098
0.034
0.025
-0.074
0.002
0.076
0.121
-0.017
0.024
0.022
0.045
0.032
0.138
-0.011
-0.045
0.052
0.042
0.101
0.014
0.034
-0.001
-0.034
0.094
-0.031
0.161
0.057
-0.020
-0.083
0.105
-0.119
0.083
0.062
-0.018
0.032
-0.047
0.000
0.096
0.125
-0.103
-0.028
0.038
0.064
-0.029
-0.038
-0.011
0.093
0.001
0.130
-0.045
-0.012
0.057
-0.028
-0.024
-0.025
0.011
0.052
-0.015
-0.012
0.030
0.072
0.048
0.020
-0.027
0.010
0.105
-0.012
-0.050
-0.049
0.182
0.089
0.070
-0.038
0.004
0.000
0.030
0.029
-0.031
0.076
0.099
0.035
0.020
-0.003
0.076
-0.049
0.000
-0.004
0.039
-0.008
-0.106
0.070
0.004
0.017
0.046
0.036
0.046
-0.062
-0.063
-0.054
0.091
0.049
-0.028
-0.010
0.070
-0.027
-0.008
0.016
0.081
0.063
-0.010
0.094
0.041
-0.132
0.028
-0.013
0.108
-0.027
-0.027
-0.019
0.038
0.066
0.098
-0.083
-0.012
0.080
0.061
-0.085
-0.053
0.077
0.111
0.088
-0.001
-0.033
-0.021
0.025
0.027
0.140
0.115
-0.080
-0.040
0.051
0.042
0.056
-0.040
-0.000
-0.055
0.014
0.056
0.025
0.027
-0.012
0.040
-0.099
-0.024
-0.036
0.046
0.037
0.028
0.073
0.040
-0.066
0.066
0.114
-0.032
0.007
0.044
0.024
0.016
0.044
0.123
0.058
-0.021
-0.001
-0.042
-0.040
0.136
0.083
-0.090
0.077
-0.008
-0.023
0.033
0.053
-0.067
-0.042
0.099
0.088
-0.043
-0.098
0.061
-0.023
0.055
0.143
-0.032
-0.010
0.020
0.085
0.091
0.107
-0.059
-0.007
-0.012
0.096
-0.017
-0.075
0.009
0.107
0.022
0.006
-0.016
-0.019
0.011
0.023
0.069
-0.019
0.005
0.039
-0.063
0.004
-0.022
0.058
0.064
-0.028
0.069
-0.003
0.040
0.045
0.008
-0.003
0.036
0.098
0.002
0.060
0.060
-0.027
-0.023
-0.040
0.029
0.074
-0.017
-0.059
0.043
0.111
0.043
-0.055
0.026
0.178
-0.017
-0.070
0.027
-0.011
0.010
0.055
-0.009
0.037
0.030
0.040
0.084
0.046
-0.030
0.010
0.046
-0.029
0.081
0.054
-0.040
0.067
0.076
-0.034
0.006
-0.012
-0.118
0.099
0.045
0.009
0.037
0.039
0.034
-0.036
0.044
-0.000
0.095
-0.097
0.062
-0.004
0.126
0.134
0.009
-0.121
0.033
0.066
0.012
0.096
-0.075
0.005
0.057
0.059
0.050
0.030
0.031
-0.063
-0.095
-0.020
0.103
0.015
-0.051
0.088
0.085
-0.016
-0.004
0.049
-0.028
0.096
0.047
-0.026
-0.007
-0.028
0.001
0.073
0.019
0.118
-0.033
-0.146
0.104
0.069
0.071
0.027
-0.014
-0.026
0.054
0.014
0.057
-0.010
0.046
0.011
0.130
-0.031
-0.041
-0.037
0.052
-0.030
-0.033
-0.024
0.007
0.055
0.039
0.046
-0.049
-0.030
0.054
-0.026
-0.045
0.078
-0.045
0.171
-0.003
0.025
-0.055
-0.100
0.041
-0.004
0.054
0.118
0.010
-0.012
-0.074
0.182
0.007
0.061
0.018
-0.117
0.019
0.086
-0.029
0.010
0.039
0.020
0.100
0.014
-0.050
-0.043
0.059
0.008
-0.010
0.038
0.092
-0.023
0.004
0.073
0.051
0.014
-0.010
0.017
-0.072
0.019
0.084
-0.005
0.003
0.102
-0.003
-0.045
0.022
0.028
-0.097
0.080
-0.029
0.029
-0.014
-0.046
0.036
0.006
0.100
0.008
-0.023
0.003
0.044
-0.020
-0.004
-0.032
-0.016
0.065
-0.028
0.117
0.032
0.063
0.018
-0.069
0.078
0.033
0.023
0.074
0.007
-0.038
0.027
-0.001
0.054
-0.111
0.075
0.049
0.013
-0.003
0.048
-0.060
-0.039
-0.077
0.038
0.073
0.085
0.068
0.029
0.059
-0.092
0.056
-0.030
0.090
0.016
0.099
0.016
0.027
-0.016
-0.068
-0.046
0.068
0.025
0.116
-0.009
-0.006
0.065
-0.039
-0.009
-0.015
-0.009
0.050
0.107
0.040
-0.025
-0.060
-0.001
0.038
0.041
0.054
0.022
0.023
-0.068
0.032
0.067
-0.038
-0.089
0.113
0.101
0.007
-0.066
0.010
-0.025
0.073
-0.007
0.099
0.141
-0.046
-0.006
-0.004
0.039
0.020
0.066
-0.004
-0.026
0.048
0.026
0.004
0.019
0.046
-0.039
0.019
-0.010
0.012
0.156
-0.052
-0.042
0.032
0.017
0.006
0.008
0.069
0.029
0.052
0.058
-0.053
0.088
-0.042
0.027
-0.029
0.049
-0.047
0.061
-0.099
0.072
0.059
0.058
0.058
-0.025
-0.041
-0.001
-0.036
0.067
0.084
0.093
0.008
-0.025
-0.010
-0.029
0.028
0.010
-0.023
0.072
-0.004
-0.035
0.044
0.026
-0.005
-0.054
0.084
-0.032
0.034
0.022
-0.001
0.025
0.018
-0.047
0.009
0.079
0.080
0.097
-0.028
0.013
0.080
0.029
0.029
0.043
-0.063
0.026
-0.003
-0.007
0.031
0.046
0.004
-0.014
-0.022
0.066
-0.054
-0.022
0.040
0.056
0.052
0.100
-0.057
-0.043
0.018
0.143
0.028
0.091
0.034
-0.027
0.047
-0.014
-0.050
0.049
0.055
-0.047
0.075
-0.027
0.059
-0.037
-0.057
-0.084
0.034
0.097
0.057
-0.079
0.013
0.041
0.043
0.015
0.068
-0.041
0.015
0.185
0.053
-0.029
-0.079
0.039
-0.072
0.038
-0.018
0.064
0.006
-0.025
0.065
0.026
0.002
0.069
-0.015
0.062
0.142
-0.054
-0.082
0.097
0.034
0.037
0.020
0.025
0.100
0.006
-0.011
0.058
-0.046
-0.043
0.035
0.049
-0.010
-0.035
0.051
0.071
0.133
-0.046
0.050
-0.024
0.038
-0.035
0.015
-0.017
0.031
0.030
-0.052
0.069
0.036
0.065
-0.027
0.170
0.014
-0.053
-0.072
0.063
0.063
0.022
-0.002
0.039
-0.037
0.044
-0.018
0.015
-0.033
-0.030
0.000
-0.063
0.096
0.104
0.051
0.023
0.028
0.000
0.022
-0.045
0.033
0.120
0.017
0.017
0.023
0.156
0.147
-0.059
-0.053
0.028
0.058
-0.010
0.000
-0.047
-0.038
0.093
0.084
0.058
0.002
-0.012
0.054
0.038
-0.081
-0.080
0.116
-0.037
-0.023
0.019
0.106
-0.081
-0.050
0.026
-0.007
0.022
-0.007
0.048
-0.024
0.055
-0.032
0.048
-0.003
-0.054
-0.003
0.089
-0.013
-0.026
0.105
-0.050
0.087
-0.003
0.004
0.054
0.035
-0.071
0.034
-0.028
-0.043
0.078
0.191
0.083
-0.060
-0.008
-0.003
0.030
-0.059
0.082
0.052
0.039
0.003
0.016
0.004
0.019
0.009
-0.060
-0.028
-0.010
-0.029
0.046
-0.009
0.075
0.028
-0.121
0.060
-0.101
-0.027
0.053
0.021
0.019
0.036
0.104
0.043
-0.018
-0.131
0.076
0.030
-0.041
-0.055
0.121
0.102
0.059
-0.067
0.093
0.080
0.043
-0.044
0.019
-0.041
-0.005
0.067
0.077
0.022
0.032
-0.024
0.071
0.025
0.045
0.036
-0.088
0.056
0.039
-0.063
-0.040
0.094
0.150
-0.067
-0.010
-0.010
0.035
-0.004
0.068
-0.072
-0.059
0.044
0.090
-0.016
0.019
-0.018
0.093
0.099
0.058
0.005
0.015
0.101
0.090
-0.119
-0.023
0.013
0.058
0.050
-0.006
0.066
-0.056
0.043
0.057
0.045
0.072
0.034
-0.021
-0.046
-0.003
0.012
0.073
0.040
0.004
0.006
-0.010
0.076
-0.006
0.077
0.069
0.028
0.044
0.061
0.036
-0.026
-0.038
0.079
0.073
0.060
0.007
-0.067
-0.005
0.066
0.066
0.003
0.024
-0.034
0.019
-0.007
0.041
-0.031
0.007
-0.054
0.049
0.105
0.129
0.068
-0.035
-0.096
0.044
0.084
-0.027
0.068
0.014
0.098
0.058
0.031
-0.011
-0.046
-0.058
0.079
0.071
-0.049
-0.032
0.091
0.017
0.063
0.048
-0.012
-0.086
0.075
0.036
-0.018
-0.090
-0.011
0.119
0.071
0.002
0.031
-0.041
0.011
0.118
0.011
0.008
-0.069
0.035
0.042
0.009
0.064
0.041
0.036
0.010
0.054
-0.045
-0.059
0.070
0.079
-0.003
-0.022
0.060
-0.052
0.043
0.021
0.059
-0.012
0.019
0.067
-0.025
0.116
-0.017
0.017
-0.010
0.036
-0.011
-0.037
-0.119
0.097
0.058
0.150
-0.076
-0.052
0.121
0.037
-0.027
0.017
0.006
-0.021
-0.039
0.012
0.049
-0.018
0.121
0.065
-0.003
-0.045
-0.054
-0.015
0.057
0.038
0.051
0.104
0.099
-0.051
-0.089
-0.081
0.011
0.144
0.023
0.036
0.124
0.049
-0.042
-0.009
-0.036
0.050
0.068
-0.056
-0.032
0.058
0.131
0.022
-0.053
0.055
-0.103
0.077
0.051
0.067
-0.048
0.016
-0.025
0.018
0.006
0.019
0.011
0.024
0.050
-0.011
0.057
-0.006
0.035
-0.111
0.177
0.123
0.042
-0.147
-0.110
-0.021
0.116
0.119
0.046
-0.030
-0.077
-0.106
0.063
0.135
-0.029
-0.061
0.037
-0.102
0.072
0.077
0.138
0.001
-0.009
-0.009
0.005
0.015
0.000
0.002
-0.002
-0.024
0.072
0.064
0.082
0.027
-0.026
0.030
0.095
-0.076
-0.022
0.110
0.086
-0.010
0.039
0.062
0.012
0.001
0.004
-0.017
-0.044
0.115
0.001
0.045
0.010
0.086
-0.013
-0.083
-0.001
-0.054
0.039
0.084
0.070
-0.031
-0.052
0.008
-0.095
0.064
0.078
0.091
0.044
-0.005
-0.055
-0.024
0.138
0.055
0.042
0.005
0.002
-0.023
0.012
0.073
-0.025
0.020
-0.006
0.015
0.006
0.006
0.046
-0.049
0.070
0.056
0.037
0.029
0.039
-0.060
0.068
0.115
0.105
-0.063
-0.072
0.096
0.012
0.009
0.050
0.030
0.020
0.045
0.079
-0.061
0.051
0.042
-0.035
-0.020
0.043
0.059
0.038
0.055
0.008
-0.028
-0.061
-0.036
0.008
-0.005
0.085
0.010
0.141
-0.032
0.002
0.012
0.005
-0.053
-0.001
-0.015
0.025
0.099
0.041
0.093
-0.019
0.079
-0.045
0.087
0.047
-0.049
0.059
-0.007
0.045
0.013
0.058
0.087
0.086
0.061
-0.073
-0.064
0.053
0.028
0.028
-0.064
0.006
0.074
-0.036
0.007
0.008
0.082
0.039
-0.026
-0.018
0.017
0.087
0.036
0.010
-0.070
-0.049
-0.024
0.147
0.022
0.079
0.083
0.014
0.022
-0.061
0.046
0.125
0.044
0.070
-0.031
-0.082
0.051
0.088
-0.083
0.002
-0.063
0.059
0.034
0.003
0.075
-0.011
0.050
-0.132
0.043
-0.015
0.032
-0.014
0.058
0.035
-0.062
-0.020
0.072
0.112
0.045
-0.064
-0.024
-0.054
0.063
-0.048
0.056
0.089
0.117
-0.035
0.062
0.018
-0.114
-0.006
0.070
0.095
0.018
0.043
-0.074
0.113
0.021
-0.016
0.095
-0.144
0.011
0.029
0.100
0.035
0.032
0.124
-0.055
0.048
-0.036
-0.087
-0.052
-0.026
0.121
-0.013
0.051
0.044
-0.013
0.014
-0.101
0.001
0.041
0.131
0.047
-0.007
0.012
0.010
0.011
0.106
0.068
-0.051
0.107
0.077
-0.020
-0.017
-0.026
0.027
0.011
0.063
-0.047
0.031
0.024
0.009
0.072
0.056
-0.034
0.075
-0.026
-0.027
0.023
0.018
0.036
0.068
0.005
-0.021
0.012
0.033
-0.041
0.008
0.002
-0.002
-0.003
0.059
0.091
-0.020
0.033
-0.057
0.055
-0.002
0.012
-0.029
0.030
0.092
0.063
0.023
0.026
-0.048
0.091
0.047
-0.048
-0.093
0.057
0.076
0.004
0.080
0.069
-0.045
-0.113
0.047
0.129
0.108
0.049
-0.034
0.064
0.066
-0.050
0.042
0.029
-0.012
-0.024
0.027
-0.025
-0.017
-0.055
0.036
0.014
0.039
0.018
-0.002
0.001
0.052
0.035
-0.064
0.005
0.044
0.014
0.067
0.004
0.032
0.130
0.008
0.069
-0.032
0.070
0.060
-0.037
0.008
0.066
0.108
-0.019
-0.059
0.053
0.049
-0.060
0.004
-0.067
0.023
0.097
0.127
0.070
-0.078
0.009
0.116
-0.007
0.054
0.132
0.017
-0.153
0.042
-0.017
0.052
0.011
0.050
-0.009
0.072
0.015
-0.112
-0.040
0.009
0.090
0.074
0.078
-0.025
-0.093
-0.004
0.083
0.071
0.060
0.017
0.150
-0.094
-0.066
0.014
0.008
-0.044
0.027
0.125
0.066
-0.067
0.044
-0.076
0.040
0.044
-0.025
0.109
0.028
0.054
0.007
-0.011
0.047
0.007
0.013
0.020
0.060
0.007
0.080
0.019
-0.015
-0.064
-0.026
0.089
0.047
-0.000
0.025
0.001
0.033
-0.066
0.029
0.001
0.087
0.012
-0.006
-0.080
0.122
0.090
0.013
-0.118
-0.037
-0.006
0.067
0.054
0.083
0.002
0.067
0.050
-0.055
-0.093
0.059
0.094
0.121
-0.034
-0.031
0.018
0.002
0.012
0.075
0.001
0.038
-0.008
0.004
-0.022
-0.010
-0.027
0.028
0.015
0.058
0.047
-0.072
-0.038
0.038
0.145
-0.053
0.094
-0.009
0.020
0.078
-0.063
-0.033
0.052
0.054
-0.067
-0.004
-0.013
0.106
0.007
0.011
0.062
0.056
0.048
0.022
-0.001
0.066
-0.014
0.011
0.094
-0.051
-0.063
0.079
0.015
-0.018
0.021
0.024
0.003
-0.042
0.022
-0.014
0.085
-0.005
-0.011
-0.038
0.042
0.110
0.012
0.025
-0.039
0.051
0.029
0.071
-0.001
-0.000
0.093
0.003
0.086
0.060
0.080
-0.091
-0.027
-0.084
0.052
0.061
0.103
-0.104
0.057
0.000
0.068
0.040
0.032
0.054
0.022
-0.011
-0.023
0.030
0.064
-0.039
-0.020
0.042
0.038
0.081
0.040
-0.014
0.043
-0.010
-0.047
0.063
-0.004
-0.078
0.053
0.120
0.003
-0.127
0.029
-0.009
0.089
-0.061
0.092
0.038
0.112
-0.084
0.035
0.065
0.034
0.112
-0.015
0.008
-0.048
0.100
0.004
0.014
0.039
-0.046
0.037
0.035
-0.066
0.044
0.124
0.112
-0.043
-0.047
0.021
-0.068
-0.035
0.023
0.069
0.018
-0.047
0.067
-0.001
-0.044
0.068
0.080
0.036
-0.039
-0.053
0.139
-0.015
0.018
0.040
-0.038
0.038
0.034
-0.022
0.126
-0.029
0.060
0.020
-0.080
-0.101
0.096
0.064
0.043
0.073
0.002
-0.024
0.056
0.011
0.042
0.019
0.011
0.040
0.014
0.071
-0.039
0.074
0.007
0.010
0.104
0.081
0.036
-0.148
-0.018
0.081
0.112
0.111
-0.045
0.027
-0.019
0.028
-0.005
-0.073
-0.053
0.024
0.041
0.011
0.044
0.015
0.087
0.031
0.034
0.004
-0.051
0.030
0.049
0.044
0.075
-0.020
0.061
-0.023
0.104
0.006
0.009
-0.013
0.031
-0.029
-0.004
-0.007
0.007
0.054
0.102
-0.001
-0.033
0.020
-0.003
0.080
-0.031
0.097
0.046
0.003
-0.047
0.023
0.134
0.022
-0.129
-0.060
0.163
0.050
0.092
-0.045
-0.013
0.033
0.162
-0.108
-0.067
0.050
0.014
0.080
-0.010
0.057
-0.033
0.028
0.018
-0.012
-0.090
-0.085
0.047
0.105
0.080
0.042
0.067
-0.026
0.048
0.122
0.008
-0.044
0.006
0.058
-0.041
-0.021
0.037
-0.011
0.080
0.041
-0.111
0.021
-0.008
0.070
0.007
0.004
-0.024
0.040
0.044
-0.013
-0.016
0.120
-0.007
0.043
-0.000
0.008
0.001
0.058
0.089
-0.118
-0.015
0.033
0.087
0.014
0.016
0.049
-0.061
0.023
0.006
0.040
-0.020
-0.011
0.000
0.050
-0.001
0.019
0.064
0.056
-0.079
-0.040
-0.073
-0.021
-0.007
0.061
0.114
-0.003
-0.011
0.106
-0.017
0.038
0.017
-0.006
-0.012
0.054
-0.048
-0.018
-0.015
0.052
0.122
-0.075
-0.036
0.092
0.041
-0.036
0.100
0.111
-0.021
-0.070
-0.042
-0.002
-0.011
0.084
0.062
0.009
-0.039
-0.007
0.037
-0.014
-0.060
-0.017
-0.011
0.181
0.131
-0.000
-0.112
-0.131
-0.058
0.018
0.140
0.097
0.044
0.059
-0.029
-0.019
0.010
-0.055
0.001
-0.098
0.080
0.024
0.034
0.077
0.047
-0.032
0.018
0.040
-0.024
0.001
-0.025
0.017
0.057
-0.010
0.015
0.053
0.005
-0.071
0.032
-0.011
0.039
0.114
0.027
0.035
-0.029
0.023
0.003
0.051
0.089
-0.044
0.044
0.037
0.010
0.038
-0.018
0.053
-0.004
-0.078
0.055
0.107
0.040
0.041
-0.079
0.002
0.070
-0.030
0.008
-0.065
-0.005
0.056
-0.016
0.058
0.069
0.064
-0.012
0.089
0.002
-0.074
-0.091
0.115
0.198
0.024
-0.055
-0.108
-0.032
0.050
0.112
0.103
-0.030
0.010
0.039
0.009
-0.053
0.116
0.099
-0.056
0.015
0.024
-0.011
-0.002
0.038
0.014
0.025
-0.049
0.051
-0.067
0.100
-0.041
0.012
0.004
-0.022
0.051
0.068
0.070
-0.001
0.110
0.036
-0.083
0.039
0.086
-0.053
0.065
0.029
0.036
0.050
-0.008
0.046
0.007
-0.035
0.029
-0.064
-0.030
-0.007
0.091
0.002
-0.040
0.091
0.096
0.045
0.006
-0.025
0.022
-0.077
0.089
0.082
-0.016
-0.083
0.027
0.073
-0.128
0.014
0.044
0.048
-0.014
-0.052
-0.033
0.041
0.112
-0.014
0.022
0.062
0.227
0.005
-0.053
0.020
-0.085
-0.013
0.025
0.083
0.058
-0.068
0.081
0.012
0.030
0.047
-0.012
-0.019
0.019
-0.030
0.071
0.091
0.018
-0.075
0.133
-0.027
0.124
0.020
-0.074
-0.081
-0.014
0.064
0.092
0.072
0.056
-0.014
-0.040
0.045
0.010
0.125
-0.001
0.032
0.019
0.077
0.036
0.014
-0.033
0.042
0.028
0.052
0.020
-0.039
0.089
0.034
-0.034
0.025
0.072
0.003
0.001
0.034
0.012
0.043
-0.036
0.155
0.115
-0.020
0.006
0.135
0.004
-0.039
-0.038
-0.033
0.055
0.025
0.021
0.039
0.003
0.009
0.008
0.011
0.055
-0.139
-0.004
0.130
0.080
0.033
0.086
0.041
0.127
0.035
0.036
-0.105
-0.061
0.065
0.044
0.056
0.078
0.040
0.026
-0.078
-0.044
0.013
0.084
0.010
0.018
0.090
-0.037
-0.019
0.061
0.083
-0.099
-0.052
0.128
-0.019
-0.007
0.128
0.038
0.091
-0.006
-0.023
0.020
0.137
-0.025
-0.092
-0.065
-0.009
-0.012
0.097
0.012
-0.072
0.007
0.004
0.073
-0.023
-0.001
-0.021
-0.054
0.034
0.046
0.034
0.164
-0.005
0.033
-0.014
0.045
0.033
0.045
-0.041
0.027
0.053
0.045
0.042
0.082
-0.000
-0.045
-0.135
0.081
0.143
-0.038
-0.003
-0.024
0.010
0.037
0.040
0.036
-0.018
0.043
-0.019
0.013
-0.074
-0.015
0.020
0.116
0.039
-0.020
-0.018
-0.023
0.022
0.049
0.058
0.015
-0.005
0.031
0.040
0.016
-0.035
0.082
0.008
0.036
-0.020
-0.001
0.059
-0.019
0.065
0.088
-0.050
-0.004
0.037
0.135
-0.039
0.009
0.046
-0.044
-0.035
-0.001
-0.008
0.003
0.099
0.107
0.051
-0.099
0.055
-0.040
0.135
0.107
0.013
-0.033
0.021
0.003
0.034
0.011
-0.037
-0.011
-0.039
-0.054
-0.020
-0.021
0.024
-0.003
-0.012
0.010
0.056
0.147
-0.025
-0.044
-0.005
0.061
0.057
0.015
-0.012
0.039
0.164
-0.002
0.050
-0.033
0.020
0.047
0.079
0.005
0.039
-0.008
-0.053
0.150
-0.024
0.035
-0.025
0.017
-0.002
-0.040
-0.016
0.027
0.063
-0.119
0.037
0.079
-0.053
0.071
0.015
-0.031
0.117
-0.076
0.038
-0.012
0.024
0.023
0.126
-0.038
0.045
0.062
0.004
0.021
0.000
-0.037
0.009
0.090
-0.007
-0.043
-0.019
0.005
0.022
0.151
-0.034
-0.065
-0.028
0.023
0.146
-0.069
-0.137
0.055
0.076
0.052
-0.014
0.101
0.120
0.071
-0.012
0.016
0.053
-0.015
0.076
0.063
-0.042
-0.058
0.034
0.108
-0.033
-0.066
0.009
-0.089
0.046
0.028
0.102
0.043
0.013
-0.030
-0.056
-0.024
-0.020
0.084
-0.002
0.064
0.038
0.001
-0.013
-0.039
0.011
-0.027
0.053
0.103
0.004
0.103
-0.038
0.003
0.018
-0.017
0.030
0.085
0.081
-0.019
0.000
-0.019
0.002
0.024
-0.035
-0.005
0.037
-0.070
0.062
0.065
0.006
-0.045
0.083
-0.031
-0.017
0.083
0.004
0.055
0.044
0.009
0.029
-0.018
-0.038
-0.092
-0.046
0.115
0.044
0.020
-0.198
0.060
0.036
0.077
-0.011
-0.095
-0.049
0.112
0.061
0.119
-0.003
0.012
-0.075
0.092
-0.045
0.094
-0.045
0.025
0.112
0.059
-0.083
-0.030
-0.016
-0.004
-0.005
0.002
0.001
0.039
0.010
0.080
0.035
-0.060
-0.007
0.013
0.088
-0.026
0.001
0.021
0.004
-0.038
-0.004
0.004
0.070
0.017
0.161
0.086
0.039
-0.006
-0.171
-0.103
0.040
0.108
0.018
-0.015
0.054
-0.060
-0.009
-0.128
-0.005
0.180
0.051
0.051
-0.131
0.054
0.034
0.005
0.014
-0.076
0.064
0.066
0.132
0.051
0.083
-0.055
0.048
0.014
-0.033
-0.033
-0.047
0.052
0.102
0.130
0.052
-0.016
0.020
-0.037
-0.044
0.049
0.015
0.154
-0.023
-0.058
0.015
-0.009
0.002
0.019
0.051
-0.076
-0.018
-0.006
0.062
-0.000
-0.015
0.039
0.071
0.090
-0.004
-0.067
-0.020
-0.015
0.117
-0.065
0.013
0.034
0.076
0.033
-0.005
0.008
0.074
0.058
0.003
0.065
0.020
-0.031
0.084
0.050
-0.020
0.076
0.119
-0.049
-0.016
-0.051
-0.030
-0.001
0.008
0.061
0.086
0.036
-0.015
-0.031
-0.100
0.153
0.027
-0.010
-0.068
0.021
0.029
0.015
0.024
0.092
0.040
0.101
-0.080
0.038
-0.041
-0.084
-0.040
0.050
0.173
0.010
-0.092
-0.015
-0.075
0.013
0.085
0.113
0.052
-0.075
-0.033
-0.044
0.040
0.105
0.028
-0.026
0.003
-0.066
0.146
0.080
0.053
-0.048
-0.075
0.024
-0.003
-0.027
0.022
0.011
0.047
0.074
-0.027
0.018
-0.022
0.035
-0.007
-0.084
-0.009
0.054
0.142
0.019
-0.017
0.040
0.081
0.021
-0.001
0.073
-0.043
0.032
0.005
0.076
-0.048
0.078
-0.036
-0.003
0.011
-0.014
-0.026
0.127
0.028
0.009
-0.017
-0.041
0.021
-0.005
-0.054
0.035
0.036
0.080
0.034
0.020
0.036
-0.034
-0.004
-0.021
0.073
0.005
0.097
-0.052
-0.001
0.093
0.134
0.042
-0.033
-0.096
-0.074
0.046
0.112
0.095
0.079
-0.009
0.058
-0.058
0.059
-0.017
0.024
0.065
0.096
-0.013
-0.006
0.035
0.016
-0.096
0.092
0.098
-0.025
0.015
-0.061
0.088
0.014
0.033
0.033
0.032
0.070
-0.128
-0.016
0.050
-0.135
0.055
0.073
0.037
-0.032
0.104
0.007
-0.013
0.029
0.164
-0.012
-0.092
0.001
0.045
0.104
0.089
0.062
0.005
-0.076
-0.125
0.149
0.138
-0.010
-0.046
-0.053
0.049
0.118
0.014
-0.039
0.009
0.063
0.042
-0.119
0.049
0.043
0.059
0.082
-0.022
-0.046
0.022
0.055
0.071
-0.086
0.011
0.008
0.017
0.139
0.097
0.028
-0.020
-0.018
0.015
-0.056
0.069
0.072
0.025
0.009
-0.040
0.084
-0.019
0.049
-0.049
0.070
0.024
0.044
0.091
-0.048
-0.019
0.081
0.069
-0.020
-0.065
-0.011
0.029
-0.003
0.018
0.041
0.093
-0.016
0.125
-0.049
-0.121
0.022
0.128
-0.004
-0.082
0.092
0.073
0.020
-0.039
-0.010
0.038
-0.001
-0.018
0.046
0.022
0.055
0.047
-0.009
0.008
0.050
0.023
0.083
0.064
-0.028
-0.029
0.011
-0.007
-0.002
-0.096
0.080
-0.007
0.036
0.009
-0.135
0.057
0.006
0.038
0.035
0.009
0.022
0.113
0.016
0.036
0.084
0.140
0.081
0.093
-0.013
-0.025
0.058
0.033
-0.016
0.003
0.014
0.086
0.062
-0.075
-0.095
0.014
-0.006
-0.019
0.020
0.020
0.028
-0.002
0.142
0.075
0.026
-0.030
-0.025
0.012
0.093
0.074
0.022
0.031
0.119
-0.038
-0.041
0.064
0.035
-0.061
0.009
-0.013
0.023
0.249
0.050
-0.004
0.071
-0.043
0.061
-0.032
-0.038
0.031
0.011
0.125
0.007
0.029
-0.012
-0.048
-0.002
0.072
-0.043
-0.025
0.014
0.035
0.023
-0.009
0.109
0.078
-0.089
0.076
0.116
-0.002
0.013
-0.022
-0.073
-0.000
0.043
0.044
-0.057
0.033
0.045
0.173
0.004
0.003
0.092
0.049
-0.194
-0.080
0.132
0.113
0.072
0.030
0.057
-0.108
-0.002
0.013
-0.057
-0.017
0.014
-0.071
-0.006
0.077
0.138
-0.027
-0.008
0.001
0.138
-0.004
-0.019
-0.042
0.009
0.073
0.046
0.072
0.052
0.075
0.016
0.101
0.042
0.041
0.003
-0.094
-0.012
0.074
0.017
0.017
0.038
-0.072
0.084
-0.034
0.079
-0.060
-0.009
0.109
0.045
0.014
-0.004
0.060
0.143
0.077
-0.035
-0.001
-0.080
0.132
0.094
0.022
0.022
0.015
0.040
-0.125
-0.045
0.061
0.016
0.098
-0.091
0.081
0.001
-0.032
-0.060
0.015
0.182
0.086
0.029
0.083
0.033
-0.011
-0.055
-0.054
0.096
0.047
-0.024
0.050
0.069
0.018
0.085
-0.063
-0.036
0.073
-0.101
-0.080
-0.027
0.091
0.082
0.101
0.040
-0.039
0.110
-0.079
0.102
0.029
0.078
-0.013
0.022
0.020
0.001
0.056
0.044
0.009
0.058
-0.079
-0.064
-0.014
0.076
0.051
-0.014
0.091
-0.043
-0.063
0.030
-0.031
0.054
-0.012
0.119
0.003
0.074
-0.040
-0.018
-0.110
0.049
-0.072
0.053
0.100
0.043
0.047
0.100
-0.011
0.039
0.006
0.038
0.049
0.009
-0.063
-0.006
-0.034
0.096
0.077
0.019
0.003
-0.000
0.005
-0.046
0.032
0.001
-0.072
-0.056
0.147
0.029
0.215
0.057
-0.026
-0.082
-0.027
-0.085
-0.015
0.084
0.025
-0.002
0.118
0.019
0.037
0.022
-0.011
-0.008
-0.088
-0.055
-0.047
0.026
0.002
0.069
0.099
0.066
0.145
-0.029
-0.021
-0.008
-0.053
0.045
-0.025
-0.045
0.051
0.116
-0.012
0.060
0.056
-0.109
0.010
0.023
-0.035
-0.052
-0.027
0.022
0.143
0.040
0.056
-0.059
-0.051
0.086
0.006
0.029
0.147
0.172
-0.048
-0.042
0.078
-0.040
-0.042
-0.029
0.053
0.148
0.032
0.075
0.067
-0.046
-0.097
0.019
-0.001
-0.033
-0.069
0.024
-0.018
0.032
0.061
0.014
0.053
0.143
0.092
-0.024
0.003
-0.090
0.006
0.094
0.082
0.076
0.022
0.004
-0.019
-0.016
0.027
-0.078
0.084
-0.013
-0.014
0.034
0.124
-0.115
-0.032
-0.067
0.125
0.162
-0.023
-0.101
0.027
-0.019
0.045
0.066
-0.082
-0.041
-0.006
0.115
0.074
0.023
0.054
-0.022
-0.084
-0.003
0.025
0.019
-0.055
0.009
0.085
0.031
0.005
0.012
0.008
0.047
0.020
-0.010
0.009
-0.032
0.009
0.060
0.014
-0.015
0.063
0.003
0.093
-0.095
-0.099
0.092
0.137
0.120
0.010
-0.007
-0.038
-0.026
-0.047
0.113
0.005
0.038
-0.106
0.074
-0.063
-0.000
0.002
0.064
-0.033
-0.013
-0.064
0.003
0.128
0.184
-0.001
0.014
0.013
-0.065
0.084
0.044
0.072
-0.028
0.063
0.033
0.037
-0.037
-0.029
0.066
0.003
0.009
0.079
-0.039
-0.066
-0.022
-0.016
-0.026
0.048
0.021
0.061
-0.016
0.031
0.115
-0.009
0.066
0.004
-0.015
-0.039
-0.042
0.000
0.088
0.209
0.086
-0.040
-0.010
0.008
-0.061
-0.060
-0.026
0.074
0.071
0.027
0.005
-0.013
0.013
-0.084
0.037
-0.007
0.016
0.041
0.054
0.017
0.002
-0.012
-0.037
-0.016
0.043
0.002
0.014
-0.032
0.114
0.138
0.044
-0.040
-0.052
-0.101
0.051
0.086
0.055
0.022
0.039
-0.026
0.012
-0.030
-0.074
-0.005
-0.024
0.110
0.039
0.113
0.065
-0.054
-0.102
-0.004
-0.032
0.046
0.092
0.090
0.041
-0.051
0.080
0.002
-0.046
0.110
-0.018
-0.083
0.025
0.095
-0.003
-0.114
-0.065
0.054
0.040
0.071
-0.029
0.104
0.084
0.076
0.064
-0.059
-0.011
-0.050
0.024
0.021
-0.013
0.023
0.003
0.067
-0.061
-0.003
-0.016
0.111
0.093
-0.070
0.029
-0.039
-0.002
-0.036
0.050
-0.050
0.020
0.051
-0.024
0.099
0.017
-0.017
0.074
0.023
-0.059
-0.068
0.080
0.022
0.064
-0.005
0.091
0.057
-0.043
0.043
0.011
0.096
-0.060
-0.111
0.033
0.033
0.000
0.044
0.042
0.055
0.066
-0.076
-0.023
0.006
0.025
-0.044
0.047
0.071
0.055
0.154
0.017
-0.030
-0.005
-0.121
0.039
-0.047
-0.168
0.134
-0.000
0.106
0.288
0.071
0.017
-0.081
-0.122
-0.032
0.039
0.067
0.096
0.100
0.039
0.100
0.054
-0.033
-0.023
-0.042
0.079
-0.009
0.053
0.013
0.137
-0.005
-0.004
0.051
-0.009
0.079
-0.018
0.024
-0.080
0.056
-0.041
-0.046
0.020
-0.057
0.127
-0.022
0.005
-0.036
0.101
-0.019
0.097
0.084
0.047
-0.050
0.033
0.011
0.007
0.101
0.057
-0.029
0.084
-0.026
-0.016
0.081
0.005
-0.020
-0.003
0.007
0.152
-0.072
0.001
-0.042
0.061
0.163
-0.023
-0.033
-0.086
-0.008
0.350
0.063
-0.131
-0.102
0.001
0.008
0.026
0.035
-0.050
0.054
0.121
0.061
-0.000
-0.092
-0.082
0.012
0.017
-0.025
-0.012
0.074
0.119
0.074
0.049
-0.078
0.052
-0.002
0.095
-0.047
0.057
0.009
0.016
0.143
0.123
-0.019
-0.060
0.074
-0.012
-0.111
0.038
0.026
0.034
0.025
0.080
0.064
-0.020
0.026
-0.037
0.044
0.038
-0.017
0.018
-0.048
0.031
0.145
0.065
-0.046
0.142
-0.068
0.012
-0.057
-0.008
-0.020
0.113
0.177
0.099
-0.069
-0.083
0.066
0.018
0.089
-0.010
0.022
0.006
0.023
0.025
-0.092
0.003
0.081
0.176
0.130
0.050
-0.068
-0.089
-0.014
0.025
0.023
0.106
-0.020
-0.100
0.012
0.045
0.010
0.125
0.002
-0.004
-0.002
-0.077
-0.067
0.100
0.151
0.044
0.132
0.058
0.084
-0.059
0.115
-0.032
-0.044
0.015
0.107
-0.063
-0.012
0.019
0.032
0.030
-0.009
-0.066
0.026
0.025
0.125
-0.017
-0.004
0.032
0.048
-0.024
0.082
0.048
-0.049
0.060
0.039
0.059
0.043
0.015
-0.043
0.029
0.039
0.013
-0.052
0.000
-0.042
0.117
0.054
0.054
0.052
-0.088
-0.104
0.062
0.086
0.041
-0.081
0.045
0.034
-0.039
-0.036
0.053
0.108
-0.085
0.018
0.054
0.028
0.053
-0.117
-0.097
-0.032
0.183
0.187
0.094
0.090
-0.178
-0.054
-0.026
0.024
0.017
0.141
0.055
-0.003
0.020
0.005
-0.002
-0.034
-0.031
-0.001
-0.069
-0.036
0.039
0.036
0.095
-0.002
-0.054
-0.012
-0.047
0.010
0.077
0.129
0.028
0.025
-0.055
-0.009
0.005
0.038
0.119
-0.026
0.017
0.034
-0.007
-0.047
0.113
-0.044
0.065
0.001
0.025
0.058
-0.109
0.032
0.062
0.069
-0.006
0.029
-0.004
0.045
0.060
-0.047
0.036
0.032
0.006
0.095
0.032
-0.073
0.009
-0.029
0.034
-0.010
0.087
0.243
-0.006
-0.030
-0.072
-0.085
0.090
0.073
0.143
0.038
-0.031
0.025
0.058
-0.066
0.086
0.104
0.066
-0.121
0.122
-0.078
-0.028
-0.071
0.063
0.059
0.109
-0.072
0.057
0.008
0.121
0.157
-0.047
-0.038
-0.014
0.161
0.013
0.020
0.001
0.060
0.015
0.003
0.078
-0.047
-0.004
-0.069
0.024
0.077
0.034
0.033
-0.021
0.018
-0.025
0.026
0.046
0.047
0.018
0.020
-0.059
0.105
0.058
0.026
0.060
-0.002
0.032
0.017
-0.067
0.102
-0.009
0.060
0.003
0.026
0.009
0.007
-0.113
-0.067
0.074
0.015
0.074
0.078
-0.012
-0.041
0.065
0.011
0.018
0.051
-0.033
-0.013
-0.049
0.001
0.057
-0.085
0.113
0.187
0.052
-0.103
-0.161
-0.103
0.100
0.161
0.035
0.047
-0.019
0.023
0.025
-0.086
-0.096
0.031
0.084
0.006
0.048
-0.003
-0.049
0.010
0.027
0.029
0.021
-0.002
0.010
0.098
-0.025
0.030
-0.002
0.056
0.054
0.025
-0.196
-0.011
0.008
-0.042
0.255
0.203
-0.043
-0.015
-0.102
-0.088
-0.054
0.056
0.133
0.057
0.037
0.065
-0.037
-0.049
-0.066
0.034
0.040
-0.028
0.088
0.081
-0.037
-0.019
-0.037
-0.025
0.101
0.019
0.091
-0.004
-0.039
0.063
0.099
-0.028
-0.062
0.076
-0.029
0.014
0.050
0.126
0.202
-0.002
-0.018
-0.139
0.028
0.003
0.016
0.126
0.039
0.014
-0.053
-0.051
-0.012
0.006
0.046
-0.006
0.044
-0.031
0.102
0.009
0.010
0.065
0.013
0.166
-0.026
0.044
-0.133
0.059
0.047
0.029
0.116
0.087
-0.019
-0.098
-0.021
0.015
0.015
-0.005
0.034
0.033
-0.084
-0.053
0.105
0.050
-0.041
-0.040
0.025
-0.014
0.044
0.076
0.028
0.057
0.137
-0.047
0.017
0.019
0.045
-0.041
-0.110
-0.090
0.130
0.107
0.069
0.056
0.006
-0.019
-0.039
0.014
0.052
0.073
-0.020
0.037
0.011
0.026
0.000
-0.017
-0.045
-0.072
-0.046
0.017
0.042
0.147
0.059
-0.005
0.020
-0.014
0.080
-0.010
0.086
0.158
-0.060
-0.049
-0.042
-0.015
-0.045
0.098
0.011
-0.047
0.143
-0.023
0.022
-0.099
-0.039
0.016
-0.029
0.059
0.081
-0.021
0.045
0.014
0.040
0.039
0.012
-0.049
0.048
0.052
0.058
-0.018
-0.093
0.056
-0.047
0.068
-0.008
0.014
-0.034
-0.021
0.036
-0.030
0.053
0.132
0.087
0.073
0.070
-0.100
-0.135
0.115
0.054
0.099
0.037
0.095
-0.070
-0.060
-0.097
0.029
0.122
0.047
-0.044
-0.032
-0.061
-0.006
-0.008
0.116
-0.040
-0.160
0.069
0.041
-0.041
0.070
-0.093
0.017
0.133
-0.014
-0.016
0.022
-0.003
0.079
0.152
0.002
0.013
0.035
-0.063
0.029
-0.069
-0.015
0.109
0.027
0.102
-0.020
-0.101
0.020
-0.029
0.096
0.125
0.104
0.007
0.001
-0.105
-0.012
0.050
0.027
0.050
-0.046
0.092
0.012
-0.029
-0.102
-0.038
0.066
0.078
-0.035
0.011
0.084
0.057
-0.033
0.056
0.014
0.002
-0.016
0.045
0.057
0.011
0.028
0.011
0.020
-0.022
0.042
0.052
0.015
0.036
-0.010
0.030
0.073
0.000
0.037
0.000
-0.024
0.102
0.033
-0.010
-0.033
-0.037
0.019
0.019
0.055
0.021
-0.031
0.039
0.012
-0.092
-0.092
-0.050
0.019
0.237
0.138
0.095
0.021
-0.057
-0.051
-0.174
-0.022
0.164
0.053
0.103
0.061
0.051
-0.035
-0.127
0.019
0.006
-0.004
-0.104
0.090
-0.012
0.068
0.049
0.016
0.043
0.057
0.017
0.098
-0.007
-0.004
0.036
0.043
0.068
-0.018
-0.020
-0.001
-0.005
0.122
0.061
0.029
-0.009
-0.025
0.015
0.052
-0.002
-0.030
0.005
0.105
0.061
0.022
0.012
-0.046
-0.018
0.102
0.051
0.111
0.016
0.035
-0.065
0.016
-0.020
-0.030
0.092
0.158
-0.082
0.021
0.100
0.041
-0.094
0.011
-0.002
0.119
0.022
-0.024
0.028
0.023
-0.098
0.015
0.158
-0.022
0.066
-0.005
-0.008
0.014
0.054
0.021
0.082
0.048
0.016
0.034
0.013
0.112
-0.138
-0.061
-0.013
0.104
0.140
0.117
-0.097
0.003
0.062
-0.050
-0.030
-0.154
-0.053
0.260
0.187
0.076
0.001
-0.050
-0.106
-0.106
-0.087
0.066
0.159
0.112
-0.058
0.044
-0.030
-0.047
-0.020
0.072
-0.006
-0.084
-0.038
-0.016
-0.044
0.033
0.077
-0.069
0.014
0.084
-0.061
0.081
0.110
0.081
-0.065
0.030
0.069
0.022
-0.074
0.046
-0.040
0.044
0.027
0.014
0.038
0.042
0.010
-0.047
-0.081
0.084
-0.031
0.029
0.057
0.053
-0.004
0.033
-0.016
0.039
0.060
0.079
-0.034
-0.029
0.053
0.023
0.031
-0.061
-0.072
0.113
0.050
0.172
0.042
-0.039
0.059
-0.017
0.016
0.042
-0.066
-0.030
0.003
0.042
0.067
-0.041
0.003
0.082
-0.095
-0.123
0.090
0.021
0.047
0.058
0.065
0.118
0.071
-0.070
-0.027
0.082
0.053
0.029
-0.032
0.038
-0.028
-0.020
-0.103
0.030
0.002
0.212
0.227
0.020
-0.021
-0.141
-0.185
-0.015
0.004
0.070
0.074
0.067
0.091
0.030
-0.016
-0.036
-0.011
-0.075
-0.003
0.007
-0.047
-0.007
0.046
0.061
0.104
0.013
0.009
0.009
-0.076
0.104
-0.021
-0.061
-0.029
0.093
0.184
0.054
0.028
-0.143
-0.067
0.153
0.009
0.100
0.085
-0.017
0.007
-0.032
0.045
-0.086
-0.021
0.077
0.013
-0.002
-0.066
0.075
0.003
-0.011
-0.102
0.003
0.061
0.115
-0.024
0.021
-0.087
0.103
0.031
0.072
0.039
0.006
-0.002
-0.017
-0.024
-0.007
0.019
0.031
0.039
-0.026
0.067
0.020
-0.085
-0.087
0.004
0.100
0.064
-0.006
0.016
-0.020
0.151
0.118
-0.026
0.007
-0.035
0.063
0.008
0.000
-0.033
0.035
0.003
0.006
0.111
-0.021
-0.034
0.044
-0.008
-0.090
0.028
0.078
-0.039
0.072
-0.042
-0.059
-0.020
-0.002
0.156
0.127
-0.022
0.022
-0.044
-0.154
0.123
0.115
0.070
-0.002
0.094
0.047
-0.010
0.067
-0.007
0.029
-0.097
-0.038
0.101
-0.106
-0.069
-0.055
0.154
-0.015
-0.023
-0.046
0.085
0.122
0.077
0.055
0.018
-0.005
0.015
0.002
-0.025
0.077
0.175
0.108
-0.092
-0.039
0.061
-0.042
0.023
-0.044
0.128
0.079
0.007
0.084
0.034
-0.002
-0.074
0.032
0.067
-0.046
-0.012
0.066
0.069
0.023
-0.066
0.082
0.063
0.100
-0.028
-0.001
-0.083
0.018
0.011
0.076
-0.100
0.052
0.110
0.039
-0.009
0.097
-0.074
-0.081
-0.005
0.103
-0.026
0.055
-0.037
0.011
-0.008
0.058
-0.064
0.077
0.117
0.077
-0.071
0.012
-0.060
-0.067
0.087
-0.025
-0.057
0.081
0.039
-0.016
-0.037
-0.057
-0.003
-0.022
-0.090
-0.024
0.065
0.266
0.138
0.031
-0.006
-0.101
-0.158
0.008
-0.035
0.008
0.083
0.151
0.058
0.039
-0.004
-0.039
0.012
-0.086
-0.008
-0.095
0.019
-0.012
0.035
0.005
0.097
0.055
-0.076
0.060
-0.035
0.098
0.008
-0.059
0.100
-0.009
0.018
0.069
0.050
0.040
-0.048
0.029
0.085
0.035
-0.045
0.019
0.117
0.050
-0.061
0.059
0.103
0.122
0.003
-0.056
0.006
-0.097
-0.101
0.116
0.026
-0.045
0.089
0.143
0.092
0.005
-0.021
-0.041
-0.049
-0.053
0.124
0.101
-0.023
-0.000
0.047
-0.047
0.025
0.092
-0.122
-0.003
0.044
0.063
-0.025
0.008
0.028
0.108
0.136
-0.146
0.060
0.099
0.075
0.075
0.002
0.049
0.071
0.023
0.007
-0.032
-0.005
-0.022
0.049
0.073
0.005
0.062
-0.052
-0.057
-0.001
0.041
-0.003
0.076
0.018
-0.067
-0.028
-0.075
-0.024
0.021
0.105
0.291
0.086
0.017
-0.075
-0.121
-0.178
-0.040
0.091
0.137
0.127
0.110
-0.026
-0.011
0.004
-0.106
-0.083
0.043
0.023
-0.072
-0.095
-0.035
0.037
0.201
-0.051
0.012
-0.028
0.064
0.067
-0.001
0.022
-0.083
0.151
0.113
0.092
-0.029
-0.048
-0.034
-0.103
0.052
0.045
0.077
0.000
0.057
0.072
-0.019
-0.036
-0.067
0.033
0.020
0.027
0.044
0.051
0.025
0.100
0.065
0.012
-0.067
-0.016
0.013
0.044
0.081
0.002
0.065
0.014
-0.179
-0.015
0.052
0.033
0.067
-0.069
0.018
0.042
0.001
0.085
0.061
-0.012
0.017
0.045
0.150
-0.027
-0.026
0.007
-0.014
0.082
0.049
-0.044
0.027
0.061
-0.039
-0.047
0.068
0.150
0.089
-0.076
-0.039
-0.015
-0.036
0.030
0.051
-0.029
0.082
-0.010
-0.065
-0.048
0.112
0.300
0.146
-0.035
-0.043
-0.018
0.044
-0.008
0.091
0.026
-0.014
-0.000
0.044
-0.006
0.055
0.053
0.006
-0.100
0.024
-0.003
-0.050
0.020
0.025
-0.029
0.113
0.021
0.036
0.039
-0.047
-0.005
0.012
0.022
0.049
0.069
0.043
0.098
0.013
-0.068
-0.005
-0.016
0.018
0.062
0.000
0.023
0.038
-0.021
0.028
-0.022
-0.005
0.081
0.039
-0.030
0.120
-0.006
-0.039
-0.018
0.066
0.203
-0.035
-0.030
-0.031
0.013
-0.040
0.051
0.048
0.034
0.062
0.053
-0.037
0.001
0.044
-0.050
-0.036
0.004
0.030
0.045
0.010
-0.047
0.063
0.070
0.041
-0.023
0.037
-0.010
-0.021
-0.034
0.017
0.072
-0.065
-0.033
0.109
0.181
0.165
-0.026
-0.077
0.020
0.106
-0.056
0.016
0.027
0.019
0.035
0.077
-0.060
-0.065
-0.046
0.003
0.089
0.030
-0.071
-0.002
0.031
0.084
0.036
-0.066
0.001
0.011
0.037
0.155
0.102
0.032
-0.030
0.018
-0.087
-0.021
-0.043
-0.068
0.002
0.044
0.087
0.130
-0.100
-0.100
-0.091
0.004
-0.018
0.070
0.072
-0.023
-0.061
-0.016
0.043
0.067
0.016
0.054
-0.027
0.057
0.121
0.140
0.043
-0.113
-0.044
-0.019
0.032
-0.039
0.065
0.122
-0.152
0.006
0.018
-0.057
0.043
0.018
0.031
0.113
-0.015
-0.062
-0.075
-0.117
0.056
0.060
0.018
0.035
0.030
0.021
0.037
0.019
-0.026
-0.011
-0.062
-0.032
-0.033
0.086
-0.033
0.070
0.118
-0.034
0.023
0.012
-0.069
0.027
0.032
0.119
0.150
0.013
-0.058
-0.001
-0.006
0.019
0.077
0.097
-0.116
0.052
-0.100
0.100
0.073
-0.063
0.016
0.056
-0.021
-0.131
-0.031
0.033
0.048
0.175
0.061
-0.009
0.032
-0.082
-0.153
-0.017
0.145
0.150
0.135
0.025
-0.112
0.106
-0.055
-0.079
0.033
0.024
0.046
0.016
-0.030
0.029
0.011
0.042
0.092
0.071
0.085
0.039
-0.047
-0.026
-0.049
0.063
0.071
0.063
0.017
-0.008
0.006
0.065
0.003
0.053
0.053
-0.057
-0.009
0.072
-0.014
0.089
0.100
-0.026
-0.081
0.022
0.028
0.046
0.035
0.078
0.009
0.129
0.061
-0.086
-0.044
-0.048
0.126
0.070
-0.038
-0.101
0.090
-0.087
-0.076
0.108
0.028
0.080
-0.076
-0.013
0.022
-0.004
0.067
0.078
0.005
0.011
0.063
0.040
-0.020
0.057
0.001
0.040
0.047
0.076
-0.123
-0.059
-0.016
0.154
0.045
-0.050
0.088
0.011
0.014
-0.021
0.070
0.067
-0.018
-0.029
0.064
-0.125
-0.037
0.086
0.050
-0.036
-0.053
-0.095
-0.058
0.141
0.032
0.034
0.141
0.111
0.033
0.123
-0.037
-0.060
-0.184
0.037
-0.043
0.165
0.138
-0.096
-0.048
0.086
-0.025
-0.004
-0.047
0.012
-0.053
0.002
0.050
0.025
0.046
0.032
0.117
0.023
0.010
0.037
-0.058
-0.012
0.052
0.060
-0.086
-0.048
0.074
0.011
0.016
-0.002
0.100
-0.017
0.058
0.056
0.102
-0.041
0.031
0.052
-0.156
0.044
0.135
0.005
-0.009
0.110
0.139
0.041
-0.106
-0.064
-0.024
0.083
0.026
0.033
0.085
-0.007
-0.065
-0.027
0.058
0.017
0.074
-0.006
-0.023
-0.033
0.071
0.159
-0.075
-0.110
-0.053
-0.037
0.015
-0.006
0.131
0.223
0.019
-0.124
0.031
-0.052
0.046
0.021
-0.070
0.029
0.077
0.034
-0.013
0.035
0.026
0.068
0.030
-0.103
0.047
0.060
0.061
-0.074
-0.064
0.021
-0.021
0.027
0.034
0.045
0.034
0.035
-0.061
-0.086
0.032
-0.015
0.074
0.264
0.039
0.088
0.118
-0.220
-0.188
0.009
0.136
0.076
0.074
0.145
-0.007
-0.117
0.032
0.019
-0.049
-0.101
-0.013
0.004
0.113
-0.064
-0.026
0.064
0.066
0.018
0.023
0.068
-0.030
0.021
0.032
0.062
-0.054
0.049
-0.011
0.036
0.036
0.196
0.142
-0.033
-0.131
-0.043
0.018
0.000
0.014
-0.038
0.116
0.035
-0.006
0.026
0.122
0.028
-0.093
-0.135
0.035
0.129
0.111
0.048
-0.008
-0.000
-0.017
-0.022
0.045
0.013
-0.024
-0.024
0.042
0.041
-0.044
0.014
-0.026
-0.011
0.008
0.092
0.086
0.045
0.054
0.067
-0.040
-0.076
0.005
0.054
-0.020
-0.073
0.035
0.046
0.007
-0.048
-0.008
0.009
-0.045
0.067
0.107
0.022
0.037
-0.088
0.045
-0.036
-0.021
0.041
0.102
0.064
0.021
-0.020
0.010
0.076
0.092
-0.076
0.056
0.100
-0.050
0.027
0.062
-0.035
-0.037
-0.037
-0.033
0.016
0.154
0.211
0.068
-0.009
-0.085
-0.201
-0.015
0.001
0.148
0.112
0.072
0.024
0.168
0.020
-0.063
-0.071
-0.044
0.041
0.043
0.073
-0.098
0.012
0.115
-0.057
0.067
-0.023
-0.058
0.029
0.040
0.147
0.018
0.009
0.011
-0.042
0.037
-0.049
0.007
0.146
0.024
0.110
0.036
0.041
-0.011
-0.038
0.035
-0.008
-0.040
0.063
-0.053
0.133
0.016
-0.040
0.024
0.053
-0.016
-0.026
0.074
-0.015
-0.007
0.021
0.175
-0.045
-0.085
0.069
0.102
0.059
0.113
-0.034
0.022
-0.060
-0.005
0.020
0.010
-0.112
0.081
0.136
-0.000
-0.057
-0.052
0.061
0.003
-0.011
-0.057
0.069
0.038
0.060
-0.027
-0.006
0.042
0.077
0.117
0.010
-0.084
-0.057
0.017
-0.035
0.069
0.055
-0.031
0.080
0.202
0.003
0.055
0.004
-0.061
-0.021
0.083
0.079
0.103
-0.049
-0.077
0.048
-0.020
-0.061
0.117
0.033
0.105
0.007
0.066
0.007
0.047
-0.051
-0.070
-0.045
0.109
0.204
0.084
0.118
-0.036
-0.055
-0.029
-0.091
0.114
0.126
0.065
0.051
-0.020
0.011
-0.073
0.011
-0.117
0.072
0.089
0.054
-0.036
0.019
0.006
0.041
0.009
-0.024
0.108
0.019
0.016
0.115
0.017
-0.104
0.041
0.022
0.082
0.067
-0.008
0.028
-0.021
-0.061
-0.073
-0.009
0.069
-0.013
0.009
0.189
0.009
-0.054
0.138
0.036
-0.022
-0.075
0.007
0.087
0.089
0.066
0.073
0.001
0.001
-0.036
0.037
-0.002
-0.013
0.083
-0.007
-0.054
0.028
0.005
-0.012
0.014
-0.095
0.048
0.118
-0.007
0.099
-0.016
-0.011
0.009
-0.038
0.086
0.082
0.093
0.014
-0.004
-0.033
0.013
0.009
0.043
-0.043
0.059
0.011
0.078
-0.009
0.038
0.101
-0.037
0.095
0.002
0.002
-0.034
0.004
0.029
0.078
0.079
0.091
-0.003
-0.036
-0.042
0.146
0.000
0.009
0.014
-0.049
-0.001
0.009
0.033
0.067
0.047
-0.051
-0.096
-0.125
-0.053
0.094
0.177
0.134
0.198
-0.031
-0.223
-0.162
0.004
0.216
0.253
0.115
0.026
-0.024
-0.043
-0.024
0.028
-0.026
0.067
0.011
-0.003
0.036
0.168
-0.045
-0.066
-0.062
-0.018
0.058
0.023
0.035
-0.019
0.005
0.004
0.023
0.055
0.017
0.015
0.020
-0.008
0.094
-0.067
-0.030
0.082
-0.003
0.014
0.067
0.102
0.014
-0.056
-0.071
-0.019
-0.016
0.151
0.039
0.005
0.118
-0.082
0.032
0.165
0.026
-0.014
-0.099
0.031
0.018
-0.086
0.059
0.062
0.109
0.114
-0.086
0.015
0.001
-0.080
0.032
0.007
-0.018
-0.049
0.002
0.014
0.044
0.188
0.056
-0.024
-0.081
-0.016
0.023
0.039
-0.042
-0.023
0.100
0.049
0.061
-0.003
-0.029
-0.002
0.024
0.029
0.007
0.011
0.012
-0.000
-0.096
0.027
0.039
0.001
0.049
0.034
-0.081
0.028
0.075
0.162
0.187
0.008
-0.057
-0.101
-0.072
-0.029
-0.042
0.104
0.253
0.131
0.071
-0.075
-0.136
-0.161
0.066
0.073
-0.048
0.030
0.052
-0.023
0.083
0.080
-0.057
0.036
-0.098
-0.032
0.058
0.000
-0.025
0.027
0.059
-0.013
0.054
-0.020
0.087
-0.041
0.097
0.047
-0.031
0.102
0.171
0.075
-0.016
-0.150
-0.024
0.103
0.011
0.122
0.003
-0.079
-0.004
0.113
-0.060
0.018
0.032
0.068
0.075
-0.068
-0.078
0.062
0.060
-0.003
-0.046
0.145
0.210
-0.040
-0.158
0.007
0.096
0.058
0.061
-0.011
0.016
0.029
-0.041
0.010
0.067
0.062
-0.024
0.018
0.078
-0.011
0.009
0.040
0.063
-0.007
-0.026
0.060
0.004
-0.014
0.047
-0.018
0.017
-0.031
-0.020
0.015
-0.056
-0.057
0.100
0.019
-0.032
0.113
0.057
0.039
-0.022
0.031
-0.005
0.041
0.024
-0.024
0.053
0.030
0.015
0.152
0.015
0.028
0.041
0.091
-0.091
-0.068
-0.069
0.135
-0.020
-0.062
0.002
0.021
0.096
0.055
-0.067
-0.112
0.184
0.150
-0.020
-0.091
-0.022
0.033
-0.056
0.016
0.001
0.084
-0.066
0.094
-0.019
0.037
0.019
-0.178
-0.071
0.053
-0.026
0.103
0.157
0.047
0.091
-0.076
-0.090
0.034
0.058
0.104
0.043
0.063
-0.027
0.048
-0.055
-0.039
0.055
0.034
-0.057
-0.070
0.113
-0.074
-0.013
0.136
0.030
0.081
-0.013
0.056
-0.013
0.012
-0.044
-0.037
-0.028
0.081
0.126
0.094
0.094
-0.106
-0.031
0.003
0.000
0.009
0.025
-0.001
0.039
0.004
-0.036
-0.014
0.101
0.100
0.014
-0.027
-0.078
0.149
0.068
0.036
-0.028
0.024
0.015
0.068
-0.072
-0.022
-0.009
0.016
0.011
0.050
0.249
0.099
0.061
-0.049
-0.053
-0.086
-0.014
0.065
0.019
0.147
-0.006
0.089
0.069
-0.117
-0.061
0.158
0.047
0.054
-0.104
0.001
0.060
0.035
-0.058
0.105
0.113
-0.028
-0.023
-0.034
0.004
0.057
-0.006
0.008
0.067
0.133
-0.074
-0.001
0.021
0.028
0.037
0.042
0.006
-0.134
-0.044
-0.022
-0.023
0.262
0.248
-0.072
0.075
-0.108
-0.048
-0.071
0.011
0.023
0.013
0.054
0.023
0.058
0.043
-0.077
0.087
0.063
-0.017
-0.091
-0.031
-0.027
0.005
0.014
-0.002
0.008
-0.098
-0.012
0.031
0.049
0.174
0.100
-0.020
0.001
0.051
-0.062
0.003
0.079
0.021
0.020
0.103
0.012
-0.012
0.055
-0.009
-0.092
-0.030
-0.048
0.018
-0.045
0.073
0.106
-0.008
0.125
0.019
-0.063
-0.013
-0.035
0.014
-0.011
0.035
-0.009
0.123
-0.096
-0.031
0.027
0.094
-0.020
-0.037
-0.083
0.117
-0.010
0.009
0.070
0.168
-0.014
-0.095
0.063
0.009
0.011
-0.053
0.079
-0.039
0.043
-0.083
0.006
0.067
0.132
-0.069
0.104
0.052
0.005
-0.028
0.029
0.027
0.089
0.070
0.063
0.045
-0.051
0.006
-0.048
0.035
0.037
0.001
0.045
0.020
-0.032
0.051
-0.005
-0.003
0.075
0.088
0.093
-0.063
-0.090
0.020
-0.040
0.044
-0.013
0.025
-0.012
0.031
-0.078
0.144
0.094
0.021
0.107
0.051
-0.123
-0.186
-0.186
0.125
0.099
0.138
0.064
0.102
0.024
0.043
0.015
-0.081
0.046
0.073
0.044
0.032
-0.051
-0.047
0.004
0.054
0.101
0.051
-0.029
-0.020
0.087
0.015
-0.139
0.020
-0.106
0.009
0.035
0.083
0.023
0.116
0.041
0.028
-0.073
0.059
-0.009
0.058
0.058
-0.054
0.035
-0.116
0.034
0.107
-0.028
-0.082
0.158
0.002
-0.004
-0.026
-0.012
0.096
-0.004
0.057
-0.050
-0.055
-0.019
-0.018
0.051
-0.061
0.054
0.095
0.089
0.077
-0.086
-0.011
-0.045
0.082
0.025
-0.032
-0.065
0.144
0.106
-0.024
-0.155
-0.015
0.005
0.048
-0.034
-0.006
0.051
0.032
0.012
0.023
-0.032
-0.030
-0.059
0.040
0.122
0.072
-0.065
0.040
-0.021
0.017
0.079
-0.041
0.109
-0.078
0.050
-0.059
-0.096
0.154
0.131
0.051
-0.040
0.018
0.108
-0.129
-0.036
-0.039
0.183
0.285
0.014
0.022
-0.128
-0.255
0.013
0.071
0.043
0.142
0.172
-0.049
-0.017
0.008
-0.126
-0.078
-0.012
-0.013
0.051
0.010
0.106
0.118
-0.109
-0.070
0.065
0.190
-0.051
-0.028
0.004
0.002
-0.015
-0.015
-0.042
0.079
0.067
0.131
0.005
-0.042
0.180
0.092
-0.082
-0.018
0.026
-0.027
0.055
-0.029
-0.062
0.097
0.027
0.077
-0.008
0.032
0.017
-0.002
0.033
-0.117
-0.001
0.010
0.138
0.006
0.011
0.056
0.077
-0.029
-0.029
0.050
0.032
-0.026
0.011
0.069
0.040
-0.016
-0.108
0.031
0.072
0.010
0.065
-0.005
0.059
0.091
0.053
-0.049
-0.054
-0.016
0.025
0.083
-0.032
-0.032
0.131
0.091
0.000
0.044
-0.034
0.008
-0.095
-0.005
-0.016
0.114
0.072
0.008
-0.004
0.046
-0.073
0.009
-0.050
0.010
0.088
0.037
0.053
0.061
-0.091
0.007
0.007
0.180
0.162
0.058
0.171
0.001
-0.067
-0.191
-0.081
0.078
0.139
0.135
0.038
-0.067
0.020
0.027
0.025
0.006
-0.134
-0.063
0.078
0.006
0.112
0.023
-0.031
-0.052
-0.013
0.045
-0.020
0.028
0.089
-0.031
0.013
0.038
-0.010
0.087
0.069
0.012
-0.050
0.018
-0.052
-0.015
0.131
0.183
0.081
-0.038
-0.045
-0.072
0.024
0.011
0.068
0.012
0.052
0.020
0.061
-0.082
0.007
-0.079
-0.004
0.060
0.062
0.046
0.150
-0.055
0.042
0.038
-0.095
-0.043
-0.002
0.005
0.083
-0.031
0.050
0.002
-0.063
-0.044
0.065
0.058
0.012
0.091
0.052
0.028
-0.010
0.040
-0.027
0.134
0.037
-0.003
-0.055
-0.052
0.100
0.064
0.057
-0.063
0.014
-0.056
0.021
-0.018
-0.012
-0.014
-0.007
0.066
-0.016
0.003
0.027
0.013
0.022
0.207
0.096
-0.031
-0.090
0.093
0.001
0.024
-0.070
-0.127
0.079
-0.047
0.156
0.198
0.064
0.060
-0.089
-0.147
-0.017
-0.008
0.039
0.038
0.117
0.231
0.032
-0.091
-0.169
0.025
-0.012
-0.034
0.031
0.025
-0.088
0.108
0.061
-0.010
-0.015
0.036
-0.056
0.071
0.055
0.021
-0.023
0.077
0.012
0.049
-0.046
-0.073
0.134
0.146
0.039
0.035
-0.081
-0.003
-0.054
-0.030
0.198
0.007
-0.090
0.014
0.067
-0.000
-0.033
-0.007
0.091
-0.037
0.027
-0.039
0.052
0.088
-0.074
0.015
0.002
-0.013
0.083
0.083
-0.010
0.022
0.012
0.071
-0.051
0.060
0.041
-0.081
-0.016
-0.001
0.085
-0.025
-0.005
-0.001
0.085
0.082
0.037
0.028
-0.053
-0.066
0.032
0.120
0.017
0.073
0.060
0.054
-0.021
-0.028
0.068
-0.019
-0.043
-0.008
0.023
0.015
0.107
-0.067
-0.032
0.201
0.049
0.071
0.025
-0.099
0.032
-0.073
-0.103
0.099
0.054
0.129
0.094
0.066
-0.008
-0.022
-0.118
-0.171
-0.009
-0.061
0.043
0.058
0.166
0.090
-0.001
-0.034
-0.023
0.038
0.096
0.030
-0.051
0.066
0.084
0.023
0.039
-0.014
-0.062
0.032
0.057
0.058
-0.016
-0.004
0.071
0.011
0.050
-0.043
-0.007
-0.003
0.025
-0.021
0.079
-0.034
-0.056
-0.028
-0.045
-0.016
0.089
-0.026
0.014
-0.046
0.060
0.067
0.017
-0.087
0.000
0.222
0.079
-0.037
-0.040
-0.040
0.087
0.033
0.127
-0.038
-0.080
-0.023
-0.002
0.009
-0.031
0.015
0.028
0.004
0.017
-0.023
0.025
0.072
0.011
0.082
0.078
-0.071
0.019
0.003
0.038
-0.032
0.118
0.078
0.017
-0.085
0.033
-0.090
-0.092
0.021
0.079
0.012
-0.026
-0.014
-0.048
0.064
-0.020
0.142
0.143
0.032
0.004
-0.049
-0.045
-0.039
0.106
0.172
-0.077
-0.033
-0.093
0.043
0.208
0.056
0.194
0.002
-0.167
-0.156
-0.024
0.068
0.142
0.085
0.024
0.091
0.102
-0.035
-0.152
-0.130
0.078
0.068
0.026
-0.070
0.010
0.013
-0.041
0.079
0.001
0.129
-0.048
-0.048
0.035
0.070
0.029
0.114
0.103
-0.036
-0.000
0.040
0.008
-0.039
-0.033
-0.034
-0.000
0.059
0.119
0.046
0.054
-0.027
-0.022
0.038
0.026
0.012
0.002
-0.017
-0.055
0.039
0.125
-0.024
0.008
-0.057
0.045
0.017
0.028
-0.138
0.068
0.172
0.058
0.026
-0.092
0.056
-0.047
0.023
-0.020
0.128
-0.004
-0.101
0.083
0.075
0.038
-0.019
0.022
0.018
-0.050
0.042
0.003
-0.016
0.125
0.051
-0.025
-0.063
0.060
0.128
-0.022
-0.116
0.061
0.008
-0.080
0.009
-0.033
-0.066
0.060
0.230
0.153
-0.157
-0.131
0.041
0.016
0.033
0.124
-0.041
0.093
0.060
-0.072
-0.061
-0.031
0.021
0.113
-0.002
0.021
-0.033
0.003
-0.102
-0.042
-0.037
0.044
0.235
-0.002
0.137
-0.036
-0.035
-0.152
-0.082
-0.021
0.094
0.199
0.156
0.023
-0.028
-0.047
-0.037
0.020
0.001
0.045
0.049
0.013
0.002
-0.065
-0.024
0.023
0.027
0.090
0.112
0.121
-0.013
-0.040
-0.035
-0.098
-0.020
0.131
0.065
0.066
0.113
0.004
-0.039
-0.007
-0.007
-0.018
0.004
-0.096
-0.094
0.099
0.029
-0.010
0.102
0.034
-0.021
0.094
0.033
-0.045
-0.042
-0.011
0.100
0.069
0.019
0.126
0.047
0.026
-0.101
0.017
-0.026
0.089
0.030
0.040
-0.002
-0.055
-0.075
0.114
0.035
0.048
-0.095
0.097
-0.078
-0.053
0.029
0.204
0.193
-0.061
-0.091
-0.191
-0.046
0.136
0.127
0.023
-0.014
0.036
-0.024
0.145
0.033
-0.099
0.101
0.049
-0.056
-0.025
0.029
0.028
-0.105
-0.009
0.140
0.100
0.079
-0.020
-0.175
-0.136
-0.069
0.076
0.137
0.196
0.115
0.055
0.088
-0.190
-0.162
-0.140
0.028
0.091
0.144
0.115
0.053
-0.044
-0.042
0.095
-0.029
0.065
0.050
-0.121
-0.018
-0.068
-0.033
0.137
0.002
-0.036
0.051
0.050
0.038
0.167
-0.067
0.000
0.022
-0.040
0.076
0.058
0.082
0.071
-0.032
0.053
0.003
-0.028
0.080
0.025
0.019
0.043
0.072
0.029
-0.070
-0.105
0.036
0.099
0.069
-0.006
-0.020
-0.019
0.126
0.012
0.047
-0.031
0.088
0.021
-0.094
0.014
-0.060
0.042
0.020
0.090
-0.071
0.017
0.037
0.012
-0.007
0.035
-0.035
-0.003
0.164
0.141
0.060
-0.203
-0.043
0.034
0.054
-0.013
0.116
0.150
0.005
0.049
-0.088
-0.107
0.056
0.073
0.083
0.007
-0.070
-0.100
0.116
0.061
-0.020
0.033
0.071
0.012
0.010
0.023
0.071
-0.011
-0.122
0.063
0.060
0.013
0.001
0.014
0.002
-0.077
0.076
0.066
0.043
0.025
0.051
-0.113
-0.045
-0.054
0.009
0.278
0.088
0.080
-0.053
-0.051
-0.060
-0.137
0.155
0.095
0.113
0.001
0.100
0.008
-0.118
-0.024
0.119
-0.075
-0.026
-0.058
0.074
0.127
0.037
-0.004
-0.013
0.065
0.076
0.028
0.050
0.049
-0.020
-0.024
-0.051
0.076
0.143
0.103
-0.019
-0.044
-0.061
0.067
0.017
-0.054
0.113
0.078
0.073
-0.022
-0.056
-0.052
0.086
-0.090
-0.031
0.089
0.137
0.070
0.092
-0.035
-0.121
0.050
0.073
0.087
0.068
0.006
0.041
0.003
0.036
-0.015
-0.065
0.063
0.121
0.024
-0.018
-0.029
-0.027
0.027
0.079
-0.038
-0.035
0.038
0.072
0.098
0.011
0.020
-0.022
-0.099
-0.010
0.041
-0.040
0.142
0.116
-0.073
0.023
0.058
-0.036
0.010
0.041
-0.031
-0.128
0.146
0.189
0.059
-0.022
-0.044
-0.015
0.074
-0.062
0.029
-0.041
0.029
0.037
0.201
0.053
-0.093
-0.036
-0.094
0.038
0.144
0.109
-0.008
0.085
-0.084
-0.053
0.083
-0.083
0.015
0.024
0.010
0.087
-0.086
-0.022
0.015
-0.008
0.038
0.001
0.019
0.048
0.035
-0.017
0.101
0.075
-0.013
0.042
-0.037
0.057
-0.062
0.066
0.088
0.055
-0.008
0.067
-0.023
-0.013
0.091
0.028
-0.019
0.037
0.017
0.044
-0.005
-0.127
0.119
0.000
-0.020
-0.073
0.052
0.042
0.164
0.074
-0.042
0.038
-0.054
-0.051
0.031
0.054
0.019
0.075
0.025
0.003
0.102
-0.046
0.033
0.125
-0.047
-0.069
-0.078
0.088
0.100
0.036
-0.093
-0.006
0.079
0.009
-0.001
-0.025
-0.034
0.105
0.063
-0.012
-0.047
0.076
-0.015
0.016
0.073
0.031
-0.009
0.053
-0.035
-0.084
0.075
-0.085
0.093
0.003
0.112
0.017
-0.060
0.013
0.090
-0.006
0.054
-0.017
-0.010
-0.013
0.062
0.094
-0.003
-0.044
0.027
0.062
-0.012
0.029
-0.087
0.003
-0.009
-0.007
-0.002
-0.002
0.066
0.008
-0.016
0.107
0.122
0.037
-0.003
0.023
-0.102
-0.093
-0.014
0.097
0.031
0.023
0.048
0.058
0.013
-0.032
-0.107
0.035
0.081
0.104
-0.046
-0.088
-0.057
0.173
0.149
0.014
-0.060
-0.014
0.024
0.032
0.114
0.033
-0.088
0.003
0.082
0.122
-0.048
0.016
0.013
0.012
0.051
0.034
0.028
-0.076
0.035
-0.019
0.060
0.038
-0.016
0.035
0.035
0.108
0.076
-0.035
0.022
-0.005
-0.003
0.116
0.035
-0.071
0.079
-0.012
-0.001
0.042
0.036
0.088
-0.015
-0.003
0.067
0.008
-0.004
-0.034
-0.078
0.139
0.115
0.126
-0.027
-0.016
0.025
0.029
0.059
0.009
0.092
-0.008
0.024
0.007
-0.104
-0.020
0.068
0.075
-0.028
-0.007
-0.071
-0.013
0.005
-0.047
0.066
0.080
-0.009
0.061
-0.053
-0.046
-0.036
0.072
0.100
0.126
0.219
0.004
-0.194
-0.144
0.046
0.103
0.050
0.047
0.101
-0.000
-0.071
-0.041
0.003
-0.054
-0.051
-0.018
0.013
0.014
-0.010
0.089
0.040
-0.065
-0.026
0.092
0.078
0.013
0.006
0.016
0.055
-0.047
0.008
0.052
0.005
0.048
-0.065
-0.012
-0.082
0.128
0.072
-0.034
-0.155
-0.010
0.048
0.045
-0.003
-0.021
0.034
0.036
0.038
-0.052
-0.037
0.047
0.074
0.013
-0.055
0.007
-0.005
-0.007
0.105
-0.010
0.062
0.009
-0.011
0.079
0.010
0.008
0.052
0.066
0.068
-0.012
-0.048
0.065
0.051
-0.120
-0.007
0.059
0.100
0.181
-0.071
-0.027
-0.037
-0.057
0.082
0.067
0.008
-0.038
0.050
0.021
-0.073
0.004
0.013
0.025
0.001
0.116
-0.075
-0.015
0.056
-0.014
0.059
0.105
-0.040
-0.027
-0.003
0.130
0.179
0.122
0.084
-0.131
-0.247
-0.083
0.112
0.084
0.087
0.001
0.014
-0.045
0.024
0.046
0.089
0.003
-0.022
-0.134
0.009
0.099
0.049
-0.011
0.083
0.021
0.020
-0.069
0.019
0.110
0.055
-0.013
0.033
-0.021
-0.093
0.009
-0.034
0.124
-0.003
0.032
0.035
-0.097
0.030
-0.057
-0.018
0.124
0.109
0.117
-0.069
0.010
-0.086
0.036
-0.002
0.201
0.061
-0.011
-0.011
0.032
-0.137
0.074
-0.029
-0.023
0.013
0.114
-0.068
-0.012
-0.045
0.061
-0.006
-0.020
0.031
0.093
0.073
-0.102
0.010
0.049
0.049
0.097
-0.018
-0.117
0.118
0.071
0.104
-0.073
-0.008
0.079
0.039
0.028
-0.027
0.032
-0.011
0.011
0.022
0.014
0.071
0.026
-0.010
-0.028
0.075
-0.037
0.035
0.012
0.080
-0.019
0.075
-0.020
-0.043
-0.053
0.104
0.023
-0.030
0.090
0.048
-0.041
0.057
0.021
-0.030
0.096
0.006
-0.100
-0.077
-0.030
0.062
0.318
0.109
0.047
-0.076
-0.216
-0.070
-0.069
0.119
0.085
0.127
0.159
0.139
-0.002
-0.022
-0.043
-0.122
-0.059
-0.003
0.190
-0.032
-0.010
-0.025
-0.045
0.095
0.179
0.016
0.018
-0.051
-0.076
0.021
0.034
0.034
0.094
0.030
-0.101
-0.007
0.048
0.024
0.029
0.059
0.009
0.005
-0.009
0.051
0.024
-0.002
-0.015
-0.022
0.053
0.058
-0.014
0.014
0.025
0.014
0.007
-0.142
-0.003
-0.022
0.034
0.118
0.062
-0.067
0.030
0.080
-0.000
-0.137
-0.025
0.149
0.166
-0.074
0.007
0.034
0.056
-0.110
0.040
-0.025
0.089
0.121
0.081
-0.090
0.042
0.001
0.058
-0.065
-0.129
-0.037
0.054
0.067
0.063
0.040
0.044
-0.099
-0.039
0.046
-0.093
0.054
0.070
0.074
0.113
-0.011
-0.042
0.096
-0.014
-0.022
-0.076
0.138
-0.033
0.012
0.082
0.000
0.138
0.102
-0.132
-0.150
-0.056
0.040
0.194
0.162
0.193
-0.035
-0.148
-0.200
-0.165
0.109
0.149
0.210
0.106
-0.035
-0.088
-0.033
-0.118
0.019
0.106
-0.062
0.113
-0.050
0.178
0.181
0.035
-0.040
-0.039
-0.036
0.087
0.159
-0.048
0.012
-0.061
0.092
0.022
0.018
0.000
0.009
-0.063
0.079
0.061
0.027
0.078
0.029
-0.029
-0.121
0.041
0.010
0.057
0.041
0.078
0.005
-0.029
0.052
-0.000
0.017
0.058
0.012
-0.014
0.021
0.023
0.059
-0.046
0.011
-0.012
0.022
0.034
-0.072
0.087
0.070
0.147
0.035
0.045
-0.025
0.007
-0.048
0.089
-0.002
-0.033
-0.011
-0.003
-0.004
0.085
0.094
0.094
-0.012
-0.052
-0.082
-0.005
0.096
-0.013
-0.075
-0.062
0.023
0.059
0.227
-0.051
-0.075
-0.048
0.030
-0.056
-0.023
0.066
0.143
-0.075
-0.103
0.000
0.104
0.176
0.169
0.038
0.040
-0.077
-0.196
-0.014
0.042
0.060
0.011
0.111
0.097
0.116
-0.091
0.023
-0.067
0.008
-0.045
0.059
-0.012
0.002
0.138
0.025
0.037
-0.030
-0.007
0.009
0.047
0.052
-0.070
-0.042
0.046
0.087
0.034
-0.006
-0.018
0.041
-0.034
0.057
-0.024
0.035
0.033
-0.022
0.031
-0.047
0.086
-0.070
0.074
0.094
0.081
-0.035
-0.064
-0.087
-0.001
0.121
0.063
-0.117
0.076
0.167
0.018
-0.035
-0.025
0.020
0.172
0.046
-0.089
0.030
-0.026
0.058
-0.091
0.046
-0.016
0.050
-0.024
0.081
-0.103
-0.063
0.101
-0.002
0.015
0.136
0.050
0.004
0.013
-0.059
0.091
0.066
0.099
-0.037
0.059
0.032
-0.054
-0.022
0.078
0.093
-0.002
-0.001
0.020
-0.061
-0.064
0.045
-0.024
0.146
-0.155
-0.129
0.114
0.129
0.148
0.056
0.046
-0.067
-0.060
-0.090
0.000
0.103
0.138
0.122
-0.067
-0.032
0.034
-0.019
0.013
0.025
0.052
-0.037
0.040
-0.030
0.088
0.103
-0.019
0.041
0.008
0.015
-0.035
0.037
0.072
0.170
0.045
-0.008
-0.148
0.010
0.036
0.050
0.087
-0.026
0.005
0.084
0.017
-0.052
0.055
0.054
-0.097
0.060
0.044
0.115
0.063
-0.035
0.011
0.000
-0.023
-0.026
0.035
0.078
0.018
0.114
0.010
-0.024
-0.037
-0.044
-0.034
0.043
0.049
0.164
0.023
-0.000
-0.067
0.029
0.035
-0.005
0.036
0.079
0.094
-0.021
0.027
0.040
-0.008
-0.062
-0.067
0.091
0.071
0.096
0.040
0.021
-0.013
-0.066
-0.051
0.029
0.246
0.016
-0.082
0.001
-0.113
0.030
0.048
-0.043
0.059
0.068
-0.012
0.036
0.005
-0.019
0.042
0.131
-0.021
-0.153
0.010
0.053
0.201
0.117
-0.007
0.071
0.006
-0.067
0.031
-0.056
-0.021
-0.021
0.098
0.054
0.124
-0.020
0.025
0.005
-0.045
-0.085
0.030
0.127
0.004
-0.017
-0.047
0.035
0.053
0.083
0.040
0.036
0.004
0.023
-0.019
0.126
-0.016
0.104
0.025
0.091
-0.085
-0.018
0.076
0.112
-0.053
-0.022
-0.024
0.084
-0.002
-0.031
-0.014
0.010
0.006
-0.032
-0.077
0.047
0.190
0.027
-0.039
-0.015
0.035
0.069
0.022
0.022
0.070
0.028
0.050
-0.024
0.054
-0.032
0.014
0.087
-0.032
0.006
-0.054
0.022
0.026
0.071
-0.020
0.024
-0.003
0.032
-0.020
0.032
0.007
-0.030
-0.018
0.012
0.016
-0.034
0.076
0.137
0.037
0.045
0.013
-0.074
0.049
0.142
0.014
-0.041
-0.047
-0.059
0.088
0.091
0.080
-0.206
-0.070
-0.019
0.019
0.080
-0.011
-0.033
-0.054
0.075
-0.028
0.021
0.053
0.050
0.034
-0.012
-0.043
0.118
0.103
-0.122
-0.060
0.152
0.151
0.055
-0.040
-0.248
-0.178
0.012
0.157
-0.019
0.012
0.084
0.109
0.078
-0.008
-0.008
-0.040
0.033
-0.058
0.005
0.026
0.004
0.023
0.019
0.117
0.102
-0.036
-0.025
0.041
-0.009
-0.055
0.066
0.050
-0.027
-0.053
0.059
-0.002
0.028
-0.008
0.022
0.028
0.007
0.062
-0.070
0.064
-0.037
-0.079
-0.019
0.065
0.021
0.085
-0.056
-0.031
0.056
0.122
0.071
-0.083
-0.005
0.070
-0.008
0.129
0.022
-0.035
-0.012
-0.147
0.001
0.118
0.010
-0.045
0.042
-0.035
0.153
-0.005
-0.045
-0.187
0.019
0.036
0.103
0.017
0.086
0.034
0.045
0.035
-0.068
-0.030
-0.008
0.016
0.120
0.052
0.094
-0.001
0.016
-0.009
0.037
-0.034
-0.013
-0.010
-0.023
0.034
-0.036
0.041
0.037
0.027
0.154
-0.002
0.132
-0.040
-0.137
-0.076
-0.011
0.012
0.086
0.095
0.049
-0.050
-0.048
0.016
-0.001
0.057
-0.007
-0.034
0.023
-0.026
-0.010
0.052
0.093
0.020
-0.084
0.052
0.047
0.005
0.081
0.160
-0.022
0.082
-0.035
-0.042
0.041
0.098
-0.002
-0.003
0.021
0.043
0.063
0.078
-0.011
-0.043
-0.090
0.149
0.128
-0.075
-0.066
0.172
0.008
-0.066
-0.079
0.046
0.153
0.071
-0.001
0.036
-0.009
-0.035
0.000
0.032
0.124
-0.047
0.099
0.120
0.035
-0.082
-0.042
-0.037
0.060
0.079
-0.031
-0.097
0.051
0.066
0.002
0.082
-0.039
-0.070
0.041
0.084
-0.026
0.023
0.005
0.113
0.079
0.073
0.044
-0.126
-0.027
0.138
0.042
-0.011
-0.010
0.015
0.008
0.056
0.100
-0.024
-0.046
-0.016
0.230
0.107
-0.087
-0.108
-0.048
0.084
0.114
0.026
0.037
-0.019
-0.075
0.117
-0.028
0.112
0.138
-0.001
0.006
-0.096
-0.185
-0.064
0.147
0.008
0.119
-0.048
0.030
0.031
-0.119
-0.009
0.032
-0.006
0.031
0.158
0.068
0.012
-0.063
-0.066
0.041
0.054
0.045
0.090
0.016
0.042
0.021
-0.019
0.185
-0.067
0.047
-0.020
0.070
-0.065
0.046
-0.021
-0.004
0.042
-0.005
0.090
0.018
0.067
-0.023
0.051
0.006
-0.029
0.051
-0.067
-0.011
0.060
0.060
0.028
0.099
-0.079
0.154
0.012
-0.009
0.004
-0.041
-0.045
-0.018
0.131
-0.016
0.070
-0.035
0.077
0.012
-0.007
0.001
-0.011
0.025
-0.065
-0.013
0.094
0.180
0.010
-0.023
-0.019
0.036
0.016
0.009
-0.038
0.016
0.010
0.061
0.031
0.056
-0.090
-0.150
0.025
0.049
0.137
0.218
0.002
-0.102
-0.115
-0.098
0.009
0.138
-0.052
0.133
0.011
0.063
-0.061
0.045
-0.044
-0.022
-0.071
0.031
0.108
0.057
-0.043
-0.085
0.053
0.013
0.092
0.015
-0.008
-0.004
0.063
0.008
-0.020
0.010
-0.048
0.082
0.033
0.042
0.016
0.053
0.061
-0.001
-0.028
-0.063
-0.031
-0.038
0.080
0.115
0.005
0.045
0.002
-0.083
0.027
-0.026
0.030
0.020
0.023
0.030
-0.034
-0.001
0.066
-0.060
0.121
0.100
-0.056
0.001
-0.000
0.083
0.064
-0.004
0.014
-0.015
-0.044
0.065
0.089
-0.069
-0.087
-0.061
0.140
0.196
0.026
-0.058
-0.108
-0.044
0.157
0.068
0.045
-0.079
0.059
0.081
-0.091
0.199
0.030
0.023
-0.078
-0.094
-0.080
0.172
0.072
0.032
0.047
-0.139
-0.160
0.034
0.068
0.107
-0.000
0.007
0.030
0.171
0.013
0.012
0.057
0.041
-0.078
0.011
-0.102
0.048
0.036
0.152
-0.064
0.041
0.033
0.014
0.063
-0.055
-0.003
0.004
0.102
0.036
-0.018
0.014
0.034
0.024
0.027
-0.035
0.008
-0.068
0.033
0.075
0.030
0.060
0.016
-0.065
0.045
0.018
0.037
-0.007
0.080
-0.038
0.102
0.026
-0.046
0.088
0.131
0.047
-0.052
-0.128
-0.033
0.006
-0.001
0.118
0.040
0.062
0.037
0.017
0.006
-0.005
0.006
0.020
-0.028
0.003
0.082
0.023
0.080
0.079
-0.005
-0.195
0.112
0.069
0.010
-0.056
-0.082
0.052
0.015
-0.020
-0.013
0.054
0.018
0.094
0.031
-0.015
0.023
-0.085
-0.037
-0.063
-0.047
0.113
0.230
0.026
0.269
0.031
-0.217
-0.209
0.021
0.169
0.016
0.141
0.055
-0.007
0.051
-0.018
-0.075
-0.101
0.015
-0.038
-0.017
0.172
0.153
-0.071
-0.106
-0.038
-0.096
0.050
0.108
-0.016
0.106
0.039
-0.033
0.013
0.049
0.009
-0.031
-0.029
0.110
0.094
-0.007
-0.034
0.093
0.126
0.007
-0.033
-0.046
-0.027
-0.060
-0.015
0.117
-0.008
0.077
0.096
0.017
0.057
-0.001
0.100
0.037
-0.074
0.044
0.042
-0.076
-0.017
0.075
0.065
-0.104
-0.047
0.165
0.013
-0.095
0.149
0.050
0.082
-0.005
0.101
-0.184
0.105
0.027
-0.032
-0.010
0.014
0.018
0.148
0.078
-0.101
-0.011
0.079
-0.041
-0.006
0.057
0.105
0.002
0.074
0.101
-0.030
-0.089
-0.126
-0.075
0.019
0.206
0.132
0.079
0.059
-0.098
-0.103
-0.020
0.012
-0.018
0.037
0.084
0.079
0.075
0.043
0.097
0.027
-0.066
-0.176
0.014
0.069
0.076
0.022
-0.007
0.053
0.029
-0.143
0.018
0.142
0.009
-0.067
0.009
0.047
0.082
-0.108
-0.050
-0.049
0.044
0.064
0.048
0.067
-0.076
0.049
0.033
0.098
0.007
0.063
0.115
0.034
-0.038
-0.078
0.086
0.160
0.032
0.003
-0.051
-0.000
0.113
0.171
-0.041
-0.097
-0.149
-0.007
0.033
0.138
0.022
-0.044
-0.009
-0.020
0.011
-0.020
-0.002
0.006
0.073
-0.031
0.030
-0.021
0.032
0.038
0.065
0.046
0.050
0.013
0.053
-0.025
0.027
0.009
0.010
0.094
0.003
-0.056
-0.005
0.036
-0.027
0.090
0.118
0.008
0.118
0.046
0.000
-0.067
0.007
0.012
-0.016
-0.079
0.010
0.133
0.058
-0.052
-0.026
-0.022
0.034
0.026
-0.001
-0.011
-0.040
0.084
-0.006
-0.001
-0.087
0.023
0.012
0.098
0.031
0.092
0.061
0.041
-0.090
0.085
0.043
-0.111
-0.032
0.061
0.176
0.058
-0.107
0.088
0.119
0.011
-0.071
-0.043
-0.000
-0.062
-0.005
-0.038
0.113
0.047
-0.057
-0.124
0.120
0.004
-0.011
0.061
0.067
-0.052
0.028
0.071
0.088
-0.006
-0.005
0.023
0.019
0.069
-0.027
0.002
0.088
0.013
-0.078
-0.064
0.158
0.186
-0.048
-0.144
0.038
0.121
0.106
0.059
0.076
-0.019
-0.081
-0.010
0.003
-0.068
0.018
0.092
0.154
0.132
0.186
0.087
-0.226
-0.111
-0.119
0.045
0.121
0.101
0.118
0.069
0.000
0.036
-0.002
-0.080
-0.060
-0.020
0.018
0.009
0.077
0.073
0.014
-0.058
0.080
-0.027
0.040
0.025
-0.063
0.108
0.008
0.059
0.087
-0.042
0.034
0.040
-0.095
0.060
0.002
0.052
0.086
-0.020
0.099
-0.013
0.025
-0.140
-0.046
0.138
0.036
-0.042
0.051
0.005
0.046
-0.041
-0.114
0.055
0.132
0.167
0.243
-0.016
-0.148
-0.212
0.077
-0.008
0.084
0.083
-0.015
0.116
-0.070
0.017
-0.053
-0.128
-0.121
0.095
0.041
0.090
-0.043
-0.011
-0.006
0.108
-0.050
-0.039
-0.088
-0.053
-0.004
0.102
0.305
-0.008
0.092
-0.040
-0.079
-0.119
0.108
0.147
0.087
0.064
0.050
0.058
0.104
-0.032
-0.058
-0.057
0.065
-0.037
-0.047
-0.013
0.064
-0.007
0.076
-0.004
0.070
0.011
0.033
-0.033
-0.022
-0.064
0.037
0.070
0.010
0.040
0.119
0.010
-0.021
0.042
0.125
0.197
0.107
-0.121
-0.239
-0.068
0.069
-0.004
0.123
0.034
-0.030
0.098
0.011
-0.075
0.034
-0.141
-0.015
-0.016
0.053
0.012
0.155
0.102
0.076
0.081
-0.079
0.032
0.134
0.043
0.019
0.026
-0.099
0.014
0.028
-0.068
-0.030
0.125
0.048
-0.143
-0.127
0.035
0.050
0.245
0.022
0.071
-0.047
-0.106
-0.076
0.014
0.040
0.131
0.086
0.099
0.014
-0.004
-0.093
-0.134
-0.037
0.020
0.055
0.104
0.157
-0.094
-0.378
-0.189
0.090
0.252
0.161
0.102
-0.084
-0.040
-0.046
0.095
0.120
-0.034
0.036
0.012
-0.034
0.062
0.054
0.119
0.012
-0.002
-0.026
0.151
0.154
-0.108
-0.173
-0.072
-0.011
0.049
0.100
-0.002
0.063
-0.033
0.025
-0.157
0.013
0.015
0.078
0.074
-0.062
-0.024
0.038
0.049
0.075
0.061
-0.001
0.088
0.028
-0.088
-0.089
-0.015
0.161
0.247
0.079
0.138
-0.099
-0.135
-0.088
-0.015
0.079
0.108
0.003
-0.004
0.047
0.055
-0.099
0.045
-0.060
-0.065
0.088
0.075
-0.058
-0.038
-0.068
0.107
0.087
-0.006
0.092
-0.121
-0.046
0.198
0.066
-0.002
-0.007
0.029
0.018
-0.027
0.059
0.002
-0.003
0.035
0.094
0.055
-0.010
0.026
-0.120
0.029
-0.057
-0.018
0.046
0.064
0.055
0.052
-0.018
0.213
-0.029
0.056
0.024
-0.015
0.028
-0.017
0.042
0.071
0.069
0.089
0.031
-0.077
0.011
-0.127
0.117
0.108
-0.056
-0.156
0.031
0.041
0.129
-0.069
0.040
-0.003
0.019
-0.176
0.114
0.117
0.214
0.042
0.152
-0.097
-0.145
-0.062
-0.020
0.073
0.102
0.260
0.092
-0.091
-0.040
0.040
-0.040
0.055
-0.058
0.004
-0.048
0.013
-0.011
0.028
0.065
0.081
0.160
0.047
0.021
-0.008
-0.025
-0.061
0.039
0.031
0.058
0.037
0.142
0.066
-0.079
0.006
-0.003
-0.025
-0.040
0.025
-0.024
0.004
-0.006
0.003
0.068
0.192
0.115
-0.039
-0.141
-0.014
0.049
0.082
-0.018
0.071
0.075
-0.003
0.127
0.219
0.109
-0.365
-0.364
-0.202
0.071
0.222
0.206
0.115
-0.069
-0.076
-0.027
-0.079
-0.139
-0.102
0.091
0.210
0.242
0.189
0.115
-0.211
-0.099
-0.047
0.046
0.287
0.183
0.129
-0.200
-0.099
-0.032
0.049
-0.072
0.112
0.122
0.033
-0.061
-0.080
-0.142
-0.058
0.094
0.181
0.023
0.033
0.004
0.027
0.054
0.038
-0.063
-0.083
-0.033
0.049
0.068
0.016
0.010
0.015
0.045
0.064
0.014
0.015
0.078
0.014
0.089
0.063
0.036
0.039
-0.012
-0.001
-0.020
-0.015
0.049
0.020
0.001
-0.125
0.132
0.001
-0.018
0.047
0.036
0.039
-0.020
-0.004
0.030
0.056
-0.077
0.061
-0.020
0.063
0.091
0.154
0.010
0.016
0.017
-0.073
0.111
-0.028
-0.038
-0.018
-0.055
0.229
0.158
0.016
0.087
-0.075
-0.224
-0.136
0.107
0.150
0.128
-0.040
-0.024
-0.029
0.034
0.063
0.104
-0.014
0.005
0.043
-0.105
-0.015
0.145
0.010
0.022
-0.022
-0.070
0.029
0.057
0.103
0.012
0.015
0.013
0.005
-0.022
0.111
0.022
0.054
-0.107
0.030
0.051
-0.028
0.066
0.132
0.175
0.305
0.117
-0.311
-0.249
-0.046
0.212
0.132
0.094
0.140
-0.041
0.018
-0.075
0.024
-0.104
-0.132
0.018
0.152
0.030
-0.096
-0.066
0.262
0.302
0.040
-0.149
-0.040
0.032
0.150
0.022
-0.024
0.067
0.061
0.006
-0.001
0.135
-0.141
-0.040
0.090
-0.001
-0.037
-0.111
-0.043
0.011
0.305
0.164
0.121
-0.013
-0.066
-0.148
-0.012
0.084
0.150
0.113
-0.046
0.083
0.022
-0.038
0.014
0.049
-0.033
0.048
-0.070
-0.034
0.009
0.064
0.025
0.002
0.051
0.007
0.008
0.064
0.020
0.079
0.077
-0.028
-0.014
0.023
0.138
0.017
-0.019
-0.088
0.040
0.075
0.035
-0.026
0.093
-0.001
-0.100
-0.060
0.062
-0.045
0.014
0.211
0.016
-0.026
-0.049
-0.023
-0.036
-0.099
0.073
0.144
0.060
0.036
-0.066
-0.031
0.110
0.042
-0.052
-0.005
0.086
-0.015
0.003
0.030
0.017
0.014
0.129
0.132
0.095
0.258
0.207
-0.293
-0.434
-0.197
0.172
0.254
0.213
0.078
-0.062
-0.087
-0.070
-0.040
-0.037
0.004
-0.150
0.177
0.276
0.271
0.113
-0.017
-0.208
-0.092
-0.038
0.293
0.103
-0.018
-0.085
0.035
-0.006
-0.038
-0.034
0.176
0.045
-0.008
0.052
0.019
-0.066
0.043
0.005
0.201
0.020
-0.040
-0.002
-0.015
-0.050
-0.047
-0.013
0.069
-0.003
0.030
0.011
-0.027
0.089
0.074
0.004
-0.078
0.104
-0.060
-0.036
0.038
0.177
0.167
0.119
-0.005
-0.065
-0.009
0.014
-0.018
-0.000
0.062
-0.019
0.003
-0.053
0.021
-0.031
-0.058
0.039
-0.033
-0.004
0.031
0.082
0.120
0.034
-0.079
-0.024
0.130
0.029
0.010
-0.026
0.001
0.011
0.055
0.029
-0.108
-0.045
0.040
0.069
-0.003
-0.078
0.060
-0.025
-0.015
-0.056
0.155
0.070
0.059
0.064
-0.157
-0.128
0.060
0.012
0.021
0.047
0.126
0.109
0.095
-0.180
-0.331
-0.060
0.160
0.205
0.095
0.002
0.028
-0.143
-0.049
0.074
0.115
0.076
-0.019
-0.021
-0.007
0.031
0.095
0.149
0.078
0.005
-0.047
-0.095
-0.042
0.045
-0.037
-0.016
0.037
0.036
-0.053
0.031
0.010
0.114
-0.072
-0.035
-0.098
0.065
0.124
0.126
-0.128
-0.032
0.016
0.021
-0.013
-0.009
-0.024
-0.067
-0.006
0.143
0.241
0.034
-0.096
-0.120
-0.135
0.100
0.000
0.079
0.066
-0.010
-0.060
-0.062
0.235
0.006
-0.085
-0.062
-0.115
0.039
-0.061
0.071
-0.016
0.026
-0.154
0.096
0.190
0.087
0.342
0.014
-0.239
-0.167
-0.012
0.001
0.084
0.029
0.017
0.031
0.028
0.040
-0.063
-0.057
0.029
-0.044
-0.041
-0.127
0.051
0.065
0.103
-0.018
0.074
-0.014
0.061
0.034
0.056
0.106
0.149
0.077
-0.314
-0.303
-0.073
0.096
0.248
0.047
-0.066
-0.117
0.010
0.072
-0.041
0.048
0.050
0.133
0.012
-0.033
0.098
0.086
0.078
0.126
-0.039
0.072
0.118
-0.049
-0.096
-0.055
-0.108
-0.024
0.188
0.103
-0.053
-0.076
0.083
-0.067
-0.036
0.041
0.033
0.106
0.028
0.009
0.027
-0.098
-0.071
0.210
0.110
0.014
0.154
-0.097
-0.014
-0.068
0.119
-0.065
-0.110
-0.101
0.105
0.395
0.150
0.131
-0.092
-0.277
-0.156
-0.008
0.100
0.082
0.063
0.020
-0.049
0.059
0.278
0.146
-0.007
-0.197
-0.120
-0.022
0.038
0.053
-0.022
-0.049
0.044
0.037
0.104
0.051
-0.072
-0.021
0.093
-0.064
0.059
0.045
-0.001
0.041
0.050
0.072
0.052
0.002
-0.064
0.003
-0.040
0.116
0.076
-0.006
0.014
0.042
-0.019
-0.032
0.039
0.170
0.070
-0.037
-0.028
-0.054
0.180
0.249
-0.089
-0.424
-0.277
0.117
0.267
0.304
0.071
-0.011
-0.184
-0.094
-0.107
0.084
0.001
0.027
0.045
0.046
0.154
0.142
0.012
-0.070
0.014
-0.049
0.102
0.087
0.030
-0.114
-0.076
-0.035
-0.073
0.079
0.185
0.040
0.053
-0.028
-0.071
-0.031
-0.007
0.097
-0.051
-0.030
0.008
-0.078
0.270
0.192
0.105
0.023
-0.011
-0.261
-0.071
-0.029
0.053
0.103
0.126
0.057
0.064
0.001
-0.026
0.072
0.047
0.018
-0.062
-0.057
-0.016
-0.058
0.009
0.065
0.063
0.001
-0.061
-0.088
-0.030
0.077
0.131
0.120
-0.021
-0.098
0.020
0.001
-0.080
-0.058
0.080
0.141
0.101
0.049
0.010
-0.074
-0.055
0.004
0.030
0.022
0.003
0.105
0.099
0.042
-0.042
-0.082
-0.135
0.087
-0.044
0.033
-0.050
-0.032
-0.054
0.050
0.028
0.029
-0.018
0.071
-0.040
-0.108
0.126
0.243
0.070
-0.104
-0.197
-0.159
-0.051
0.213
0.055
0.062
0.060
-0.018
-0.020
-0.147
-0.054
-0.138
0.129
0.283
0.039
0.056
0.129
-0.066
-0.120
-0.048
0.068
0.187
-0.013
0.020
0.079
-0.021
0.040
-0.112
-0.130
-0.122
-0.054
-0.000
-0.025
0.040
-0.029
0.087
0.050
0.026
-0.043
0.021
-0.063
0.016
0.116
0.228
-0.066
-0.006
-0.071
0.036
-0.009
0.019
0.000
0.060
0.119
-0.039
0.006
-0.101
-0.010
-0.017
0.132
0.077
-0.016
0.062
0.038
0.003
-0.039
0.044
0.059
0.042
0.056
0.048
-0.073
-0.052
-0.090
-0.048
0.086
0.125
0.034
0.130
0.093
-0.067
-0.117
-0.017
0.086
0.107
0.025
0.001
-0.070
0.052
0.022
0.061
0.070
-0.029
-0.011
0.016
-0.038
0.008
0.014
0.127
0.043
0.009
-0.084
-0.164
-0.032
0.201
0.231
0.102
0.063
0.022
-0.181
-0.034
-0.001
0.079
0.082
-0.075
0.110
0.092
0.007
-0.026
-0.094
0.067
-0.041
-0.096
-0.047
0.086
0.010
0.057
0.284
0.168
-0.140
-0.157
-0.056
0.064
0.166
0.145
0.072
-0.005
0.015
-0.049
0.006
0.050
-0.077
-0.091
0.082
0.084
0.041
-0.022
-0.001
-0.046
0.116
-0.031
0.024
0.061
0.008
0.001
0.021
0.021
0.121
0.006
-0.008
0.036
0.029
-0.039
-0.023
-0.051
0.015
0.044
0.107
0.013
0.101
-0.073
0.097
0.004
-0.151
0.018
0.068
-0.003
-0.025
0.025
0.045
0.067
0.073
-0.014
-0.020
0.046
-0.116
0.006
0.042
0.018
0.045
0.105
0.115
0.068
-0.012
-0.007
0.047
-0.090
-0.010
-0.118
-0.143
0.085
0.340
0.219
0.127
-0.120
-0.216
-0.200
-0.020
0.083
0.149
0.030
0.009
0.222
0.132
0.054
-0.171
-0.069
-0.162
-0.031
0.021
0.102
0.080
0.089
0.023
-0.038
0.007
0.059
0.120
-0.015
0.025
-0.105
0.028
0.020
0.049
0.063
0.082
0.037
-0.001
0.020
0.098
-0.034
-0.004
0.020
-0.031
0.004
0.078
-0.019
0.043
0.083
-0.071
-0.037
0.044
0.173
0.113
0.035
-0.182
-0.040
0.035
0.126
0.075
-0.011
-0.073
0.050
-0.038
0.220
0.155
-0.010
-0.081
0.102
0.083
0.086
-0.326
-0.278
-0.052
0.109
0.161
0.265
-0.012
-0.073
-0.011
-0.025
0.031
-0.127
-0.039
0.040
-0.005
0.111
0.092
-0.007
-0.107
-0.013
0.030
0.099
0.228
0.064
-0.004
0.041
-0.105
-0.185
0.035
0.066
0.110
0.206
0.114
0.029
-0.050
-0.135
-0.118
-0.005
0.016
0.031
-0.002
0.092
0.075
-0.008
-0.051
-0.034
0.124
-0.002
0.129
-0.056
-0.010
-0.005
-0.126
0.085
0.113
0.030
-0.040
-0.023
0.009
0.046
-0.051
-0.011
-0.008
-0.041
-0.007
0.076
0.056
0.005
-0.050
0.019
0.090
0.038
-0.077
-0.029
0.025
0.059
0.094
0.111
-0.021
-0.030
-0.073
0.048
0.114
-0.009
-0.036
0.109
0.030
-0.034
-0.015
0.015
0.103
0.056
-0.052
-0.072
-0.023
0.011
0.098
0.100
0.104
-0.144
-0.016
0.000
-0.011
0.029
0.044
0.013
0.078
-0.005
0.002
-0.098
-0.079
0.027
0.148
0.084
0.071
0.100
-0.046
-0.274
-0.163
0.139
0.190
-0.024
0.025
-0.060
0.025
0.039
0.125
0.103
0.053
-0.274
-0.417
-0.106
0.083
0.177
0.090
0.136
0.066
-0.027
-0.052
0.023
0.005
0.066
0.023
0.075
0.051
0.021
0.101
0.087
0.029
-0.097
0.064
-0.018
0.088
0.001
-0.070
-0.012
0.204
0.143
0.007
-0.140
-0.110
-0.012
0.019
0.074
0.100
0.049
0.071
-0.050
-0.154
0.085
0.151
-0.049
-0.021
-0.028
-0.113
0.064
0.227
0.192
-0.141
0.017
0.014
-0.003
-0.013
0.040
0.069
0.035
-0.058
0.045
0.024
0.010
-0.065
0.030
-0.125
-0.079
0.093
0.219
0.230
0.059
0.075
-0.018
-0.140
-0.108
0.138
0.064
0.038
0.066
0.159
0.012
0.003
-0.034
0.069
-0.021
0.034
-0.007
-0.109
0.024
0.012
0.048
0.076
0.011
0.074
-0.014
0.003
-0.089
-0.074
0.114
0.044
0.014
0.126
0.017
-0.044
0.000
-0.015
0.073
-0.055
0.158
-0.030
-0.016
-0.064
0.033
0.096
0.172
0.095
-0.105
-0.103
-0.010
0.017
0.037
0.056
0.217
0.132
0.089
-0.332
-0.425
-0.042
0.221
0.264
0.125
0.053
-0.028
-0.053
-0.092
0.028
0.040
0.070
0.036
0.057
-0.059
0.075
0.069
0.131
-0.049
-0.073
-0.042
0.201
0.183
0.035
-0.044
-0.053
-0.085
0.021
0.079
0.025
0.003
-0.019
0.017
0.046
-0.040
-0.104
0.087
0.080
0.002
-0.152
0.043
0.179
0.018
-0.075
0.009
0.010
-0.002
0.081
0.183
-0.056
0.008
0.062
0.222
-0.064
-0.025
-0.014
-0.067
-0.025
-0.001
0.049
0.155
0.041
0.045
-0.051
-0.087
-0.039
-0.030
0.078
0.039
-0.018
-0.027
0.031
-0.035
0.033
0.039
0.160
0.190
0.164
-0.021
-0.166
-0.102
-0.036
0.035
0.074
0.032
-0.029
0.002
-0.147
-0.005
-0.143
0.082
0.137
-0.039
-0.086
-0.140
-0.049
0.068
-0.057
0.045
0.049
0.090
0.193
0.160
0.071
-0.060
-0.175
-0.025
0.138
-0.018
0.004
0.190
0.146
0.213
0.165
-0.205
-0.575
-0.446
0.068
0.322
0.359
0.069
-0.037
-0.122
0.115
-0.037
-0.075
-0.154
0.022
0.034
0.024
0.115
0.132
0.020
0.030
-0.134
0.064
-0.010
-0.018
-0.025
0.033
-0.039
0.016
-0.050
0.018
0.243
0.084
-0.053
-0.038
0.008
-0.066
0.019
0.018
0.025
0.090
0.026
0.082
-0.118
-0.111
0.043
0.050
0.015
0.034
-0.016
-0.128
0.028
0.125
0.045
0.122
0.063
0.041
-0.030
-0.131
-0.163
0.037
0.232
0.297
0.121
-0.004
-0.091
-0.085
0.068
0.030
-0.037
0.143
0.050
0.095
0.003
-0.055
0.058
0.032
-0.021
-0.024
0.026
-0.068
0.050
0.010
-0.005
-0.016
-0.014
0.064
0.065
0.020
0.025
-0.080
0.051
0.059
0.005
0.024
0.039
-0.088
-0.031
0.069
0.214
0.166
-0.038
-0.075
-0.019
0.077
0.077
0.006
-0.011
0.068
0.282
0.212
-0.060
-0.355
-0.384
-0.043
0.260
0.210
0.170
0.081
0.074
-0.004
-0.229
-0.142
0.019
0.042
0.128
0.163
0.154
-0.006
0.039
0.037
0.123
0.043
-0.062
-0.001
-0.022
-0.097
-0.193
-0.155
0.143
0.452
0.288
0.131
-0.140
-0.190
-0.198
-0.041
-0.004
0.004
0.126
0.154
0.120
0.019
-0.061
-0.019
-0.106
0.002
-0.057
0.032
-0.012
-0.018
0.067
-0.026
0.079
0.188
0.061
0.060
-0.005
0.001
-0.014
-0.115
0.007
0.080
0.059
-0.050
0.056
0.118
0.002
-0.059
-0.008
0.075
0.008
-0.006
-0.023
-0.075
0.059
0.127
0.071
0.129
-0.054
-0.006
0.018
0.036
0.028
0.011
-0.080
-0.112
0.155
0.089
-0.044
-0.041
0.032
0.200
0.062
-0.029
-0.011
-0.095
0.050
-0.014
-0.022
-0.064
0.117
0.004
0.023
-0.159
0.065
0.167
0.031
0.172
-0.051
-0.091
0.012
0.034
0.030
-0.004
0.109
0.003
-0.039
0.075
0.076
0.092
-0.012
0.189
0.091
-0.270
-0.460
-0.202
0.029
0.264
0.361
0.414
0.009
-0.291
-0.184
0.034
0.085
0.079
0.115
0.016
0.094
0.083
0.125
0.067
-0.113
-0.061
0.028
0.045
0.020
-0.011
0.097
0.043
-0.058
-0.005
0.032
0.083
0.160
0.129
-0.092
-0.114
-0.039
0.008
0.005
0.119
-0.016
0.012
0.022
0.012
-0.051
0.021
-0.002
-0.037
-0.047
-0.107
0.179
0.292
0.190
-0.000
-0.141
-0.141
0.021
0.016
0.096
0.091
0.079
-0.039
0.005
0.032
0.039
-0.047
-0.065
0.029
-0.010
-0.032
0.128
-0.001
-0.045
0.125
-0.008
0.101
0.002
0.098
-0.049
-0.101
-0.079
0.147
0.162
0.014
-0.095
-0.011
0.063
-0.004
-0.045
0.029
0.067
-0.004
0.054
0.054
-0.055
0.001
-0.004
-0.024
-0.056
-0.013
0.132
-0.007
0.035
-0.041
0.023
0.045
-0.009
0.112
0.037
-0.122
-0.087
0.137
0.162
-0.071
0.013
-0.057
-0.086
0.085
0.012
0.099
0.132
0.033
0.066
-0.132
-0.201
0.092
0.348
0.289
-0.175
-0.483
-0.199
0.126
0.246
0.230
0.101
0.021
-0.193
-0.186
-0.023
0.160
0.119
-0.070
0.005
0.045
0.043
0.017
0.110
0.041
-0.002
-0.128
-0.034
0.096
0.213
-0.072
-0.006
-0.090
-0.029
0.229
0.200
0.082
0.033
-0.008
-0.055
-0.122
-0.063
0.080
0.158
0.033
-0.070
0.059
0.015
-0.102
-0.075
0.118
-0.056
-0.065
-0.037
0.153
0.006
0.009
0.042
-0.140
-0.058
0.232
0.108
0.153
0.039
-0.162
-0.060
-0.003
0.083
0.016
-0.027
0.060
0.176
0.108
-0.162
-0.129
-0.086
0.057
0.116
-0.062
-0.043
-0.046
-0.019
0.153
-0.054
-0.005
0.018
0.018
0.074
0.029
-0.129
-0.002
0.071
-0.020
0.055
0.076
0.007
0.021
0.035
0.102
-0.004
0.010
-0.176
-0.109
0.101
0.133
0.147
0.018
-0.176
-0.076
-0.000
0.258
0.098
-0.069
0.002
-0.053
-0.048
-0.016
-0.004
0.223
0.125
-0.119
-0.420
-0.396
0.162
0.292
0.239
0.103
0.000
-0.024
-0.056
-0.300
-0.065
0.038
0.278
0.324
0.255
0.015
-0.085
-0.159
-0.102
0.106
0.170
0.082
0.080
0.050
-0.039
-0.101
-0.054
-0.026
-0.033
-0.081
0.012
0.137
0.039
0.158
0.031
-0.081
-0.021
-0.053
0.021
0.032
0.095
0.006
-0.080
0.207
0.152
-0.027
-0.095
-0.047
0.050
-0.080
0.033
0.087
0.037
0.029
-0.013
0.010
-0.036
0.011
0.079
0.126
-0.036
-0.006
-0.037
-0.077
0.015
0.282
0.342
-0.003
-0.055
-0.200
-0.129
0.021
0.106
0.067
0.077
0.056
0.036
-0.054
-0.005
-0.011
-0.072
-0.055
0.039
0.022
0.138
0.044
0.082
-0.007
-0.095
-0.151
0.012
0.053
0.026
0.206
-0.020
0.034
-0.049
-0.113
0.027
0.016
-0.001
0.046
0.003
-0.010
0.056
0.032
-0.066
0.000
0.064
-0.031
0.078
0.103
0.049
-0.034
-0.034
-0.043
0.045
0.161
0.063
0.075
0.109
0.222
0.055
-0.256
-0.391
-0.282
0.158
0.187
0.276
0.177
-0.045
-0.069
-0.143
-0.072
0.002
-0.081
-0.010
0.129
0.065
0.136
-0.035
0.020
0.073
0.049
0.003
-0.074
-0.016
0.029
0.037
0.041
0.058
-0.042
0.005
0.008
-0.050
-0.070
0.008
-0.070
0.063
0.056
0.284
0.025
0.114
-0.044
-0.135
-0.020
-0.021
0.074
0.046
0.145
-0.017
0.016
-0.084
0.013
-0.020
0.102
0.154
-0.116
-0.138
-0.085
0.068
-0.025
-0.083
-0.014
0.196
0.091
0.001
-0.146
0.093
0.047
0.010
-0.075
-0.047
0.192
0.234
0.004
-0.028
-0.110
0.077
-0.030
0.038
-0.001
-0.103
0.010
0.094
-0.042
0.045
0.079
-0.033
0.009
-0.070
-0.023
0.007
0.024
0.128
0.059
0.080
0.042
-0.082
0.020
0.105
-0.075
0.022
0.096
-0.045
-0.107
0.099
-0.018
-0.092
-0.083
-0.078
0.255
0.560
0.333
-0.193
-0.595
-0.550
0.140
0.261
0.321
0.103
0.078
0.135
-0.025
-0.219
-0.114
0.005
0.093
0.224
0.083
-0.053
-0.021
-0.013
0.092
0.057
0.031
-0.003
-0.008
0.087
-0.078
0.056
0.059
-0.059
-0.095
-0.057
0.046
0.053
0.050
0.072
0.004
0.020
0.025
0.108
0.040
0.027
-0.001
0.008
0.029
0.101
0.198
0.066
-0.073
-0.136
-0.119
0.064
0.163
0.098
0.041
0.042
-0.035
0.125
-0.083
-0.044
0.023
-0.046
0.041
0.167
0.058
-0.072
-0.050
0.101
0.231
0.107
-0.165
-0.276
-0.156
-0.133
0.127
0.276
0.268
0.155
0.054
-0.153
-0.282
-0.189
0.026
0.062
0.087
0.148
0.100
0.231
-0.003
-0.042
-0.070
-0.047
-0.009
-0.028
0.003
0.070
-0.075
0.022
0.111
0.032
-0.026
0.005
0.026
0.127
-0.052
-0.045
0.038
0.124
0.044
-0.097
-0.041
0.019
0.052
0.051
0.122
0.048
0.129
-0.029
0.071
0.182
-0.068
-0.568
-0.453
-0.003
0.433
0.336
0.120
-0.042
-0.039
-0.119
0.001
-0.059
-0.003
-0.093
0.047
0.184
0.229
0.095
-0.048
-0.037
-0.128
-0.070
0.023
-0.031
0.018
-0.051
0.001
0.212
0.017
0.065
0.117
-0.193
-0.235
0.053
0.202
0.126
-0.014
0.035
0.141
-0.008
-0.023
-0.066
0.065
-0.000
-0.025
-0.007
0.093
0.012
-0.054
-0.062
0.077
0.015
0.104
-0.035
0.034
-0.129
0.053
-0.015
-0.005
0.032
0.146
0.020
0.076
0.103
0.028
-0.148
-0.010
0.046
0.277
0.107
-0.080
-0.079
-0.051
-0.005
0.074
0.045
0.036
-0.114
-0.065
0.020
0.168
0.014
-0.096
-0.024
-0.049
-0.046
0.120
0.147
0.038
0.005
-0.042
-0.038
0.141
0.232
-0.026
-0.026
-0.038
0.026
0.019
-0.021
-0.042
-0.023
-0.139
0.255
0.294
0.128
-0.032
-0.043
-0.274
-0.037
-0.023
0.122
0.088
0.121
0.073
0.056
0.028
-0.036
-0.052
0.007
-0.054
-0.005
0.108
0.220
-0.024
-0.312
-0.380
-0.091
0.220
0.250
0.177
-0.013
-0.037
-0.013
0.006
0.013
-0.038
0.156
-0.042
-0.054
0.056
0.017
0.039
0.200
0.060
-0.084
-0.220
-0.010
0.128
0.051
0.034
0.123
0.062
-0.060
-0.151
-0.144
0.100
0.173
0.121
0.086
-0.016
-0.116
0.025
0.025
-0.091
0.080
0.072
0.132
0.076
-0.106
-0.066
-0.112
0.137
0.089
0.004
0.084
-0.196
0.093
0.260
0.120
0.007
-0.097
-0.092
-0.001
0.019
0.007
0.111
0.181
0.103
0.058
-0.258
-0.070
0.015
0.104
0.020
0.068
0.030
0.026
-0.082
0.034
-0.031
-0.008
0.300
0.153
-0.026
-0.120
-0.027
0.080
0.085
-0.016
0.071
0.021
0.101
0.052
0.004
-0.032
0.068
-0.127
-0.021
0.065
0.095
-0.037
0.109
0.090
-0.006
-0.066
-0.037
0.125
0.071
0.059
0.097
0.035
0.013
-0.136
-0.007
0.031
-0.006
0.223
0.111
-0.062
-0.102
-0.009
0.025
0.027
-0.021
0.148
0.218
0.132
-0.368
-0.482
0.013
0.201
0.158
-0.004
0.006
-0.116
-0.051
0.109
0.087
0.128
-0.021
-0.184
-0.029
0.123
0.040
0.046
0.046
0.070
0.114
0.032
0.057
0.049
0.030
-0.054
-0.137
-0.035
-0.088
0.012
0.049
-0.004
0.063
-0.116
0.047
0.023
0.010
0.104
0.091
0.040
-0.000
0.006
-0.080
-0.005
-0.051
0.038
0.039
0.112
0.084
0.018
0.031
0.055
-0.022
-0.066
0.021
-0.024
-0.014
0.021
0.027
0.068
-0.043
-0.018
0.074
-0.047
-0.090
0.014
-0.092
0.065
0.188
0.117
0.057
-0.155
-0.032
0.023
0.108
-0.020
0.086
0.086
0.024
-0.014
-0.136
-0.006
-0.018
0.082
0.268
0.167
-0.083
-0.094
-0.006
-0.080
0.020
0.180
0.044
0.051
0.022
0.054
0.035
0.104
-0.037
-0.092
-0.084
-0.068
0.061
0.157
0.018
0.049
-0.057
0.036
-0.051
-0.023
-0.038
0.054
-0.014
0.161
0.137
0.050
0.054
-0.043
-0.124
0.117
-0.029
0.019
0.316
0.239
-0.094
-0.399
-0.184
0.019
0.179
0.078
0.196
0.058
-0.152
-0.087
-0.042
0.041
-0.013
0.120
-0.012
0.018
0.089
0.108
0.024
0.016
0.004
-0.017
-0.044
0.024
-0.063
0.001
-0.024
0.036
0.016
-0.030
0.004
0.004
-0.015
-0.013
-0.033
-0.011
0.232
0.233
0.131
0.014
-0.124
-0.040
0.008
0.007
0.092
0.010
0.014
-0.013
0.004
-0.010
0.061
0.038
-0.038
-0.001
0.013
-0.015
-0.063
0.021
-0.057
-0.067
0.069
0.205
0.175
0.058
-0.182
-0.019
0.044
-0.042
-0.048
0.060
0.075
0.007
-0.071
0.017
-0.041
0.209
0.117
0.039
-0.056
-0.037
-0.012
-0.079
0.130
0.191
0.036
-0.037
-0.003
0.039
0.032
-0.177
0.003
0.145
0.261
0.005
-0.157
-0.156
-0.016
0.150
0.186
0.021
0.046
0.024
0.053
-0.051
-0.002
0.050
-0.126
0.070
0.175
0.273
0.253
-0.180
-0.409
-0.290
0.110
0.165
0.155
0.043
-0.073
-0.002
-0.154
0.002
-0.023
0.244
0.166
0.130
0.092
-0.062
-0.111
0.016
0.163
0.142
-0.072
0.104
-0.037
-0.024
-0.079
0.003
-0.009
-0.022
-0.014
0.080
-0.015
0.009
-0.005
-0.046
0.073
0.066
0.124
0.132
0.000
-0.034
-0.051
-0.053
0.000
0.052
0.003
0.096
-0.024
0.062
-0.017
-0.052
0.106
0.008
0.017
-0.072
-0.069
0.083
0.088
-0.043
0.035
0.070
0.103
-0.078
0.018
0.191
0.124
-0.039
-0.035
-0.147
-0.077
0.017
0.098
0.092
0.015
0.011
0.052
0.004
0.056
0.101
-0.131
0.019
-0.011
0.145
0.055
-0.108
0.102
-0.122
-0.064
-0.073
0.132
0.166
0.142
0.032
-0.230
-0.151
-0.051
-0.013
0.106
0.098
0.034
0.084
0.003
0.159
0.120
-0.032
-0.102
-0.028
-0.012
0.027
-0.047
0.063
0.197
0.007
0.021
-0.098
-0.055
0.110
0.009
-0.106
0.002
-0.027
0.083
0.003
0.093
-0.071
0.005
0.118
0.165
0.088
-0.051
-0.080
-0.028
0.088
0.184
0.141
-0.268
-0.424
-0.074
0.238
0.299
0.005
-0.035
-0.044
-0.112
-0.004
-0.072
-0.014
0.036
0.066
0.060
-0.070
0.126
0.055
0.099
0.059
-0.009
-0.061
-0.084
0.045
0.010
0.069
0.077
-0.074
-0.065
0.185
0.018
0.030
-0.070
-0.026
0.058
-0.008
0.023
0.208
0.220
0.186
-0.140
-0.233
-0.165
0.059
0.079
0.229
0.017
-0.012
-0.019
-0.027
-0.009
-0.004
-0.038
0.027
-0.057
0.040
-0.047
0.081
0.048
0.050
0.093
-0.118
0.054
0.002
0.020
0.115
0.072
-0.026
0.089
0.032
-0.001
0.028
-0.067
0.113
0.117
0.027
0.002
-0.022
-0.014
0.039
-0.025
0.010
0.075
-0.003
0.023
0.023
-0.011
-0.018
-0.066
-0.030
0.011
0.082
0.079
0.171
0.017
-0.042
-0.039
0.013
0.022
0.021
0.058
0.049
-0.003
-0.042
0.116
0.011
0.100
-0.067
-0.102
0.062
-0.134
-0.108
-0.021
-0.049
0.058
-0.056
0.194
0.325
0.181
-0.051
-0.165
-0.110
-0.067
0.096
0.098
0.020
0.002
0.093
0.005
0.025
-0.128
-0.053
0.195
0.104
-0.101
-0.411
-0.452
-0.053
0.397
0.523
0.217
-0.109
-0.196
-0.196
0.129
-0.030
0.112
0.066
0.108
0.032
-0.086
-0.081
0.049
0.105
0.071
-0.028
-0.111
0.014
0.162
0.143
-0.147
-0.025
-0.001
-0.066
0.067
-0.007
-0.014
0.139
0.020
0.066
-0.031
-0.008
-0.049
0.034
0.085
-0.011
0.017
0.126
