0.048
-0.202
0.025
-0.021
0.004
-0.046
0.039
0.014
0.159
-0.467
-0.087
0.131
0.157
0.067
-0.106
0.006
-0.044
-0.085
-0.079
-0.079
-0.098
0.040
-0.039
0.024
0.026
0.029
-0.027
-0.077
0.079
-0.084
-0.058
0.046
-0.014
-0.040
0.005
0.169
-0.284
-0.067
0.071
0.029
-0.006
-0.040
0.087
0.024
-0.049
-0.007
-0.133
-0.066
0.160
0.313
-0.599
-0.103
0.091
0.015
-0.056
0.044
-0.017
-0.313
-0.185
0.094
0.076
0.030
-0.069
-0.069
-0.081
-0.142
0.046
0.081
-0.053
-0.035
-0.091
0.068
0.050
0.077
0.175
-0.391
-0.141
0.118
0.024
-0.015
0.079
-0.052
-0.128
-0.116
-0.004
-0.017
0.101
0.046
-0.043
0.203
0.312
-0.772
-0.129
0.112
-0.043
0.136
0.115
-0.049
-0.081
-0.041
-0.040
-0.018
-0.107
-0.080
0.078
0.112
0.085
0.002
-0.137
-0.123
0.017
0.104
0.049
-0.247
0.128
0.347
-0.532
-0.330
0.131
0.052
0.019
-0.041
-0.008
-0.060
-0.052
-0.022
-0.007
0.052
-0.022
-0.029
-0.020
0.062
-0.040
-0.021
-0.046
-0.114
0.105
0.298
-0.321
-0.370
0.107
0.110
0.173
0.100
-0.504
-0.077
0.028
0.047
-0.037
-0.042
0.049
-0.070
-0.020
0.011
-0.017
0.010
-0.043
0.056
-0.003
-0.075
0.195
-0.447
-0.288
0.182
0.372
-0.148
-0.192
-0.042
-0.024
-0.106
0.023
-0.000
-0.046
-0.024
-0.050
0.038
0.030
-0.088
0.057
-0.117
0.005
0.165
0.055
-0.375
-0.030
0.050
0.064
0.039
-0.023
-0.126
-0.193
0.062
-0.080
-0.027
-0.011
0.043
0.027
0.058
-0.019
-0.057
-0.035
-0.007
-0.111
-0.107
-0.041
0.001
0.071
0.052
-0.109
-0.117
-0.024
0.178
-0.145
-0.040
0.026
-0.010
-0.076
0.050
-0.085
-0.067
-0.003
0.050
0.017
0.377
-0.397
-0.289
0.255
0.285
-0.358
-0.116
0.052
0.017
-0.028
0.073
-0.031
-0.127
-0.015
-0.015
0.038
-0.095
-0.012
-0.153
0.004
-0.014
0.218
0.004
-0.059
-0.059
-0.096
-0.057
-0.136
-0.069
0.055
0.055
-0.052
0.126
-0.007
-0.024
-0.084
-0.084
0.042
0.059
-0.060
0.129
0.023
-0.109
-0.120
-0.002
-0.039
0.163
0.343
-0.841
-0.027
0.234
0.019
-0.007
0.027
-0.042
-0.135
0.148
0.145
-0.667
0.064
0.300
0.055
-0.169
-0.033
0.274
-0.293
-0.142
0.008
-0.139
0.064
0.135
-0.129
-0.065
0.380
-0.219
-0.331
0.127
0.044
0.014
-0.009
0.018
-0.008
-0.083
-0.004
0.292
-0.447
-0.250
0.175
0.251
0.040
-0.126
-0.074
0.065
-0.019
-0.101
-0.003
0.000
0.003
0.019
0.075
0.056
-0.042
-0.090
-0.041
-0.166
-0.127
-0.031
-0.008
0.036
-0.078
0.023
-0.076
-0.021
0.072
-0.120
-0.133
0.050
-0.011
0.023
0.065
-0.010
-0.022
-0.058
-0.065
0.103
-0.019
-0.003
-0.055
-0.041
-0.062
0.009
-0.087
0.039
0.090
0.035
-0.075
-0.053
-0.148
0.139
0.556
-0.632
-0.638
0.247
0.288
0.100
0.018
-0.060
-0.118
-0.035
-0.089
-0.111
-0.053
0.048
0.080
0.028
-0.170
0.043
-0.015
0.099
0.112
-0.004
-0.244
-0.076
0.061
0.054
0.525
-0.727
-0.238
0.164
0.261
0.178
-0.184
-0.048
-0.261
-0.137
0.001
0.026
0.168
0.050
0.138
-0.083
-0.051
-0.022
0.027
0.011
-0.243
0.093
0.073
-0.092
-0.010
0.020
-0.023
-0.029
0.055
-0.017
-0.028
-0.190
-0.099
-0.119
0.102
0.027
0.018
-0.045
-0.039
0.011
-0.143
-0.008
-0.109
0.002
-0.016
0.011
-0.005
0.280
-0.241
-0.115
0.106
0.079
-0.009
0.102
0.276
-0.588
-0.560
-0.026
0.347
0.149
0.166
-0.092
-0.093
-0.156
-0.062
0.005
-0.045
-0.058
-0.008
0.100
0.334
0.259
-1.041
-0.064
0.327
0.220
-0.004
-0.128
-0.102
-0.077
-0.050
-0.115
-0.150
0.035
0.232
-0.071
-0.054
-0.020
-0.011
-0.077
-0.070
0.020
-0.015
-0.129
-0.056
-0.033
0.299
-0.266
-0.489
0.140
0.152
0.114
-0.032
-0.073
-0.062
-0.005
-0.063
0.001
-0.031
0.044
-0.050
-0.040
0.030
-0.082
0.252
-0.109
-0.557
0.124
0.104
0.209
-0.051
-0.107
0.005
0.002
-0.003
-0.145
-0.028
0.037
-0.092
0.008
-0.019
-0.041
0.042
0.055
0.045
-0.044
-0.112
-0.126
-0.049
-0.070
0.049
0.092
-0.020
-0.055
-0.077
0.203
-0.201
0.017
-0.239
-0.044
0.014
-0.029
0.013
-0.097
0.084
-0.060
-0.066
0.048
0.016
0.015
-0.109
-0.084
0.009
0.022
0.008
0.023
0.081
0.085
-0.015
-0.072
-0.111
-0.070
-0.001
-0.005
0.069
0.122
0.024
-0.018
-0.153
-0.093
-0.036
0.037
-0.068
0.027
-0.042
0.020
-0.032
-0.061
0.077
0.013
0.065
-0.011
0.327
-0.640
-0.207
0.002
0.174
0.169
0.053
-0.053
-0.087
0.068
0.048
-0.567
-0.005
0.225
0.126
0.043
0.039
-0.067
-0.089
0.021
-0.067
0.037
0.071
-0.078
0.045
-0.047
0.007
-0.092
0.044
0.062
0.014
-0.045
-0.014
0.125
0.311
-0.567
-0.190
0.199
0.357
-0.415
-0.022
0.079
0.064
0.058
0.036
-0.038
-0.579
0.141
0.080
0.136
-0.056
0.022
-0.063
0.059
-0.264
-0.266
0.055
0.061
0.077
-0.001
0.054
0.049
0.349
-0.674
-0.036
0.158
0.207
0.032
-0.073
-0.171
-0.055
0.015
0.028
-0.006
-0.060
-0.123
0.038
0.032
0.017
0.032
-0.028
-0.081
-0.075
0.006
-0.142
-0.116
-0.032
-0.012
0.080
0.021
-0.075
-0.047
-0.048
0.007
-0.045
-0.072
0.028
0.062
0.086
0.026
-0.010
-0.126
0.022
0.005
-0.018
-0.069
0.043
-0.096
-0.051
-0.059
-0.133
-0.109
0.047
0.057
0.023
-0.006
-0.061
-0.053
-0.056
-0.040
0.026
0.071
-0.309
-0.040
0.057
0.162
0.052
-0.034
-0.069
0.113
-0.083
-0.224
-0.050
0.072
0.098
0.027
-0.039
0.015
-0.305
-0.067
0.063
0.154
0.170
-0.346
-0.011
0.021
-0.015
-0.007
-0.028
0.016
-0.120
-0.048
0.028
-0.001
-0.088
0.025
0.091
-0.186
-0.080
-0.006
0.021
0.041
0.027
-0.056
0.279
0.019
-0.771
-0.003
0.157
0.600
-0.479
-0.241
0.175
0.099
-0.017
-0.030
-0.084
-0.066
-0.071
-0.020
-0.016
-0.036
0.010
0.053
0.043
0.053
0.012
0.149
0.063
-0.572
0.109
0.146
0.108
-0.053
-0.071
-0.125
-0.044
-0.209
0.032
0.092
0.224
-0.353
-0.149
0.076
0.110
-0.063
0.048
0.010
-0.095
-0.022
-0.106
-0.067
-0.096
0.163
0.103
-0.007
-0.089
0.060
0.313
-0.709
-0.089
0.089
0.163
0.123
0.015
-0.111
-0.034
-0.149
0.037
-0.153
-0.003
0.074
0.016
0.056
-0.042
-0.097
-0.016
-0.073
-0.168
0.098
0.060
-0.007
0.058
-0.063
-0.131
0.091
0.092
0.002
-0.026
-0.144
0.022
-0.116
-0.220
-0.024
-0.013
-0.024
-0.029
-0.031
0.037
0.027
-0.080
-0.103
0.063
0.136
-0.380
-0.115
0.139
0.065
0.006
-0.045
0.002
0.074
-0.216
-0.066
0.040
-0.010
-0.065
0.074
0.083
-0.072
-0.355
0.175
0.020
0.109
0.087
0.413
-0.444
-0.608
0.019
0.210
0.163
0.052
0.009
-0.071
-0.126
-0.042
-0.048
0.037
-0.110
-0.058
0.131
0.007
-0.106
-0.128
-0.056
0.272
-0.213
-0.456
0.165
0.110
-0.004
0.093
0.082
-0.078
-0.109
-0.046
-0.022
0.090
0.032
0.010
0.014
-0.016
-0.084
0.139
-0.052
0.015
-0.036
-0.110
-0.066
-0.081
0.004
0.089
-0.579
-0.107
0.169
0.178
0.029
-0.013
-0.014
-0.133
-0.101
0.034
-0.013
0.046
0.453
-0.261
-0.668
-0.008
0.323
0.080
0.102
-0.059
0.033
-0.141
-0.134
-0.110
-0.037
-0.086
-0.009
0.147
-0.009
-0.037
-0.017
-0.102
0.123
0.046
-0.124
0.005
0.079
-0.007
-0.003
-0.087
-0.130
-0.179
0.070
0.524
-0.790
-0.203
0.201
0.076
0.077
-0.056
-0.030
-0.102
-0.136
0.100
0.051
-0.044
-0.064
-0.040
0.093
0.032
-0.148
-0.110
0.254
-0.174
0.011
0.429
-0.637
-0.060
0.050
0.217
0.085
-0.150
-0.176
0.053
-0.094
-0.099
-0.028
0.040
-0.040
0.010
0.146
0.070
-0.010
0.013
0.105
-0.075
-0.110
0.035
0.027
-0.024
-0.003
0.015
-0.050
-0.126
0.015
0.004
-0.077
-0.021
-0.072
0.340
-0.159
-0.454
0.152
0.117
-0.135
-0.073
0.113
0.104
-0.234
-0.006
0.073
0.140
-0.035
-0.087
-0.105
-0.062
0.018
0.037
-0.094
0.008
0.027
0.017
-0.019
-0.157
-0.106
0.003
0.049
-0.063
-0.032
-0.011
-0.010
0.011
0.109
-0.012
0.040
0.004
-0.127
-0.127
0.012
0.202
-0.230
-0.458
0.318
-0.104
-0.019
-0.019
0.055
0.029
-0.057
-0.044
-0.048
0.006
0.000
0.030
0.089
-0.005
-0.137
-0.052
-0.050
-0.029
0.094
-0.003
0.059
-0.019
-0.132
-0.119
-0.080
-0.065
-0.014
-0.008
0.293
0.367
-1.254
-0.115
0.361
0.338
0.038
0.007
-0.172
-0.205
-0.053
-0.045
0.112
0.474
-0.632
-0.164
0.260
0.036
0.001
0.151
-0.111
-0.278
0.013
0.381
0.128
-0.732
0.035
0.263
0.139
-0.017
-0.004
-0.123
-0.017
-0.166
-0.012
0.075
-0.087
0.010
0.017
0.093
-0.071
-0.080
-0.025
-0.065
-0.071
-0.050
-0.030
0.052
0.038
-0.049
0.095
-0.008
-0.025
-0.102
-0.078
-0.005
-0.094
0.089
0.010
0.073
0.048
-0.013
-0.016
-0.167
-0.089
0.001
0.004
-0.040
0.054
0.059
0.032
-0.055
-0.127
-0.116
0.076
0.226
0.009
-0.388
0.002
0.044
0.237
-0.054
-0.140
-0.011
-0.025
0.119
-0.219
-0.416
0.152
0.240
-0.015
-0.071
0.142
-0.015
-0.250
-0.115
0.121
0.127
0.054
0.049
-0.158
-0.116
-0.013
0.002
0.078
0.271
-0.225
-0.455
0.109
0.612
-0.459
-0.392
0.126
0.222
0.030
0.044
-0.190
-0.026
0.039
-0.031
-0.093
0.083
-0.015
0.111
-0.014
-0.183
-0.042
0.091
-0.084
-0.007
-0.074
0.073
-0.019
0.048
-0.167
-0.016
0.014
-0.011
0.008
-0.157
-0.031
0.049
0.324
-0.486
0.067
-0.005
-0.143
0.182
0.267
-0.502
0.023
0.109
-0.106
-0.068
-0.176
-0.095
0.040
0.047
0.015
-0.018
-0.038
0.322
-0.478
-0.361
0.243
0.213
0.175
0.262
-0.428
-0.358
0.087
0.097
0.182
-0.002
-0.050
-0.033
-0.078
0.019
-0.027
-0.063
-0.127
-0.004
-0.010
0.067
-0.082
0.066
-0.077
-0.038
0.018
-0.093
-0.036
-0.007
-0.068
-0.101
-0.051
-0.053
0.032
0.171
-0.215
-0.248
-0.004
-0.019
0.035
0.193
0.017
-0.200
-0.083
-0.042
0.022
0.025
0.002
0.162
0.107
-0.460
-0.063
0.285
0.104
-0.724
0.055
0.216
0.109
0.203
-0.005
-0.181
-0.146
-0.105
0.094
-0.179
-0.173
0.019
0.065
-0.078
-0.047
0.160
0.060
-0.260
0.014
0.011
-0.050
-0.079
-0.003
0.016
0.035
-0.021
0.138
-0.114
-0.098
0.094
0.033
-0.101
-0.007
-0.149
-0.040
0.087
-0.049
0.020
0.036
-0.157
-0.038
-0.044
-0.172
-0.036
-0.015
0.039
-0.020
-0.066
0.021
-0.002
-0.037
0.209
-0.036
-0.494
0.019
-0.018
0.133
0.103
-0.001
-0.122
-0.106
-0.022
0.147
-0.249
-0.095
0.111
0.067
0.065
-0.064
0.027
-0.155
0.049
-0.120
0.034
-0.056
-0.065
0.126
-0.037
-0.010
0.018
-0.215
-0.083
0.349
0.019
-0.572
0.027
0.114
-0.016
-0.057
0.042
0.008
0.078
-0.049
-0.170
-0.077
-0.033
-0.018
-0.061
-0.047
0.257
0.183
-0.549
0.260
0.227
-0.401
0.050
0.004
0.483
-0.708
-0.099
0.190
0.120
-0.122
-0.064
-0.114
-0.046
0.049
0.063
-0.026
-0.066
-0.095
-0.017
0.400
-0.593
-0.220
0.093
0.167
-0.054
-0.064
-0.068
0.032
-0.023
-0.025
-0.083
-0.092
0.039
0.092
-0.009
0.162
-0.390
0.027
0.075
0.025
-0.011
0.008
-0.013
-0.116
-0.073
-0.152
-0.064
0.141
0.241
-0.442
-0.113
0.175
0.193
-0.048
-0.122
-0.065
-0.089
-0.101
-0.060
0.123
0.115
-0.054
-0.013
-0.010
0.026
0.012
-0.068
-0.063
0.063
0.077
0.039
-0.151
-0.044
0.012
-0.057
0.022
-0.016
0.018
0.057
-0.027
-0.050
-0.049
-0.092
-0.101
-0.054
-0.032
-0.097
0.005
0.188
-0.055
-0.188
0.163
0.055
0.252
-0.321
-0.227
0.078
0.086
0.052
0.047
-0.054
-0.034
0.001
-0.008
-0.032
0.039
-0.062
0.048
0.341
0.023
-0.654
-0.008
0.264
0.042
0.015
0.372
-0.234
-0.581
0.130
0.272
0.057
-0.016
0.037
0.032
0.182
-0.325
-0.337
0.032
0.053
0.203
0.074
-0.009
-0.140
-0.171
-0.048
-0.046
0.280
-0.052
-0.496
0.171
0.031
0.158
0.051
-0.087
-0.073
0.015
-0.020
0.023
0.042
-0.079
0.009
-0.061
-0.028
-0.067
-0.060
-0.024
-0.038
-0.076
-0.083
-0.086
-0.052
0.038
0.128
-0.192
-0.063
-0.008
0.044
0.022
-0.100
-0.014
0.042
0.040
-0.021
-0.069
0.017
0.139
0.063
-0.297
-0.214
-0.064
0.139
0.206
0.118
-0.193
-0.389
0.006
0.185
0.197
-0.291
-0.008
-0.030
-0.126
-0.109
-0.165
0.038
0.196
0.041
-0.019
-0.010
-0.062
-0.116
-0.148
-0.120
0.052
0.058
0.051
0.112
-0.058
-0.062
-0.107
0.011
-0.105
-0.031
0.096
-0.024
-0.017
-0.039
0.208
-0.289
-0.143
0.121
0.573
-0.536
-0.079
-0.127
-0.014
0.099
0.098
0.030
-0.007
0.036
-0.175
-0.141
-0.030
-0.043
0.094
-0.026
-0.152
-0.015
0.028
-0.002
0.062
0.063
-0.120
-0.015
0.031
0.051
0.369
-0.348
-0.292
0.077
0.054
0.034
0.052
-0.004
-0.041
0.037
-0.051
-0.072
-0.062
-0.002
0.075
-0.058
0.092
0.404
-0.645
-0.170
0.183
0.169
0.081
-0.152
-0.188
-0.110
0.053
-0.046
0.091
0.040
-0.127
0.059
-0.050
-0.077
-0.043
0.136
0.004
-0.136
-0.019
-0.003
0.023
0.121
0.030
-0.068
0.042
0.122
-0.725
0.050
0.128
0.140
0.063
0.005
-0.035
-0.022
-0.059
-0.032
-0.082
-0.049
0.071
-0.099
-0.001
0.031
0.049
-0.168
-0.146
0.131
0.098
0.048
-0.052
-0.100
-0.026
-0.041
-0.057
-0.005
0.040
0.005
-0.211
0.025
-0.030
-0.025
-0.041
0.048
0.021
-0.029
0.270
-0.671
-0.042
0.253
0.169
0.052
0.418
-0.598
-0.404
-0.078
0.053
0.192
0.108
0.162
0.146
-0.105
-0.445
0.052
0.125
0.046
-0.043
-0.028
0.018
-0.072
0.161
-0.138
-0.053
-0.058
0.036
0.034
0.071
0.355
-0.563
-0.263
0.140
0.114
0.013
-0.067
0.077
0.017
-0.169
-0.060
-0.001
0.105
-0.017
-0.040
0.071
-0.008
-0.115
0.111
-0.167
-0.005
-0.046
-0.002
-0.016
-0.049
0.046
-0.087
-0.041
-0.046
0.050
0.011
0.221
-0.157
-0.193
0.111
-0.132
-0.087
0.117
0.212
-0.015
-0.106
-0.145
-0.115
0.042
0.112
0.320
-0.403
-0.075
0.119
0.093
-0.017
-0.151
0.186
-0.116
-0.422
0.179
0.012
0.049
0.022
0.020
-0.074
-0.069
-0.057
-0.030
0.010
0.018
0.041
-0.052
0.028
0.035
-0.160
0.003
-0.019
-0.050
0.036
0.033
-0.092
-0.024
0.000
-0.002
-0.056
-0.044
-0.106
-0.023
0.017
0.147
-0.040
-0.049
-0.020
-0.150
-0.123
0.534
0.125
-1.048
0.120
0.301
0.088
-0.045
-0.131
-0.169
0.043
-0.020
0.036
0.014
0.025
-0.071
0.031
0.101
-0.097
-0.068
-0.026
-0.025
0.123
-0.069
0.221
-0.110
-0.161
0.069
0.039
-0.077
-0.163
-0.118
-0.065
-0.041
-0.008
0.089
-0.028
-0.156
0.071
0.061
0.071
-0.003
-0.078
-0.100
-0.037
-0.010
-0.048
0.206
-0.341
0.001
0.293
-0.187
-0.137
0.017
-0.049
-0.012
-0.040
0.005
0.021
-0.011
0.002
0.008
-0.077
-0.146
-0.052
-0.026
-0.039
0.174
-0.195
-0.183
0.398
-0.472
-0.002
0.106
0.141
0.065
-0.100
-0.083
-0.105
-0.067
0.016
0.063
0.012
-0.055
0.015
0.013
-0.013
-0.000
-0.096
0.050
0.091
0.022
-0.000
-0.114
-0.202
0.016
-0.039
0.026
0.093
0.016
-0.134
-0.131
-0.089
0.015
-0.045
-0.013
-0.025
0.068
0.223
-0.012
-0.628
0.014
0.200
0.179
0.045
0.106
-0.546
-0.175
0.063
0.145
0.150
0.035
-0.110
-0.034
-0.009
-0.037
-0.012
-0.106
0.095
0.054
-0.116
-0.031
0.083
0.018
0.016
-0.025
-0.054
-0.035
-0.015
0.047
0.001
-0.086
-0.030
0.029
0.098
0.029
-0.203
0.038
-0.127
-0.097
-0.068
0.126
0.154
-0.054
-0.195
-0.086
0.044
0.038
0.080
-0.004
-0.315
0.284
-0.173
-0.278
0.130
0.150
0.107
0.009
-0.070
-0.060
-0.085
0.030
-0.028
-0.065
0.014
-0.042
-0.027
0.075
0.133
-0.185
0.040
-0.247
-0.005
0.023
-0.003
0.025
-0.040
-0.043
-0.010
-0.089
-0.078
0.104
0.074
0.066
-0.025
-0.064
-0.045
-0.091
-0.071
-0.044
-0.039
-0.037
0.012
-0.049
0.030
-0.002
-0.018
-0.001
-0.132
-0.090
0.033
0.052
0.089
0.011
-0.185
-0.135
0.033
0.115
-0.106
0.032
0.035
0.080
-0.066
0.078
-0.006
-0.034
-0.216
0.202
-0.025
-0.500
0.551
-0.152
-0.440
0.018
0.169
0.067
0.143
-0.140
-0.115
0.054
-0.045
-0.027
-0.068
-0.099
-0.019
-0.025
0.092
-0.012
0.022
-0.029
-0.116
-0.116
-0.030
0.002
0.136
0.469
-0.800
-0.308
0.327
0.258
-0.037
0.030
0.046
-0.056
-0.219
-0.029
0.113
0.153
0.012
-0.123
-0.078
-0.108
-0.037
-0.011
-0.036
-0.044
0.107
-0.047
-0.047
0.005
-0.097
0.045
-0.069
0.019
-0.053
0.039
0.002
-0.017
-0.132
-0.060
0.007
0.065
-0.007
-0.064
-0.027
-0.105
-0.069
-0.121
0.067
0.205
0.035
-0.391
-0.123
0.076
0.077
0.016
0.061
-0.092
-0.102
-0.027
-0.040
-0.155
-0.023
-0.032
0.155
0.134
-0.054
-0.091
0.015
-0.084
-0.032
0.096
0.205
-0.578
-0.103
0.200
0.425
-0.028
-0.542
-0.195
0.246
-0.031
-0.044
-0.077
-0.101
0.121
0.049
-0.027
-0.127
0.021
0.059
0.049
0.046
-0.226
-0.031
-0.007
0.009
0.021
-0.099
0.493
-0.707
-0.130
0.133
0.100
0.049
-0.065
-0.082
-0.057
0.050
-0.036
-0.020
-0.025
0.110
0.022
-0.025
-0.075
-0.074
-0.061
0.033
0.005
-0.031
-0.045
0.043
-0.099
-0.093
0.026
-0.300
-0.040
0.014
0.058
0.119
-0.074
-0.058
0.010
-0.076
-0.025
0.036
-0.016
-0.157
-0.151
0.230
0.357
-0.438
0.038
0.413
-0.295
-0.392
0.245
-0.146
-0.210
0.107
0.138
-0.034
-0.135
-0.169
-0.084
-0.004
-0.015
0.013
-0.052
0.022
0.368
-0.063
-0.555
0.169
0.004
0.029
0.099
0.003
0.065
-0.044
-0.116
-0.081
-0.096
-0.087
0.050
0.045
-0.034
-0.000
-0.069
0.013
-0.008
-0.077
-0.080
-0.101
-0.090
-0.074
-0.014
-0.034
0.063
-0.074
0.197
-0.060
-0.311
-0.030
0.213
0.099
-0.070
-0.062
-0.115
0.045
0.051
-0.084
0.070
0.004
-0.080
0.074
-0.058
-0.043
-0.012
0.070
-0.069
0.135
-0.111
0.249
-0.378
-0.293
0.267
0.096
0.071
-0.119
-0.048
0.146
0.354
-0.835
-0.114
0.164
0.014
0.101
0.017
0.113
0.097
-0.235
-0.005
-0.304
-0.099
-0.003
0.024
0.116
-0.014
-0.009
0.106
-0.003
-0.040
-0.137
-0.009
0.002
0.031
0.011
0.038
-0.092
-0.072
-0.014
-0.006
0.153
-0.133
-0.040
-0.105
0.053
-0.124
-0.082
-0.125
-0.033
0.001
0.117
0.072
-0.158
-0.009
-0.017
-0.070
-0.040
0.084
-0.082
0.038
-0.064
-0.007
0.005
-0.045
-0.049
-0.084
-0.022
0.097
-0.009
-0.091
-0.084
-0.049
-0.042
-0.055
-0.003
0.031
0.045
0.026
-0.038
-0.048
0.002
-0.158
-0.248
0.193
0.163
-0.023
-0.180
-0.066
-0.112
0.111
-0.118
0.014
-0.076
-0.031
0.035
-0.067
-0.023
-0.016
0.229
-0.094
-0.496
0.019
0.150
0.059
-0.084
-0.089
-0.013
0.480
-0.373
-0.248
0.088
0.620
-0.374
-0.540
-0.058
0.115
0.197
0.089
-0.065
-0.064
-0.059
-0.048
0.024
0.106
-0.096
0.129
-0.209
0.095
0.145
-0.283
-0.241
0.153
0.121
-0.009
0.058
0.014
-0.064
0.021
-0.245
-0.208
0.059
0.096
0.074
0.001
-0.028
0.008
-0.099
-0.038
-0.070
0.028
-0.035
-0.017
0.066
-0.021
0.070
-0.026
0.064
-0.087
-0.099
0.035
-0.063
0.004
0.098
-0.022
0.005
0.194
-0.535
-0.260
0.142
0.130
0.160
-0.017
-0.000
-0.028
-0.149
-0.056
0.038
-0.016
0.070
-0.029
-0.021
0.002
0.143
-0.060
-0.305
-0.069
0.075
0.190
-0.060
-0.030
0.062
-0.058
-0.159
0.041
0.006
0.060
0.088
-0.334
-0.042
0.105
0.029
-0.145
0.057
0.002
-0.061
0.010
-0.026
-0.027
0.076
-0.031
-0.076
-0.045
-0.035
-0.036
0.006
-0.035
-0.008
-0.089
-0.040
0.077
0.048
0.006
-0.083
0.484
-0.552
-0.346
0.062
0.228
0.152
-0.054
-0.403
0.039
0.147
0.048
-0.068
-0.104
0.047
-0.051
-0.087
-0.008
0.108
0.145
-0.041
0.024
0.147
-0.271
-0.177
-0.011
-0.116
0.092
0.256
-0.289
0.131
-0.548
0.069
0.223
0.129
-0.096
-0.007
-0.049
-0.152
-0.161
0.025
0.078
0.068
0.235
-0.353
-0.035
0.137
0.059
-0.154
-0.016
-0.062
0.091
-0.272
-0.100
-0.066
0.137
0.023
0.142
-0.133
0.086
0.088
-0.531
0.070
0.068
0.146
0.080
0.021
-0.177
0.052
0.009
-0.062
-0.005
-0.074
-0.076
-0.003
0.026
-0.026
0.028
0.032
-0.141
-0.021
0.256
-0.343
-0.337
0.103
0.125
0.111
-0.021
-0.086
0.014
-0.039
-0.063
-0.039
-0.017
0.032
0.082
-0.043
-0.018
0.134
-0.055
-0.302
-0.052
0.019
0.028
-0.068
0.007
0.012
0.008
-0.091
-0.015
-0.048
0.086
-0.028
-0.230
0.210
0.259
-0.506
0.060
0.094
0.117
-0.019
-0.238
-0.171
-0.043
0.175
-0.008
0.153
-0.165
-0.065
-0.184
-0.037
-0.093
0.161
0.001
0.071
0.004
0.062
-0.044
-0.051
0.098
0.092
-0.020
-0.036
-0.013
-0.026
-0.079
-0.148
-0.019
0.078
-0.013
0.010
-0.201
-0.091
0.065
-0.030
-0.180
-0.002
-0.056
0.006
-0.092
0.320
-0.414
-0.232
0.149
0.076
0.021
-0.072
-0.069
-0.081
0.057
0.194
-0.195
0.068
-0.059
-0.031
0.027
-0.030
0.011
0.262
-0.534
-0.103
0.244
-0.427
-0.039
0.244
0.057
-0.006
0.003
-0.141
-0.082
0.293
-0.301
-0.260
0.093
0.142
0.040
-0.063
-0.055
-0.017
-0.033
-0.015
-0.003
0.071
-0.170
-0.203
0.080
0.034
0.011
0.011
0.018
-0.037
-0.072
-0.047
0.001
-0.106
-0.038
0.031
-0.015
-0.114
-0.076
-0.122
0.539
-0.229
-0.921
0.077
0.438
0.183
-0.122
-0.257
-0.068
-0.021
-0.004
0.080
0.062
0.187
-0.307
0.183
-0.328
-0.078
0.143
0.163
-0.019
0.073
-0.137
0.018
-0.027
-0.155
-0.135
0.037
0.042
0.049
0.068
-0.052
-0.015
-0.046
-0.016
-0.085
-0.085
-0.010
-0.007
0.004
0.030
-0.018
-0.059
0.017
-0.020
-0.083
-0.027
-0.054
-0.041
0.046
0.053
0.033
0.045
-0.234
-0.012
0.054
0.123
-0.037
-0.041
-0.003
-0.052
-0.104
-0.022
-0.053
0.098
0.030
-0.044
0.025
-0.061
-0.037
-0.008
-0.076
-0.013
0.047
-0.081
0.229
-0.410
-0.076
0.167
0.166
-0.004
0.157
-0.327
-0.191
-0.052
0.015
0.169
-0.202
-0.090
0.068
0.017
-0.047
0.040
0.042
-0.245
-0.159
0.145
0.081
-0.136
0.018
0.009
0.130
0.010
0.019
-0.195
-0.070
0.789
-0.656
-0.773
0.262
0.666
-0.092
-0.020
-0.049
-0.066
-0.268
-0.126
-0.247
0.024
0.120
0.026
0.303
0.103
-0.417
-0.088
0.043
-0.002
-0.026
0.075
-0.037
-0.083
0.100
0.156
0.128
-0.740
-0.021
0.262
0.114
0.063
-0.160
-0.099
-0.091
0.033
-0.064
-0.003
0.002
-0.032
0.019
0.046
-0.110
-0.095
-0.072
0.277
0.216
-0.848
0.041
0.257
0.031
-0.083
-0.135
0.032
0.021
0.005
-0.045
-0.019
-0.050
0.066
0.039
-0.000
0.018
0.018
0.059
-0.231
0.012
-0.028
0.021
-0.048
-0.038
-0.026
0.077
0.039
0.101
-0.142
-0.059
0.035
-0.169
-0.010
0.028
0.044
-0.064
-0.038
0.009
0.005
0.007
-0.174
-0.031
-0.085
-0.047
-0.057
-0.029
0.160
0.110
0.014
-0.075
0.036
0.025
0.015
-0.027
0.037
-0.157
-0.201
0.016
0.355
0.006
-0.701
-0.036
0.216
0.134
0.079
-0.099
-0.125
-0.119
-0.020
0.008
-0.034
0.036
0.034
0.298
-0.496
-0.287
0.164
0.058
0.106
0.111
-0.064
-0.060
-0.079
-0.002
-0.084
-0.003
0.281
-0.390
-0.014
-0.004
0.031
0.050
0.076
0.015
-0.088
-0.086
-0.162
-0.175
-0.048
0.108
-0.062
-0.028
0.036
0.144
0.020
0.155
0.173
-0.634
-0.174
0.413
0.597
-1.029
-0.273
0.257
0.230
0.153
-0.071
0.051
-0.364
-0.085
-0.010
0.013
0.005
0.041
-0.045
0.074
-0.031
-0.113
0.002
-0.011
-0.173
0.004
-0.039
0.060
0.181
0.100
-0.236
-0.260
-0.068
0.057
0.114
0.039
-0.043
0.044
-0.052
-0.054
0.039
-0.032
-0.194
-0.142
0.095
0.266
-0.068
-0.352
0.053
-0.024
0.075
-0.052
-0.062
-0.104
-0.057
0.087
0.071
-0.063
-0.077
0.251
-0.369
-0.517
0.186
0.280
0.057
0.036
-0.010
-0.053
-0.052
-0.037
-0.120
-0.048
0.012
0.026
0.014
0.043
-0.026
0.049
-0.085
-0.169
-0.061
0.036
-0.057
0.031
-0.000
-0.056
-0.074
0.001
-0.107
0.029
-0.059
0.024
-0.188
-0.014
0.078
0.032
-0.052
-0.038
0.064
-0.025
-0.101
0.031
-0.110
-0.181
-0.084
-0.059
-0.040
0.219
0.121
-0.061
-0.280
-0.075
-0.053
0.016
0.054
-0.024
-0.044
-0.058
0.082
0.092
0.060
-0.119
0.239
-0.167
-0.234
0.125
0.054
0.072
0.115
-0.489
-0.131
-0.036
0.062
0.067
-0.049
0.036
-0.049
0.017
0.022
-0.033
-0.140
-0.166
-0.089
-0.016
0.046
0.050
0.150
0.359
-0.048
-0.596
0.049
0.256
-0.079
0.065
0.251
-0.557
-0.310
0.243
0.301
-0.070
-0.065
0.024
-0.140
0.230
-0.604
-0.106
0.161
0.210
0.119
-0.375
-0.071
0.438
-0.357
-0.434
0.092
0.123
0.022
0.065
0.023
0.019
-0.025
-0.088
-0.017
-0.023
-0.025
-0.250
-0.014
0.133
0.073
0.016
-0.006
-0.076
-0.078
-0.053
0.008
0.069
0.056
0.005
-0.159
-0.120
-0.095
-0.111
0.058
0.106
-0.030
0.028
-0.049
-0.130
-0.028
-0.014
0.006
-0.139
-0.014
0.219
-0.062
-0.197
0.026
-0.016
0.019
0.345
0.085
-0.537
-0.029
0.009
0.132
0.036
-0.231
-0.172
-0.052
0.008
0.043
-0.113
-0.008
0.187
0.044
-0.081
0.057
-0.062
0.035
-0.173
-0.020
-0.026
-0.069
-0.001
0.040
0.112
0.033
-0.025
-0.053
-0.075
-0.047
0.022
-0.022
0.021
-0.010
0.088
0.096
-0.161
-0.084
0.231
-0.296
-0.047
0.144
-0.018
-0.054
-0.089
-0.049
0.123
-0.090
-0.251
0.117
0.060
-0.041
-0.005
-0.077
-0.035
-0.014
-0.026
-0.022
0.093
0.002
-0.012
0.010
-0.022
0.220
-0.288
-0.348
0.161
0.165
0.010
0.030
0.237
-0.086
-0.506
0.177
-0.129
0.087
0.066
-0.024
0.032
-0.093
-0.022
-0.063
-0.139
-0.047
0.184
0.216
-0.557
-0.012
0.218
0.165
-0.054
0.132
0.151
-0.840
-0.162
0.214
0.183
0.083
-0.091
-0.074
0.127
-0.226
-0.199
0.062
0.054
0.027
-0.175
0.202
-0.100
-0.107
0.029
0.233
-0.289
-0.003
-0.054
0.041
0.088
0.136
-0.028
-0.082
-0.124
-0.028
0.041
-0.018
-0.059
0.129
-0.099
-0.123
-0.034
0.078
-0.017
-0.199
0.012
0.018
0.010
-0.119
-0.039
0.001
0.043
0.111
0.073
-0.059
-0.083
-0.032
-0.019
-0.013
-0.043
-0.062
0.007
-0.064
0.046
-0.108
0.019
0.028
-0.041
-0.010
0.058
-0.155
-0.052
-0.010
-0.002
-0.001
0.012
0.070
-0.029
-0.068
-0.016
-0.061
-0.008
-0.016
0.008
0.018
-0.040
-0.077
-0.018
0.086
0.192
-0.580
-0.134
0.187
0.129
0.037
0.023
0.323
-0.060
-0.893
0.161
0.142
0.260
0.020
-0.041
-0.065
-0.066
-0.089
0.171
-0.369
0.010
0.080
0.124
-0.021
-0.031
0.028
-0.098
-0.068
-0.009
-0.760
0.067
0.252
0.108
0.024
-0.043
-0.060
-0.071
-0.060
0.050
0.020
0.035
0.048
-0.056
-0.013
-0.112
-0.086
0.140
-0.005
0.018
0.009
-0.049
-0.179
-0.154
-0.018
0.145
0.048
0.228
-0.445
-0.313
0.107
0.217
0.004
0.057
-0.074
-0.024
-0.017
0.002
0.263
-0.550
-0.087
0.066
0.034
0.200
0.261
-0.540
-0.267
0.130
0.213
0.094
0.072
-0.153
-0.028
-0.090
-0.065
0.010
0.052
0.039
-0.030
-0.035
0.003
0.015
-0.011
-0.236
-0.059
0.051
-0.069
-0.007
0.069
0.042
0.006
-0.025
-0.151
-0.067
-0.051
0.082
0.166
-0.196
-0.117
0.027
0.068
0.050
-0.071
-0.042
0.030
-0.069
-0.057
-0.086
0.440
-0.584
-0.218
0.163
0.214
0.082
-0.066
0.055
-0.219
-0.164
0.071
-0.084
0.057
0.050
-0.057
-0.096
0.050
-0.057
-0.092
-0.001
-0.013
0.055
0.069
0.006
0.049
-0.095
-0.152
-0.243
-0.147
0.076
0.306
-0.152
0.001
0.055
-0.086
-0.086
-0.203
-0.212
-0.065
0.070
0.191
0.166
0.044
-0.083
-0.054
-0.113
-0.011
0.161
0.001
-0.039
-0.050
-0.053
0.014
-0.050
0.017
-0.076
-0.018
-0.108
0.039
0.021
0.217
-0.664
-0.311
0.559
-0.229
-0.087
0.079
0.007
-0.071
-0.059
-0.005
0.039
0.207
-0.144
0.107
-0.427
-0.030
0.225
0.040
-0.041
-0.052
-0.034
0.068
-0.050
-0.171
-0.068
-0.023
0.014
0.079
0.036
0.002
-0.077
-0.069
-0.045
-0.063
-0.092
0.046
-0.002
0.043
0.240
-0.567
-0.311
0.075
0.294
-0.038
-0.020
-0.077
-0.141
0.185
0.194
-0.390
-0.250
-0.064
-0.048
0.067
0.591
-0.396
-0.233
-0.241
0.119
0.149
0.152
-0.361
-0.072
0.066
0.034
0.058
0.064
-0.008
-0.056
-0.099
0.033
-0.047
0.081
0.041
0.008
0.018
-0.045
-0.206
-0.189
-0.035
0.053
-0.139
0.012
0.075
-0.119
-0.007
0.028
0.174
0.059
-0.073
0.033
-0.274
-0.179
0.038
0.022
0.061
0.029
-0.039
0.030
-0.095
-0.007
-0.046
-0.117
-0.046
0.016
0.036
0.093
0.057
0.228
-0.140
-0.390
0.126
0.134
0.097
0.043
-0.083
-0.027
-0.022
-0.060
-0.007
0.275
-0.549
-0.105
0.232
-0.029
0.035
0.004
-0.004
-0.033
-0.014
-0.109
0.068
0.054
0.010
0.021
-0.107
0.029
0.014
0.071
-0.091
0.076
-0.088
-0.047
-0.008
-0.037
-0.010
-0.094
-0.043
0.061
0.087
-0.197
-0.204
0.008
-0.016
-0.051
0.148
0.191
-0.446
-0.089
0.076
0.159
-0.025
-0.097
0.127
0.344
-0.295
-0.544
-0.092
0.092
0.159
0.227
0.171
0.214
-0.582
-0.054
0.147
0.027
-0.057
0.032
0.036
0.052
-0.025
-0.051
-0.118
0.159
0.107
-0.168
0.133
0.032
-0.009
-0.121
-0.258
-0.149
0.004
-0.240
0.057
0.119
0.013
0.170
-0.198
-0.446
0.042
0.114
0.031
-0.022
0.002
-0.015
0.111
-0.012
-0.072
0.072
0.035
0.028
0.034
0.140
0.081
-0.622
0.092
0.106
0.108
0.013
0.009
0.030
-0.092
-0.036
-0.006
-0.120
0.020
-0.023
-0.061
-0.029
-0.016
-0.023
-0.033
0.014
0.023
-0.039
-0.071
-0.069
0.011
-0.055
0.017
0.047
-0.043
0.112
-0.044
-0.020
0.032
-0.113
-0.121
0.058
-0.142
0.157
0.291
-0.150
-0.161
-0.498
-0.272
0.307
0.187
0.058
0.058
-0.152
0.013
0.032
0.014
0.077
-0.028
-0.091
-0.137
-0.064
0.123
0.263
-0.327
-0.105
0.197
0.073
-0.058
0.158
-0.222
-0.698
0.014
0.268
0.102
0.067
0.011
-0.017
-0.114
-0.055
-0.068
0.023
0.083
-0.026
-0.044
-0.044
0.018
0.072
-0.083
-0.068
-0.056
-0.007
0.079
-0.023
-0.140
-0.063
0.040
-0.024
0.076
0.149
-0.398
-0.085
0.167
0.118
-0.081
0.005
-0.128
-0.046
-0.084
-0.043
0.069
0.076
0.061
0.073
-0.371
-0.047
-0.054
-0.028
0.045
-0.078
0.083
-0.022
-0.033
0.030
-0.018
-0.143
-0.018
0.047
0.050
-0.010
-0.067
-0.076
0.239
-0.569
-0.151
0.108
0.209
0.187
-0.048
-0.134
-0.189
-0.166
-0.002
-0.041
0.005
0.082
0.082
0.053
0.158
-0.582
-0.313
0.130
0.215
0.246
-0.169
-0.115
-0.024
-0.028
0.030
0.047
-0.009
0.366
-0.470
-0.203
0.165
0.032
0.136
-0.102
-0.031
-0.147
-0.105
0.005
0.041
-0.028
-0.048
0.045
-0.055
-0.099
-0.069
0.068
-0.032
0.100
0.327
0.135
-0.895
0.047
0.279
0.144
-0.018
-0.117
-0.129
0.150
-0.013
-0.264
-0.064
-0.024
0.009
0.253
0.190
-0.509
-0.425
0.108
0.189
0.106
-0.105
-0.087
0.033
0.055
-0.058
0.016
0.028
0.004
-0.105
-0.110
0.044
-0.055
0.057
0.083
0.067
-0.039
0.078
-0.030
-0.115
-0.088
-0.047
0.010
-0.026
0.031
-0.054
0.015
0.146
-0.136
-0.162
-0.161
-0.009
0.052
-0.118
0.006
0.069
0.197
-0.451
0.033
0.089
0.107
-0.035
0.061
-0.155
-0.024
-0.106
0.117
0.142
-0.477
-0.113
0.172
-0.037
-0.177
0.039
0.157
-0.151
-0.128
-0.031
0.055
0.084
-0.057
-0.008
0.005
0.009
-0.027
0.116
-0.008
-0.130
-0.290
-0.019
0.153
0.144
0.019
-0.011
-0.137
-0.231
-0.184
0.041
0.050
0.104
0.027
-0.074
0.500
-0.417
-0.518
0.182
0.197
0.118
-0.002
0.011
-0.019
-0.177
-0.034
0.083
0.024
-0.119
-0.087
-0.050
0.011
0.042
0.232
0.018
-0.542
-0.013
0.057
0.075
0.300
0.094
-0.224
-0.545
0.043
0.272
0.271
-0.010
-0.245
-0.073
0.001
0.240
-0.261
-0.173
-0.013
0.065
0.087
0.034
-0.043
0.006
-0.009
-0.006
0.002
-0.014
-0.103
0.053
0.321
-0.640
-0.131
0.210
0.132
0.059
0.073
-0.089
-0.035
-0.113
-0.079
-0.095
0.018
-0.024
0.136
0.124
-0.179
0.005
0.028
-0.040
0.121
-0.122
0.004
-0.027
0.072
0.092
-0.180
-0.039
-0.020
0.008
0.007
0.049
0.050
0.025
-0.087
-0.104
0.092
-0.130
-0.092
0.025
0.270
-0.223
-0.081
0.038
0.115
-0.090
0.062
-0.140
-0.124
-0.174
0.043
0.010
0.128
0.259
-0.501
-0.036
0.005
0.031
-0.050
0.051
-0.019
0.020
0.032
0.085
-0.088
0.033
0.165
-0.316
-0.109
0.115
0.432
-0.577
0.057
0.106
0.116
-0.011
-0.013
-0.038
-0.150
-0.045
-0.075
-0.149
-0.046
0.085
0.017
0.042
-0.032
-0.014
-0.040
-0.027
-0.014
0.019
-0.102
-0.157
0.002
-0.012
-0.013
0.093
-0.078
-0.084
0.077
0.013
-0.009
-0.223
0.045
0.228
-0.347
-0.136
0.080
0.033
0.059
0.074
-0.026
0.057
-0.137
0.124
-0.254
-0.149
0.060
0.128
-0.030
-0.089
0.176
0.214
-0.614
-0.184
0.175
0.138
0.074
0.022
0.152
-0.280
-0.444
-0.053
0.345
0.170
-0.480
0.161
0.092
0.410
-0.172
-0.523
0.027
0.201
0.188
-0.065
-0.128
-0.036
-0.112
-0.113
0.003
0.072
0.144
0.035
-0.031
-0.078
-0.099
-0.039
-0.063
0.030
-0.026
-0.046
0.036
0.095
0.074
-0.076
-0.015
-0.010
-0.033
-0.111
-0.098
-0.034
0.067
0.070
-0.126
-0.020
-0.008
0.014
-0.042
0.048
-0.068
0.012
-0.099
-0.039
-0.047
0.179
0.268
-0.648
-0.102
0.157
0.077
0.077
-0.076
-0.065
-0.120
-0.066
0.012
-0.047
-0.092
-0.017
0.080
0.029
0.017
-0.087
0.026
-0.028
-0.069
-0.009
0.105
-0.124
-0.286
0.027
-0.013
0.067
0.010
0.051
-0.340
0.073
0.192
-0.012
-0.156
-0.200
0.010
0.147
0.034
-0.018
0.076
-0.167
-0.204
-0.101
0.050
0.040
-0.029
0.014
-0.001
0.154
0.053
-0.150
-0.157
-0.030
-0.102
-0.080
-0.039
0.024
0.019
0.012
0.042
0.116
-0.316
-0.140
0.046
0.093
-0.005
0.104
0.119
0.048
-0.332
-0.280
0.013
0.051
0.004
0.063
0.036
0.092
-0.015
-0.050
0.125
-0.222
-0.495
0.196
0.152
0.240
0.130
-0.026
-0.127
-0.082
0.001
0.017
-0.068
0.163
0.268
-0.649
-0.023
0.289
0.061
0.251
0.303
-0.634
-0.218
-0.047
0.058
0.030
0.041
0.438
-0.163
-0.765
-0.067
0.212
0.239
-0.071
-0.026
-0.072
-0.072
-0.067
-0.108
-0.011
0.044
0.087
0.139
-0.141
-0.013
-0.083
0.070
-0.110
-0.150
0.049
0.158
0.073
-0.011
-0.119
-0.218
-0.117
-0.004
0.020
-0.040
0.100
0.147
-0.197
-0.128
0.056
-0.035
-0.089
0.014
-0.003
0.034
0.038
0.001
-0.038
-0.033
0.012
-0.195
0.031
-0.120
0.012
-0.026
0.119
0.152
-0.262
-0.400
-0.147
0.126
0.090
-0.067
0.025
0.047
-0.136
-0.058
-0.004
0.093
-0.015
-0.034
0.072
-0.022
-0.040
-0.118
-0.076
0.058
-0.019
-0.063
-0.041
0.051
-0.107
0.010
0.075
0.211
-0.376
-0.242
0.135
0.051
-0.028
-0.031
0.063
0.053
0.085
-0.113
-0.072
-0.096
-0.199
-0.101
-0.054
0.058
0.031
0.068
-0.032
0.001
-0.105
0.012
-0.157
-0.107
0.111
0.013
0.075
-0.069
-0.081
0.330
-0.280
-0.237
0.355
0.438
-0.745
-0.261
0.184
0.127
0.039
0.017
-0.030
-0.093
0.037
0.019
-0.110
-0.108
-1.506
0.388
0.767
1.483
0.788
-0.483
-1.069
-0.954
-0.461
-0.108
0.285
0.690
0.269
-0.148
0.250
0.204
0.002
-0.262
-0.079
-0.188
-0.978
-0.084
0.150
0.131
0.093
0.105
-0.044
-0.057
-0.006
-0.020
0.034
-0.006
0.120
0.080
0.097
0.270
-0.530
-0.115
-0.002
0.230
-0.056
-0.078
-0.077
-0.040
-0.011
-0.008
0.042
-0.166
0.064
0.031
0.059
0.018
-0.060
-0.172
-0.095
0.090
0.006
0.061
0.021
-0.041
-0.032
0.049
-0.036
-0.218
0.052
-0.030
0.070
0.019
-0.033
-0.055
0.042
-0.024
-0.002
-0.025
0.018
-0.053
-0.049
0.027
-0.125
-0.073
-0.055
-0.063
-0.005
0.105
-0.084
0.120
0.036
-0.064
-0.300
-0.033
0.008
-0.050
0.080
-0.010
0.033
-0.022
-0.017
0.001
0.037
-0.013
-0.081
0.019
0.000
0.109
-0.042
-0.029
0.100
-0.091
-0.023
-0.110
0.158
0.219
-0.474
0.592
-0.527
-0.329
0.156
0.156
-0.034
-0.068
-0.031
-0.172
-0.124
0.039
0.022
0.080
0.015
-0.066
0.036
0.003
-0.059
0.033
0.061
-0.041
-0.086
0.235
-0.039
-0.284
-0.342
0.192
0.125
0.004
-0.027
0.043
0.045
-0.015
-0.045
-0.015
-0.135
-0.040
0.001
-0.029
-0.019
0.050
-0.011
-0.068
-0.003
0.021
0.047
-0.041
-0.069
0.024
-0.066
-0.111
-0.077
-0.068
-0.057
-0.006
0.033
-0.059
0.043
0.269
-0.625
-0.256
0.261
0.198
0.203
-0.115
0.018
0.232
-0.624
-0.216
0.144
0.215
0.031
0.074
-0.013
-0.013
-0.073
-0.088
0.030
-0.047
0.000
-0.003
0.179
-0.628
-0.324
0.307
0.151
0.200
-0.122
-0.083
-0.046
-0.095
-0.090
-0.208
-0.018
-0.029
-0.060
0.075
0.104
0.174
-0.002
-0.046
0.032
0.008
-0.103
-0.052
-0.050
-0.050
-0.055
0.318
0.388
-0.946
0.002
0.098
0.070
-0.048
-0.056
-0.067
-0.055
0.059
0.245
-0.190
-0.453
0.069
0.124
-0.054
0.061
0.010
-0.007
-0.069
-0.145
0.078
-0.025
0.046
-0.001
0.238
-0.060
-0.152
-0.091
-0.039
0.043
-0.112
-0.045
-0.041
0.025
-0.148
-0.088
-0.061
0.007
-0.019
0.092
0.108
-0.215
-0.102
0.102
-0.004
-0.035
-0.090
0.491
-0.283
-0.551
0.072
0.212
0.132
0.049
-0.046
-0.146
-0.079
0.054
-0.021
-0.081
-0.074
0.069
0.193
-0.345
-0.061
0.126
0.015
-0.006
-0.015
-0.088
-0.024
-0.119
-0.089
-0.008
0.056
0.036
-0.077
-0.125
0.006
-0.003
-0.036
-0.035
0.019
-0.281
-0.104
0.108
0.085
-0.031
0.037
-0.035
0.031
-0.144
-0.124
-0.071
0.063
0.362
-0.684
-0.057
0.229
0.120
0.014
0.086
-0.156
-0.113
0.077
-0.048
0.000
0.112
-0.050
-0.036
0.019
0.194
0.107
-0.630
-0.085
0.020
0.587
-0.722
-0.032
0.170
0.159
0.024
-0.115
-0.104
-0.094
-0.063
-0.040
0.167
-0.028
0.164
-0.121
-0.137
0.092
0.159
0.010
0.092
-0.242
-0.409
-0.044
0.114
0.116
0.035
-0.127
0.175
-0.020
-0.606
0.026
0.302
0.066
-0.031
0.031
0.011
-0.059
-0.121
-0.013
-0.047
-0.090
-0.002
0.028
0.040
0.034
-0.119
0.008
0.021
0.008
0.023
0.011
0.078
-0.006
-0.131
-0.166
0.015
-0.060
0.068
-0.101
-0.049
0.055
0.021
0.202
-0.018
-0.527
0.111
0.134
-0.195
-0.071
0.093
0.042
-0.020
-0.027
0.140
0.006
-0.035
-0.049
-0.089
-0.068
-0.089
-0.060
0.339
-0.359
-0.130
0.187
0.053
-0.032
-0.137
0.033
0.012
-0.018
0.116
-0.398
-0.328
0.145
0.114
0.166
0.021
-0.159
-0.039
-0.035
-0.066
-0.043
0.016
-0.031
-0.024
0.008
0.008
-0.059
-0.002
-0.037
0.036
-0.046
-0.019
-0.000
-0.144
-0.049
0.285
-0.207
-0.158
-0.569
0.062
0.345
-0.039
0.065
0.089
-0.276
-0.036
-0.036
-0.070
-0.001
0.089
0.016
0.002
-0.071
0.023
-0.010
0.010
0.005
-0.008
0.025
-0.079
-0.027
-0.075
0.037
-0.014
-0.152
0.002
-0.041
-0.064
0.060
-0.014
0.012
-0.129
-0.084
0.122
0.351
-0.695
-0.203
0.053
0.196
0.143
-0.160
0.143
0.208
-0.505
-0.262
0.095
0.114
-0.045
0.027
0.008
-0.083
0.012
-0.013
-0.059
-0.014
0.070
-0.234
-0.010
-0.059
0.070
0.100
0.034
-0.112
-0.081
0.032
-0.006
-0.021
-0.082
0.124
0.225
-0.674
-0.027
0.234
0.106
-0.024
-0.030
-0.076
-0.107
0.005
-0.040
-0.066
0.071
-0.027
-0.025
-0.008
-0.033
-0.095
0.024
0.024
-0.049
-0.029
-0.034
-0.046
-0.104
-0.040
0.001
-0.104
-0.052
-0.077
0.134
-0.049
-0.148
-0.168
-0.040
0.018
-0.003
0.060
0.045
-0.033
-0.005
0.046
0.067
-0.071
0.501
-0.510
-0.597
0.260
-0.029
-0.079
0.268
0.073
-0.105
-0.001
0.184
-0.420
-0.154
-0.016
0.126
-0.035
0.062
-0.017
-0.160
-0.015
0.077
-0.019
0.089
-0.081
-0.042
-0.056
-0.118
0.033
-0.109
0.025
-0.019
-0.040
0.121
-0.053
-0.031
-0.030
-0.013
0.001
-0.120
0.165
-0.043
-0.205
-0.089
-0.032
0.141
0.378
-0.695
-0.171
0.122
0.114
0.029
-0.022
-0.014
-0.037
0.004
-0.087
0.011
-0.037
0.061
-0.004
-0.014
0.014
0.090
-0.046
-0.170
-0.004
-0.116
0.083
-0.076
-0.077
-0.068
-0.023
0.049
-0.035
-0.100
-0.001
-0.027
-0.025
-0.060
0.018
-0.058
-0.014
-0.027
0.243
-0.490
-0.091
0.169
0.156
0.032
-0.085
-0.149
-0.074
-0.023
-0.068
0.039
0.108
-0.172
-0.132
0.049
0.080
0.110
-0.054
-0.078
-0.009
-0.076
-0.258
-0.057
0.039
0.309
-0.252
-0.293
0.200
0.149
0.027
0.311
-0.741
-0.073
0.116
0.130
0.038
-0.024
-0.014
0.033
-0.051
-0.047
0.088
-0.155
-0.154
0.188
-0.209
-0.042
0.044
-0.042
-0.042
0.122
-0.045
0.047
-0.052
-0.007
-0.099
-0.071
-0.047
-0.088
-0.076
0.129
0.168
0.002
0.042
-0.011
-0.105
0.056
-0.324
0.056
0.130
-0.065
0.029
-0.066
0.062
-0.165
0.105
0.086
-0.039
0.093
-0.088
-0.063
-0.088
-0.084
-0.032
-0.066
-0.067
0.020
-0.005
0.005
0.042
0.015
-0.068
-0.015
-0.057
0.122
0.237
-0.515
-0.154
0.057
0.064
-0.010
0.016
0.002
0.007
-0.023
0.056
0.044
-0.026
0.264
-0.294
-0.289
0.003
0.130
0.114
0.032
0.272
-0.399
-0.369
0.060
0.163
0.222
-0.185
-0.305
-0.017
0.122
0.022
-0.059
-0.055
0.030
-0.062
0.219
-0.218
-0.050
-0.121
0.067
-0.016
0.021
0.046
0.020
-0.073
-0.014
-0.027
-0.067
0.006
0.059
0.140
-0.008
0.023
0.184
-0.554
-0.277
0.167
0.137
0.136
0.069
-0.137
-0.113
-0.139
-0.025
-0.012
0.014
0.058
0.036
-0.066
-0.042
-0.017
0.000
0.002
0.138
-0.092
0.103
0.184
-0.296
-0.113
0.517
-0.516
-0.221
0.131
0.056
0.071
-0.043
-0.101
-0.114
-0.074
-0.162
0.002
0.118
-0.058
-0.041
0.038
0.116
0.214
0.079
-0.507
-0.110
0.055
0.169
-0.029
0.083
-0.057
-0.133
-0.082
0.001
-0.083
-0.012
-0.045
-0.009
0.098
0.073
-0.074
0.043
-0.010
0.087
-0.046
-0.228
0.046
-0.069
-0.059
0.113
-0.113
-0.057
0.117
-0.059
-0.428
0.143
0.026
0.190
-0.004
-0.111
-0.100
-0.185
-0.194
0.042
-0.036
0.122
-0.047
-0.146
0.002
0.031
-0.083
0.069
-0.073
-0.070
0.018
-0.081
0.078
0.023
0.060
0.272
-0.433
-0.230
0.063
0.160
0.189
0.230
-0.612
0.034
0.242
0.024
-0.039
-0.041
-0.170
-0.129
0.005
0.062
0.065
0.492
-0.599
-0.130
-0.202
0.038
0.124
0.083
0.105
-0.080
-0.069
-0.022
0.014
0.012
-0.040
0.012
-0.020
-0.075
-0.075
-0.043
0.077
0.089
-0.027
-0.050
-0.002
-0.035
-0.079
0.026
0.004
-0.197
0.069
0.134
-0.033
0.160
-0.094
-0.060
-0.245
-0.150
0.118
0.170
0.109
-0.211
0.140
0.131
-0.585
-0.013
0.116
0.199
0.028
0.018
-0.076
-0.106
0.004
-0.068
-0.077
0.030
0.225
0.027
-0.020
-0.081
0.007
0.062
-0.058
-0.118
-0.053
-0.004
0.080
-0.019
-0.030
-0.047
-0.026
-0.192
-0.026
0.073
0.054
-0.118
0.002
0.039
-0.022
0.002
0.053
0.156
0.243
-0.609
-0.188
0.091
0.132
0.034
-0.062
-0.002
-0.054
-0.128
-0.054
0.015
-0.061
0.057
0.040
0.004
-0.065
0.040
0.127
-0.548
-0.129
0.118
0.243
0.200
-0.005
-0.359
-0.125
-0.067
-0.088
0.040
0.103
0.124
-0.027
-0.059
0.070
-0.106
-0.204
0.038
0.036
-0.012
-0.025
-0.082
-0.035
-0.049
0.015
0.261
0.061
-0.528
0.274
0.092
-0.454
0.036
0.168
0.048
0.193
0.015
-0.406
0.080
0.032
0.016
0.006
0.002
-0.142
-0.090
-0.173
0.004
0.026
-0.077
0.146
-0.028
0.066
-0.044
-0.165
-0.073
0.068
0.154
-0.051
-0.080
-0.082
0.055
0.057
0.038
-0.060
-0.050
-0.071
-0.063
0.024
-0.113
-0.080
0.047
0.010
0.068
-0.046
-0.063
-0.011
-0.076
0.054
-0.070
-0.060
0.025
0.077
0.127
-0.119
-0.040
-0.049
0.203
-0.298
-0.025
-0.063
0.054
0.404
-0.023
-0.536
-0.047
0.055
0.054
0.019
0.067
-0.061
0.025
-0.003
-0.040
-0.137
0.023
0.075
0.128
-0.035
-0.033
-0.156
-0.058
0.024
0.038
0.054
-0.075
0.032
0.025
-0.022
-0.077
-0.087
0.057
-0.214
0.053
-0.073
-0.149
0.042
0.277
-0.011
-0.488
0.059
0.201
0.475
-0.615
-0.227
0.047
0.054
0.133
-0.053
0.013
0.044
-0.111
0.053
-0.091
0.032
-0.024
-0.068
0.256
0.014
-0.708
-0.067
0.300
0.243
0.022
-0.144
-0.061
-0.154
-0.064
-0.005
0.038
0.122
-0.127
-0.064
0.131
-0.059
0.028
-0.091
-0.012
-0.018
0.322
-0.360
-0.299
0.205
0.111
0.020
-0.133
-0.144
-0.066
-0.097
-0.007
0.025
0.115
0.197
-0.502
-0.066
0.055
0.308
-0.285
-0.299
0.213
-0.026
0.059
0.089
0.015
-0.035
-0.089
0.038
-0.025
-0.177
-0.035
-0.008
0.010
0.089
0.068
-0.063
-0.071
-0.018
0.045
-0.005
-0.076
-0.050
-0.143
0.012
-0.005
-0.067
0.101
0.052
-0.020
-0.045
-0.030
-0.020
0.003
0.154
-0.258
-0.197
0.109
-0.033
0.202
0.001
-0.159
-0.094
0.012
0.055
-0.038
0.049
-0.151
-0.005
0.060
0.021
-0.057
-0.039
0.024
-0.038
0.034
-0.111
0.002
0.024
-0.055
0.043
0.040
0.015
0.042
0.059
0.072
-0.046
-0.039
-0.088
-0.020
-0.088
0.043
-0.005
-0.008
0.050
-0.103
0.042
0.034
-0.234
-0.191
0.097
0.489
-0.682
-0.068
0.222
0.153
-0.042
0.014
-0.061
-0.091
0.072
-0.010
-0.001
-0.163
-0.059
0.094
0.245
-0.073
-0.048
-0.047
0.032
0.397
-0.262
-0.592
-0.334
0.362
0.243
0.054
-0.082
-0.136
-0.121
-0.133
-0.079
0.018
-0.036
0.042
0.069
0.233
-0.246
-0.335
0.072
0.125
0.111
0.017
0.019
-0.010
-0.163
-0.067
-0.017
-0.008
-0.052
0.057
-0.070
0.000
0.009
-0.075
0.021
-0.046
0.023
0.087
-0.041
-0.041
-0.099
-0.032
0.007
0.418
-0.848
0.151
-0.200
0.205
0.138
-0.078
-0.025
-0.009
-0.070
-0.166
-0.086
0.091
-0.026
0.006
-0.046
0.006
-0.025
-0.100
0.015
0.076
-0.032
0.029
-0.023
-0.189
-0.127
0.155
-0.125
0.031
0.194
-0.025
-0.069
-0.133
-0.180
-0.070
0.029
0.042
0.031
-0.009
-0.008
-0.021
-0.164
0.166
0.239
-0.424
0.057
-0.044
0.071
0.033
0.007
-0.091
-0.067
-0.018
0.087
0.006
-0.015
-0.086
-0.086
-0.061
0.136
-0.056
-0.001
0.037
0.099
-0.075
-0.077
0.047
-0.016
-0.049
-0.020
-0.028
-0.096
-0.069
-0.091
-0.100
0.005
-0.050
-0.019
0.146
0.086
-0.370
-0.127
-0.040
0.070
0.122
0.028
0.003
-0.039
-0.078
-0.006
0.098
-0.010
-0.101
-0.013
-0.228
-0.044
0.029
-0.036
-0.021
0.125
0.000
-0.056
0.167
-0.246
-0.177
0.148
0.126
-0.040
0.061
-0.100
-0.084
0.035
-0.066
0.036
0.144
-0.012
-0.165
-0.127
0.043
-0.018
-0.020
0.128
0.075
-0.624
0.047
0.383
0.229
-0.638
0.117
-0.046
-0.002
-0.067
-0.065
-0.100
-0.040
0.003
0.047
-0.016
-0.021
0.044
0.073
-0.021
-0.116
-0.049
0.161
-0.232
0.020
0.059
0.036
0.037
0.421
-0.681
-0.181
-0.200
-0.024
0.169
0.056
0.038
-0.054
-0.034
-0.025
-0.105
-0.041
0.136
0.366
-0.532
-0.072
0.163
0.291
0.176
-0.326
-0.021
0.047
-0.052
-0.005
-0.051
-0.110
-0.077
-0.066
-0.087
-0.082
0.001
0.003
0.003
0.112
0.026
-0.036
0.050
0.005
-0.112
-0.143
0.040
0.033
0.039
-0.115
0.032
0.051
0.000
-0.002
-0.049
-0.096
0.020
-0.091
-0.132
0.010
0.041
0.092
-0.116
-0.039
0.034
0.077
-0.090
-0.111
-0.060
0.157
0.117
0.025
0.044
-0.319
-0.182
0.096
0.079
0.032
0.075
-0.006
0.007
-0.015
-0.141
-0.082
-0.052
-0.066
0.076
0.011
0.002
-0.006
0.018
-0.051
-0.105
-0.032
0.059
0.002
-0.044
0.056
0.032
-0.018
0.246
-0.124
-0.241
-0.042
0.046
0.234
-0.532
-0.003
0.206
0.006
0.037
-0.025
-0.118
-0.011
-0.062
-0.026
0.003
0.117
-0.080
0.041
0.000
0.076
0.080
-0.327
-0.315
0.171
-0.315
-0.153
0.343
0.159
-0.071
-0.006
-0.172
-0.145
-0.135
0.027
0.071
0.110
0.233
-0.216
-0.109
0.137
0.057
-0.038
0.083
-0.121
-0.137
0.105
0.033
-0.004
-0.057
-0.076
-0.073
-0.009
0.022
-0.096
-0.067
0.129
0.027
-0.013
-0.080
-0.059
-0.098
-0.059
-0.027
-0.374
0.097
0.144
0.120
0.105
0.049
-0.387
-0.057
0.104
-0.018
0.067
0.122
0.050
-0.180
0.091
0.230
0.034
-0.497
0.004
0.141
0.055
0.027
-0.018
-0.064
-0.288
0.033
0.044
0.037
-0.012
0.016
-0.079
0.026
0.029
-0.059
0.076
-0.145
0.007
-0.082
0.000
-0.002
-0.047
-0.008
-0.122
-0.090
0.017
-0.006
0.233
0.033
-0.425
0.010
0.147
-0.026
0.104
-0.010
0.043
-0.075
-0.039
-0.019
0.023
-0.039
-0.032
-0.068
-0.156
-0.002
-0.032
-0.013
0.100
0.114
-0.054
0.038
-0.404
-0.033
0.103
0.185
-0.040
-0.006
-0.072
-0.114
0.093
0.085
0.439
-0.737
-0.244
0.286
0.124
0.057
0.008
-0.240
-0.098
0.027
0.031
-0.013
-0.039
-0.004
-0.098
-0.054
-0.032
0.113
-0.285
-0.151
0.119
0.156
0.289
-0.062
-0.575
0.024
0.162
-0.010
0.039
-0.113
-0.032
-0.051
-0.088
0.014
0.071
0.007
-0.036
-0.027
-0.006
0.251
0.005
-0.430
-0.073
0.060
0.117
0.413
-0.623
-0.219
0.046
0.146
-0.054
-0.023
-0.019
-0.031
-0.005
0.022
0.011
-0.081
-0.070
0.034
-0.169
0.018
0.080
0.005
0.138
-0.138
0.036
0.010
-0.089
-0.113
-0.024
-0.004
0.058
-0.103
-0.116
-0.035
0.001
0.014
-0.036
-0.083
-0.045
-0.027
0.218
-0.109
-0.209
0.092
0.191
-0.171
-0.181
0.009
0.137
-0.016
-0.162
0.012
0.063
0.334
-0.409
-0.375
0.161
0.036
0.065
0.039
0.057
-0.043
-0.096
-0.100
0.033
-0.008
-0.019
-0.001
-0.026
0.474
-0.576
-0.284
0.017
0.284
0.065
0.019
-0.025
-0.066
-0.184
-0.078
-0.004
-0.024
0.013
0.030
-0.009
0.051
0.009
0.052
-0.104
-0.082
-0.090
-0.101
0.003
-0.003
0.041
0.056
-0.012
-0.021
-0.046
-0.057
-0.122
-0.056
-0.098
0.163
0.121
0.015
-0.127
0.261
-0.430
-0.428
0.099
0.211
0.161
0.012
-0.003
-0.037
0.178
-0.398
-0.185
-0.015
0.235
0.066
-0.449
0.092
0.163
0.029
-0.030
0.124
-0.088
-0.106
-0.090
-0.045
-0.043
-0.005
0.107
-0.123
-0.006
-0.002
-0.042
-0.040
-0.049
0.039
-0.078
0.017
-0.026
0.013
0.182
-0.346
-0.141
0.069
0.161
0.072
0.002
0.000
-0.173
-0.021
-0.086
0.146
-0.154
-0.073
0.055
0.030
-0.020
-0.017
-0.044
0.240
0.075
-0.552
0.086
0.164
0.004
-0.070
0.049
0.184
-0.215
-0.176
0.010
-0.059
-0.011
-0.004
0.123
0.052
-0.038
0.483
-0.506
-0.359
-0.091
0.063
0.155
-0.006
-0.003
0.269
-0.101
-0.409
-0.067
0.095
0.123
-0.074
0.113
0.062
-0.024
-0.059
-0.105
-0.118
0.073
-0.085
-0.001
-0.080
0.088
-0.015
-0.097
0.230
-0.317
-0.357
0.127
0.098
-0.004
0.095
0.085
0.007
-0.020
0.021
-0.178
-0.022
-0.065
-0.091
0.067
0.059
0.110
-0.134
0.056
-0.072
0.002
-0.088
-0.086
-0.036
0.034
0.033
-0.114
0.109
0.382
-0.634
-0.169
0.137
0.086
-0.025
0.077
-0.009
-0.269
-0.075
-0.030
0.064
0.068
-0.100
-0.080
-0.035
0.116
0.081
0.109
-0.211
-0.335
-0.054
0.135
0.193
-0.059
-0.186
0.051
0.040
-0.058
-0.059
-0.095
-0.015
0.005
-0.020
0.004
0.040
0.018
-0.093
0.071
-0.049
0.218
-0.225
-0.157
0.062
0.015
-0.051
0.015
-0.079
-0.098
0.263
-0.095
-0.531
0.052
0.157
0.048
-0.031
0.004
-0.085
0.010
-0.064
-0.148
0.015
0.073
-0.062
-0.147
-0.050
0.018
0.005
-0.080
0.129
-0.044
-0.321
0.053
0.135
0.050
-0.039
-0.079
-0.066
0.228
0.232
-0.397
-0.022
-0.023
-0.089
0.040
0.039
0.182
-0.435
-0.262
0.043
0.074
0.341
0.027
-0.583
0.030
0.068
-0.036
-0.018
0.077
0.021
0.105
-0.031
-0.004
0.031
-0.049
-0.095
-0.106
-0.056
0.413
-0.126
-0.275
0.017
0.048
0.058
-0.013
-0.084
-0.117
0.037
0.090
0.022
-0.069
-0.146
-0.064
-0.149
0.038
0.072
-0.007
-0.044
-0.001
-0.078
0.088
0.044
-0.005
-0.025
-0.080
0.296
-0.389
-0.321
0.184
0.324
0.316
-0.684
-0.120
0.093
0.014
0.068
-0.178
-0.022
0.046
-0.086
-0.065
-0.079
0.007
0.066
0.160
-0.054
-0.037
0.002
-0.119
-0.048
0.072
0.017
0.009
0.453
-0.769
-0.134
0.154
0.196
0.174
-0.246
-0.207
0.066
0.017
-0.057
-0.033
-0.174
-0.018
0.032
0.119
-0.156
-0.118
0.057
0.040
-0.007
0.178
-0.259
-0.088
-0.036
0.027
0.006
-0.024
-0.005
-0.003
-0.070
-0.057
-0.036
0.058
-0.067
-0.013
0.016
-0.100
-0.021
0.060
-0.022
0.046
-0.197
0.013
-0.061
-0.091
0.048
-0.007
-0.052
-0.041
-0.135
-0.003
-0.015
-0.064
-0.007
0.077
0.024
-0.080
0.036
-0.090
-0.060
0.061
0.047
-0.177
0.025
0.022
-0.029
0.036
-0.040
-0.204
0.108
-0.127
-0.033
0.109
-0.151
-0.062
-0.039
0.110
-0.031
-0.044
0.077
-0.029
-0.016
-0.035
0.126
-0.020
0.052
-0.136
-0.129
0.019
-0.304
-0.294
0.104
0.244
0.009
-0.028
-0.049
-0.004
-0.067
-0.078
-0.015
0.117
-0.564
-0.088
0.207
0.264
0.013
-0.136
-0.002
-0.018
-0.024
-0.087
-0.104
-0.016
0.035
-0.066
0.327
-0.125
-0.655
0.129
0.159
-0.011
0.058
0.284
-0.616
-0.063
0.067
0.124
0.262
-0.769
-0.132
0.106
0.168
0.046
0.001
-0.013
-0.031
-0.066
-0.039
-0.002
0.014
0.034
-0.018
-0.066
-0.001
0.032
-0.068
0.239
-0.201
-0.481
0.236
0.052
0.169
-0.382
0.174
-0.151
-0.177
0.105
-0.025
-0.137
-0.047
0.024
0.003
-0.035
0.050
-0.156
-0.049
0.036
0.096
-0.254
-0.030
0.061
0.087
0.035
-0.044
-0.222
-0.068
0.061
0.021
0.034
-0.073
0.034
-0.081
0.032
0.025
-0.043
-0.011
-0.009
-0.075
0.018
0.040
-0.029
-0.280
-0.023
0.099
0.065
0.029
-0.019
0.039
-0.141
-0.119
-0.047
0.073
-0.067
-0.079
-0.032
-0.012
0.038
-0.046
0.127
0.068
-0.001
-0.009
-0.055
-0.048
-0.083
0.010
-0.093
-0.056
0.064
0.394
-0.729
-0.132
0.217
0.133
0.143
0.026
-0.127
-0.247
-0.034
0.032
0.015
0.059
0.061
-0.054
0.082
0.007
-0.115
-0.096
0.031
0.061
-0.036
-0.097
-0.053
-0.109
-0.076
0.098
0.153
-0.258
-0.197
0.001
0.006
0.246
-0.410
-0.179
0.131
0.029
0.070
-0.005
-0.066
-0.164
-0.130
0.184
0.028
0.265
-0.039
-0.363
-0.012
-0.012
0.071
0.104
-0.185
-0.094
0.163
0.063
-0.509
0.123
-0.067
0.312
-0.153
-0.129
0.018
-0.084
0.008
-0.159
0.041
0.146
0.010
-0.002
-0.038
-0.034
-0.080
-0.124
-0.020
0.030
-0.134
0.047
0.167
0.072
-0.130
-0.224
-0.129
0.004
0.047
0.026
-0.016
0.102
0.160
-0.475
0.090
0.268
-0.466
-0.008
0.206
0.138
0.044
0.012
-0.012
0.196
-0.705
-0.271
0.172
0.264
0.114
-0.109
-0.043
-0.060
-0.046
-0.185
0.013
0.099
-0.043
0.056
-0.012
0.041
0.002
0.054
0.016
-0.065
0.041
0.055
0.062
0.012
0.205
-0.035
-0.663
-0.022
0.146
0.046
0.113
0.056
-0.130
-0.081
-0.110
-0.069
-0.142
-0.031
-0.043
0.058
-0.037
-0.021
0.025
0.108
-0.017
0.059
-0.053
-0.018
0.087
0.020
-0.177
-0.078
0.020
-0.027
-0.045
0.155
-0.282
-0.060
0.060
-0.010
0.041
0.001
-0.045
-0.047
-0.123
-0.006
0.030
0.040
0.004
-0.123
0.043
0.113
-0.238
-0.004
0.043
-0.109
0.053
0.168
-0.060
-0.073
-0.110
-0.071
0.394
-0.365
-0.163
0.143
0.131
-0.089
-0.063
-0.115
-0.058
0.214
0.080
-0.441
-0.063
0.092
0.038
0.027
-0.045
0.159
0.219
-0.573
0.127
0.208
0.332
-0.399
-0.347
0.039
0.155
0.052
-0.005
0.008
0.042
-0.119
-0.056
-0.011
-0.044
-0.115
-0.029
0.016
0.009
0.138
0.058
-0.041
-0.039
-0.155
-0.019
-0.076
-0.092
0.239
-0.194
0.169
-0.009
-0.514
0.076
0.189
0.027
-0.036
-0.030
0.038
0.004
-0.138
-0.066
-0.113
0.083
0.052
-0.005
0.195
-0.056
-0.158
-0.088
-0.068
0.047
0.081
-0.011
-0.097
0.032
-0.046
-0.001
-0.011
-0.067
-0.150
-0.091
0.030
0.040
0.013
-0.100
-0.105
0.194
0.055
-0.475
0.043
0.097
0.020
-0.074
0.019
-0.069
-0.017
-0.018
0.166
-0.153
-0.067
-0.118
-0.056
-0.030
0.009
0.027
0.157
0.210
-0.498
0.033
0.160
0.077
-0.038
-0.004
-0.046
0.001
-0.057
-0.029
-0.064
-0.006
-0.022
-0.045
-0.011
-0.000
-0.050
-0.032
-0.008
-0.040
0.025
-0.165
-0.046
-0.027
-0.007
-0.074
-0.013
0.006
-0.098
0.003
0.035
-0.025
0.047
0.108
-0.024
-0.052
-0.026
0.085
-0.106
-0.050
0.091
0.022
0.031
-0.038
-0.032
0.049
-0.344
-0.121
0.042
0.136
0.410
-0.633
-0.224
0.206
0.150
0.048
-0.075
0.172
0.232
-0.257
-0.626
0.063
0.157
0.187
0.058
-0.052
-0.118
-0.069
-0.104
-0.025
-0.100
0.480
-0.330
-0.643
0.083
0.247
0.195
-0.049
-0.047
0.036
-0.170
-0.296
0.023
-0.005
0.116
0.030
0.083
0.110
-0.167
-0.042
-0.089
0.019
0.002
0.080
-0.059
-0.011
-0.199
-0.007
0.118
0.014
-0.210
0.065
-0.024
-0.040
0.002
0.025
0.022
-0.066
-0.091
-0.030
-0.092
0.014
0.046
0.222
-0.146
-0.191
0.025
0.002
-0.121
-0.060
-0.079
0.019
0.088
0.029
-0.066
-0.071
-0.055
-0.127
-0.095
0.033
0.090
0.073
-0.067
-0.028
0.078
-0.005
-0.198
-0.071
-0.033
0.018
0.283
-0.091
-0.503
0.203
0.151
0.142
0.048
-0.127
-0.093
-0.057
0.024
-0.055
-0.022
-0.118
-0.016
-0.045
-0.078
0.051
0.111
0.090
-0.102
-0.071
-0.079
-0.159
-0.057
0.133
0.020
-0.041
-0.003
0.069
-0.060
-0.024
-0.042
0.387
-0.498
-0.304
0.127
0.138
0.109
-0.241
-0.167
0.083
-0.043
0.028
-0.084
0.019
-0.024
-0.186
0.035
0.101
-0.053
0.018
-0.036
-0.084
0.267
0.099
-0.596
0.017
0.116
0.093
-0.030
-0.171
-0.055
-0.009
-0.112
-0.120
0.072
0.022
-0.007
0.022
-0.070
0.020
0.264
-0.393
0.103
0.081
-0.305
-0.054
0.207
0.135
-0.021
-0.020
-0.012
-0.078
-0.093
-0.062
0.024
-0.069
0.026
0.026
0.016
-0.010
0.045
-0.093
-0.105
0.128
0.328
-0.027
-0.943
-0.049
0.250
0.220
0.019
0.014
-0.142
-0.087
-0.009
0.018
-0.044
-0.013
-0.092
0.148
0.032
-0.049
0.052
0.016
-0.077
-0.027
-0.087
-0.055
0.056
0.036
-0.061
-0.096
-0.049
-0.099
0.098
0.035
-0.013
0.440
-0.440
-0.394
-0.041
0.042
0.164
0.153
-0.030
0.076
0.035
-0.152
0.043
-0.121
-0.056
0.002
-0.021
0.109
-0.013
0.009
-0.072
0.157
-0.193
-0.077
0.026
0.086
0.469
-0.667
-0.168
0.093
0.042
0.027
0.256
-0.398
-0.117
0.114
0.113
-0.521
0.024
0.092
0.090
0.053
-0.119
-0.131
-0.039
-0.065
0.013
0.011
0.025
0.018
0.057
-0.039
-0.103
0.012
-0.029
-0.013
0.032
-0.003
-0.039
-0.069
0.017
0.003
-0.043
0.015
-0.103
-0.001
0.028
-0.014
-0.049
0.024
0.066
-0.082
-0.085
-0.040
-0.011
-0.030
0.082
-0.043
0.002
-0.025
0.014
0.052
0.006
0.180
0.104
-0.685
0.127
0.211
-0.019
0.046
-0.053
-0.142
-0.109
-0.091
0.016
0.007
0.044
-0.125
-0.110
-0.010
0.045
0.002
0.048
0.111
-0.140
0.029
0.076
-0.347
-0.029
0.003
0.072
0.026
0.002
0.001
0.018
0.089
-0.238
-0.119
-0.015
0.066
-0.061
-0.001
0.083
0.108
0.251
-0.506
-0.087
0.071
0.034
0.009
-0.005
0.004
-0.060
-0.202
0.057
0.131
0.168
-0.233
-0.383
-0.123
0.279
0.094
-0.089
-0.033
-0.080
-0.126
0.137
-0.066
-0.006
-0.222
0.025
0.038
0.008
-0.022
0.139
-0.038
0.116
-0.362
-0.218
0.117
0.031
0.063
0.139
-0.258
-0.065
0.013
-0.141
-0.167
0.021
-0.034
0.105
0.034
0.018
0.019
0.005
-0.111
0.002
-0.050
-0.056
0.022
-0.104
0.079
0.129
-0.184
-0.111
0.041
0.051
0.018
0.031
-0.077
-0.100
-0.062
-0.020
-0.039
0.023
-0.010
-0.012
0.032
-0.034
0.035
0.052
-0.035
-0.186
-0.160
-0.002
-0.034
-0.041
-0.004
0.046
0.011
0.034
-0.075
-0.087
-0.085
0.103
-0.039
0.254
-0.430
-0.340
0.078
0.203
0.124
-0.075
0.024
-0.022
-0.072
-0.087
-0.110
-0.048
-0.017
0.001
0.009
0.126
0.092
0.003
-0.140
-0.096
-0.059
0.301
-0.295
-0.311
0.227
0.060
0.070
-0.039
-0.095
-0.093
-0.066
-0.001
-0.075
0.007
-0.038
-0.064
-0.041
-0.098
0.004
-0.021
-0.005
0.387
-0.535
-0.371
0.079
0.213
0.056
0.035
0.095
-0.128
-0.344
0.039
0.012
0.144
0.006
0.019
-0.000
0.159
-0.525
-0.036
0.173
0.162
-0.009
-0.008
-0.058
0.049
-0.051
-0.148
0.055
-0.123
-0.033
0.047
0.196
-0.071
0.063
-0.144
-0.112
-0.001
0.001
-0.160
-0.110
0.097
0.179
0.009
-0.035
-0.018
-0.071
-0.004
-0.040
-0.042
-0.090
-0.002
-0.023
0.064
0.230
-0.339
0.234
-0.200
-0.186
0.149
0.113
-0.048
-0.029
-0.091
-0.067
-0.052
0.012
0.085
-0.113
0.043
-0.029
-0.029
-0.063
0.009
-0.057
-0.168
0.024
0.053
0.141
0.274
0.035
-0.454
-0.086
0.061
0.143
-0.008
0.006
-0.029
-0.064
-0.031
0.161
-0.025
-0.061
-0.127
0.032
-0.009
0.118
0.037
-0.038
-0.098
-0.045
-0.010
-0.089
-0.054
0.048
-0.046
-0.012
-0.078
-0.096
0.079
-0.035
-0.059
0.084
0.061
0.315
-0.275
-0.230
-0.391
0.080
-0.052
0.054
0.205
0.118
0.324
-0.716
-0.338
0.247
0.096
0.038
0.120
-0.017
0.012
0.089
-0.001
-0.086
0.034
-0.155
0.004
0.025
0.094
0.025
-0.094
-0.003
0.013
-0.307
0.125
0.023
0.031
0.271
-0.144
-0.407
0.035
0.139
0.086
-0.005
-0.129
-0.033
0.056
-0.081
-0.031
-0.041
-0.033
-0.051
-0.074
-0.053
-0.064
0.137
0.000
0.063
0.026
-0.145
0.104
-0.198
-0.091
0.081
0.019
0.045
-0.055
0.085
-0.031
-0.088
0.011
0.046
-0.044
-0.061
0.040
-0.078
-0.061
0.025
0.009
0.016
0.004
-0.036
-0.010
-0.125
-0.198
-0.062
0.046
0.040
0.101
0.034
-0.018
-0.112
0.017
0.013
0.008
-0.026
0.158
-0.278
-0.178
0.226
-0.017
-0.009
0.076
-0.015
-0.117
-0.139
-0.070
-0.023
0.076
0.317
-0.143
-0.505
0.360
-0.099
-0.329
0.103
0.331
0.037
-0.105
-0.127
-0.101
-0.139
0.009
-0.009
0.042
0.019
0.081
-0.102
-0.029
-0.036
0.098
0.042
-0.137
0.028
-0.085
0.024
0.047
-0.031
-0.024
0.058
-0.123
-0.034
-0.009
0.245
-0.538
-0.145
0.141
0.121
0.106
-0.013
-0.145
-0.125
-0.058
-0.024
-0.024
0.036
-0.045
-0.094
0.070
0.000
0.012
-0.138
-0.131
-0.059
0.064
0.358
-0.246
-0.309
0.119
0.110
0.109
-0.004
0.204
-0.309
-0.462
0.207
0.168
0.068
0.067
-0.018
-0.121
-0.130
-0.031
0.029
0.088
0.016
-0.092
-0.221
0.165
0.068
-0.497
0.015
0.367
0.163
-0.483
0.019
0.055
0.015
-0.096
-0.184
-0.137
0.041
-0.035
0.077
0.034
0.036
0.120
-0.128
-0.178
0.013
-0.037
0.021
-0.070
-0.004
0.077
0.055
-0.040
-0.011
-0.067
-0.116
0.073
0.230
-0.195
-0.157
0.048
0.059
0.022
-0.068
0.000
0.046
0.104
0.204
-0.612
-0.085
0.105
0.149
-0.101
0.056
-0.005
0.109
0.001
-0.234
0.031
0.061
0.060
-0.130
-0.065
0.015
0.052
0.089
0.129
-0.106
-0.110
0.066
-0.089
-0.134
-0.047
-0.056
-0.202
0.015
0.102
0.043
0.153
0.058
-0.041
-0.202
-0.063
0.109
-0.106
0.057
-0.036
0.009
0.061
0.071
-0.056
-0.053
0.151
-0.302
-0.315
0.243
0.101
0.007
-0.033
-0.038
-0.117
-0.126
-0.038
-0.007
0.078
-0.079
-0.173
-0.056
0.118
0.177
0.050
-0.041
-0.014
-0.051
0.013
0.010
-0.058
-0.120
0.108
-0.051
-0.099
-0.107
-0.006
0.182
0.284
-0.758
-0.121
0.157
0.238
0.024
-0.031
0.175
-0.158
-0.234
-0.158
0.056
0.036
-0.304
0.073
0.173
0.135
-0.022
-0.164
-0.069
-0.128
0.001
-0.060
0.007
0.004
0.102
-0.122
-0.013
0.063
0.233
-0.079
-0.547
0.317
-0.040
-0.167
-0.144
0.181
0.021
0.106
0.040
-0.123
0.042
-0.137
-0.104
0.146
-0.254
-0.035
0.321
0.094
-0.004
-0.062
0.007
-0.126
-0.091
-0.097
-0.017
0.062
0.121
-0.032
-0.012
-0.094
-0.095
-0.166
0.050
0.067
-0.065
0.073
-0.024
-0.075
-0.058
0.029
0.015
-0.057
0.030
-0.147
0.091
-0.009
-0.019
-0.011
0.066
-0.082
-0.122
0.020
0.027
-0.099
-0.062
-0.032
0.024
-0.007
0.042
0.080
0.110
-0.389
0.000
0.052
0.073
-0.146
-0.058
0.034
-0.087
0.009
0.043
0.090
-0.032
-0.082
0.079
0.018
-0.050
-0.117
-0.056
-0.095
0.094
-0.026
0.039
0.091
-0.095
-0.016
-0.017
0.131
-0.129
-0.163
0.036
0.039
-0.053
0.016
0.181
-0.143
0.061
0.241
-0.736
-0.098
0.156
0.186
0.117
0.029
-0.029
-0.221
-0.006
0.021
-0.053
0.018
0.001
0.057
-0.170
-0.212
0.042
0.163
0.141
-0.157
-0.006
-0.010
-0.055
-0.026
0.494
-0.501
0.121
-0.577
0.083
0.303
0.116
0.021
0.001
-0.089
-0.214
-0.083
0.004
-0.048
0.080
0.059
0.023
-0.075
0.113
-0.062
0.002
-0.087
0.091
-0.034
-0.066
-0.023
0.023
0.014
0.038
-0.035
0.011
-0.156
-0.209
0.115
0.274
-0.487
-0.031
0.122
0.257
-0.086
-0.319
-0.219
0.123
0.137
0.076
-0.144
0.220
0.057
-0.433
0.071
0.229
0.038
-0.016
-0.067
-0.087
-0.092
-0.058
-0.128
0.080
0.061
-0.014
-0.025
-0.060
-0.051
-0.049
0.001
0.083
-0.058
0.026
-0.100
-0.056
0.068
0.002
-0.072
-0.121
-0.149
0.055
0.119
-0.002
-0.003
-0.004
0.151
-0.487
0.015
0.081
0.156
-0.011
-0.027
-0.033
0.013
-0.099
-0.016
-0.008
-0.054
-0.046
0.048
-0.072
0.015
-0.040
0.055
0.119
-0.067
-0.048
-0.048
-0.222
-0.133
0.037
0.100
0.085
0.031
0.003
-0.035
-0.099
0.357
-0.510
-0.474
0.141
0.126
0.053
0.064
0.031
-0.012
-0.072
-0.088
-0.095
0.087
0.018
-0.175
0.058
0.188
0.005
-0.097
-0.060
-0.091
-0.039
0.097
-0.116
-0.044
-0.104
-0.084
0.213
0.106
-0.474
0.065
0.122
0.061
0.285
-0.593
-0.330
0.107
0.218
0.111
-0.121
-0.036
-0.220
-0.125
0.029
0.025
-0.100
0.045
-0.023
-0.007
-0.008
-0.050
-0.003
-0.022
0.084
0.108
-0.083
-0.073
-0.047
-0.015
0.001
0.033
-0.042
-0.028
-0.014
-0.074
-0.018
0.005
-0.008
-0.066
-0.134
0.050
0.003
-0.049
0.063
-0.040
-0.093
0.127
-0.342
-0.126
0.077
0.137
0.115
-0.295
-0.179
0.083
0.145
-0.319
-0.103
0.114
0.131
0.261
-0.252
-0.047
-0.508
0.122
0.278
0.128
0.019
0.008
-0.090
0.039
0.150
-0.298
-0.122
-0.031
-0.040
0.072
0.151
-0.086
-0.108
-0.099
-0.054
-0.002
0.129
0.032
-0.067
-0.036
-0.009
0.043
0.238
0.136
-0.655
-0.218
0.258
0.200
0.093
-0.148
-0.186
0.017
0.039
0.028
0.005
0.062
0.012
0.055
-0.080
0.072
-0.001
0.073
-0.091
-0.042
-0.067
-0.066
0.006
0.018
-0.002
-0.081
-0.002
-0.049
-0.082
0.075
0.041
-0.290
0.011
0.070
0.115
0.004
-0.018
0.097
-0.065
0.091
-0.097
-0.126
-0.069
0.058
-0.094
0.027
-0.038
-0.061
-0.018
-0.039
-0.029
-0.054
0.053
-0.003
-0.033
-0.068
0.021
0.064
0.283
-0.606
0.122
0.146
0.396
-0.057
-0.543
0.207
-0.062
0.047
0.027
-0.024
0.047
0.091
-0.132
0.058
-0.051
-0.039
-0.084
-0.092
-0.028
0.027
-0.032
0.006
-0.011
-0.032
-0.083
0.004
-0.077
-0.069
-0.103
0.042
0.102
0.011
0.108
-0.017
-0.194
0.036
-0.014
-0.040
-0.117
-0.007
0.011
0.108
0.049
-0.086
-0.161
-0.102
0.110
0.046
0.030
-0.010
-0.090
0.029
0.068
0.091
-0.014
-0.017
-0.034
0.536
-0.728
-0.185
0.198
0.173
0.019
0.055
0.005
-0.123
-0.132
0.002
-0.096
-0.112
-0.016
0.025
0.123
0.131
-0.086
-0.104
0.007
0.123
0.074
-0.325
0.371
-0.540
-0.146
0.188
0.163
0.130
0.017
-0.162
-0.131
0.327
-0.083
-0.449
-0.127
0.152
0.176
0.107
0.082
0.022
-0.034
-0.010
-0.059
-0.078
-0.027
0.018
0.088
0.064
0.113
-0.166
-0.226
0.100
0.192
-0.340
-0.131
0.068
0.036
0.070
0.101
-0.145
-0.009
-0.062
-0.204
0.044
0.076
0.011
-0.064
0.025
-0.085
0.089
-0.001
-0.078
-0.050
0.053
0.108
0.049
-0.062
-0.067
-0.043
0.037
-0.049
0.051
-0.010
0.003
0.078
-0.067
-0.006
-0.154
-0.131
-0.019
0.038
-0.015
0.063
0.058
-0.079
-0.069
-0.040
0.035
0.008
0.006
-0.022
-0.035
0.081
-0.024
-0.052
0.004
-0.100
-0.086
-0.008
0.031
0.016
0.133
-0.131
-0.539
0.211
0.274
0.209
-0.629
0.004
0.181
0.133
0.068
-0.056
0.169
-0.125
-0.556
0.070
0.127
0.097
0.101
-0.029
-0.008
-0.026
-0.132
-0.062
-0.054
-0.036
0.098
0.092
-0.029
-0.040
0.061
0.042
-0.016
-0.011
-0.017
-0.120
-0.047
0.012
-0.024
0.062
-0.053
-0.067
-0.024
0.026
0.107
-0.208
-0.085
0.056
-0.010
-0.039
0.012
-0.158
0.013
0.166
-0.088
-0.085
-0.001
-0.052
-0.078
0.020
-0.052
0.040
0.279
-0.220
-0.287
0.025
0.145
0.219
-0.593
-0.206
0.224
0.102
0.045
-0.038
-0.001
0.009
-0.109
-0.006
0.049
-0.019
0.062
0.095
-0.258
0.005
0.101
0.319
0.557
-0.933
-0.362
0.017
0.025
0.074
0.142
-0.017
-0.102
-0.109
-0.174
-0.096
-0.016
-0.010
-0.018
0.072
0.227
-0.021
-0.158
-0.051
-0.091
-0.093
-0.024
0.054
-0.020
0.064
-0.076
0.027
0.011
-0.038
-0.022
-0.079
-0.030
0.153
-0.158
0.119
-0.477
0.072
0.207
0.098
-0.055
-0.199
-0.088
-0.078
-0.030
0.001
-0.180
-0.030
0.102
0.099
-0.049
0.018
-0.025
0.006
0.019
-0.113
-0.005
0.075
-0.104
-0.019
0.033
-0.016
-0.073
-0.057
-0.044
0.025
-0.061
0.053
-0.060
0.012
-0.157
0.049
0.011
0.151
0.072
-0.119
0.322
-0.537
-0.075
0.047
-0.016
-0.010
-0.053
0.027
-0.057
0.040
-0.065
-0.126
-0.035
-0.054
0.037
0.124
0.368
-0.643
-0.093
0.240
-0.055
0.026
0.032
-0.121
-0.038
-0.093
-0.084
0.022
0.050
-0.039
-0.150
0.051
-0.059
0.052
-0.017
-0.046
0.009
0.142
0.069
0.047
-0.102
-0.131
-0.093
-0.056
0.016
0.052
0.043
-0.019
-0.047
-0.064
-0.072
0.046
0.023
-0.315
0.028
0.401
-0.289
-0.105
0.208
-0.212
0.011
-0.034
0.102
0.001
0.058
-0.110
-0.015
0.058
-0.111
-0.030
0.082
0.015
-0.059
-0.113
-0.054
-0.055
-0.024
-0.082
0.092
0.118
0.014
-0.068
-0.032
0.156
-0.320
-0.187
0.001
0.704
-0.205
-0.593
-0.225
0.158
0.271
-0.064
-0.011
-0.055
-0.080
-0.013
0.019
-0.039
-0.077
-0.054
0.026
-0.018
0.090
-0.041
0.014
-0.009
0.000
-0.033
-0.026
0.097
0.074
-0.066
-0.326
0.018
0.047
0.041
0.078
0.162
0.035
-0.181
-0.139
-0.026
-0.060
-0.134
0.018
-0.065
-0.007
0.037
0.028
-0.085
-0.118
0.014
0.002
0.001
-0.035
-0.007
0.208
-0.236
-0.072
0.064
0.017
-0.007
-0.019
-0.111
-0.149
-0.070
-0.026
0.099
-0.058
-0.006
0.011
-0.138
0.091
0.008
0.222
-0.129
-0.305
-0.378
0.364
0.203
0.032
0.075
-0.105
-0.182
-0.131
0.004
0.036
0.096
-0.030
-0.092
0.125
-0.047
-0.073
-0.040
-0.042
-0.046
0.122
0.239
-0.648
0.069
0.227
0.006
0.062
-0.073
-0.091
-0.026
0.104
-0.138
-0.158
0.070
-0.056
0.038
0.139
-0.018
-0.407
-0.050
0.048
0.005
-0.002
-0.011
0.036
-0.015
0.010
0.056
-0.085
0.008
-0.073
-0.064
-0.022
0.024
0.028
0.172
0.235
-0.799
-0.033
0.275
0.157
0.110
-0.088
-0.113
0.014
-0.068
-0.015
0.048
0.220
-0.492
-0.122
0.173
0.301
0.101
-0.040
-0.021
-0.217
-0.143
-0.119
-0.014
0.002
0.092
0.098
0.047
0.026
0.095
-0.149
-0.216
-0.011
0.003
0.143
0.267
-0.567
-0.085
0.138
0.073
0.010
-0.122
-0.189
-0.018
-0.040
0.013
0.071
0.004
0.027
-0.003
-0.005
0.009
-0.065
-0.010
-0.077
0.004
-0.035
-0.035
0.048
-0.013
-0.018
0.003
0.008
-0.031
-0.048
0.005
-0.026
-0.049
-0.163
-0.059
-0.032
0.095
0.043
-0.059
-0.044
0.005
-0.033
0.011
0.052
-0.056
-0.058
-0.154
-0.067
-0.086
0.069
-0.021
0.089
-0.022
-0.034
-0.047
-0.088
-0.057
-0.073
0.025
0.186
-0.146
-0.079
0.051
0.084
0.002
0.076
-0.052
-0.143
0.200
-0.270
-0.224
-0.085
0.074
0.334
-0.027
-0.451
0.099
0.433
-0.597
-0.120
0.192
0.215
-0.014
-0.224
0.064
0.144
-0.054
-0.690
0.149
0.554
-0.130
-0.448
0.101
0.198
0.157
-0.160
-0.124
-0.022
-0.019
-0.041
-0.021
0.019
0.112
0.055
0.057
-0.063
0.025
-0.071
-0.025
-0.087
0.166
-0.098
-0.025
-0.113
0.029
-0.022
0.056
-0.035
0.023
-0.039
-0.100
-0.015
-0.101
-0.020
-0.004
-0.020
-0.092
-0.044
-0.059
0.047
-0.133
-0.042
0.039
-0.029
-0.016
0.041
0.060
-0.020
-0.009
0.227
-0.465
-0.122
0.049
0.117
-0.058
0.013
0.064
-0.112
0.052
-0.038
0.028
0.016
0.030
-0.057
-0.032
-0.063
0.054
0.092
-0.074
-0.242
0.028
0.064
0.002
0.030
0.075
-0.123
-0.081
0.039
-0.005
-0.143
0.030
-0.073
0.005
-0.041
-0.018
0.040
-0.011
-0.069
0.358
-0.022
-0.668
-0.015
0.215
0.143
0.038
0.003
0.026
-0.040
-0.195
-0.229
0.259
0.095
0.062
-0.560
0.121
0.199
0.124
0.008
0.016
-0.038
-0.115
-0.023
-0.166
0.057
-0.038
0.030
0.046
0.065
0.080
-0.023
-0.061
-0.035
-0.037
-0.089
-0.057
0.050
-0.043
-0.028
-0.008
-0.004
0.003
0.086
0.140
-0.291
-0.100
0.077
0.039
-0.010
-0.003
-0.012
0.058
-0.044
0.084
0.015
-0.089
-0.124
0.126
0.392
-0.853
0.295
-0.111
-0.151
0.146
0.055
0.016
-0.073
-0.129
0.022
-0.008
-0.029
-0.019
-0.161
-0.011
-0.121
0.100
0.058
0.110
-0.033
-0.065
0.023
0.044
0.017
0.068
-0.188
-0.074
-0.060
0.076
-0.090
0.323
-0.183
-0.524
-0.015
0.181
0.078
0.064
0.278
-0.455
-0.187
-0.036
0.049
0.000
0.006
0.190
-0.014
-0.116
-0.005
0.069
0.103
0.031
-0.072
-0.041
0.042
-0.093
-0.062
0.043
-0.049
-0.133
-0.090
-0.057
0.011
-0.010
0.124
0.015
-0.098
-0.131
-0.067
-0.012
0.093
-0.026
0.214
-0.091
-0.643
0.015
0.156
0.212
0.043
0.204
-0.203
-0.175
0.146
-0.277
-0.234
0.143
0.139
0.058
-0.024
0.026
-0.072
0.149
-0.079
-0.348
0.073
0.112
0.122
-0.008
0.075
-0.013
-0.026
0.050
-0.028
-0.166
-0.087
-0.054
-0.168
0.043
0.133
0.027
-0.081
-0.104
-0.012
0.029
-0.051
0.025
-0.007
-0.038
0.017
-0.077
-0.118
0.050
0.178
-0.056
-0.062
-0.011
-0.002
-0.015
-0.112
0.025
-0.000
-0.058
0.071
0.016
-0.026
-0.069
-0.104
-0.126
0.007
0.074
0.078
0.260
-0.228
-0.148
0.089
0.104
-0.422
-0.180
0.117
0.350
0.258
-0.597
0.009
0.112
0.092
-0.141
0.356
0.413
-1.287
-0.212
0.398
0.315
0.050
-0.014
-0.126
-0.074
-0.121
-0.036
0.066
-0.065
-0.068
-0.067
0.073
0.035
0.069
-0.127
-0.040
-0.074
-0.029
-0.069
0.015
0.524
-0.677
-0.181
0.102
0.040
0.117
-0.011
0.003
0.088
-0.208
-0.082
0.038
-0.062
-0.001
-0.038
0.048
0.022
-0.004
0.217
-0.383
-0.311
0.033
0.096
0.061
0.047
-0.017
-0.065
-0.031
-0.074
-0.073
-0.003
0.113
-0.115
-0.027
0.123
-0.052
0.014
0.212
-0.254
-0.266
0.044
0.051
-0.061
-0.017
0.096
0.027
-0.022
-0.118
0.040
0.070
-0.069
-0.054
0.017
0.027
-0.154
-0.012
0.171
0.174
0.097
-0.394
-0.138
0.122
0.038
-0.084
-0.052
-0.093
0.002
-0.033
0.062
0.017
0.048
0.030
0.137
-0.003
-0.035
-0.111
-0.152
-0.082
0.025
-0.163
0.159
-0.016
0.037
0.012
-0.030
0.215
0.124
-0.644
-0.089
0.180
0.156
-0.043
-0.051
0.012
0.001
0.013
-0.019
0.437
-0.365
-0.182
-0.105
0.088
0.046
0.016
-0.052
-0.057
-0.027
0.009
0.025
0.402
-0.616
-0.070
0.117
0.079
0.006
0.018
0.320
-0.392
-0.428
0.124
0.136
0.015
-0.054
-0.131
0.002
0.031
0.116
-0.182
-0.167
0.107
0.074
-0.021
0.042
0.212
-0.561
-0.019
0.130
0.156
0.062
-0.116
-0.182
-0.046
0.027
0.224
0.062
-0.120
-0.356
-0.026
0.001
0.003
0.083
-0.085
-0.021
-0.069
0.031
0.015
-0.049
-0.028
-0.071
0.007
-0.067
-0.005
0.022
0.060
0.004
0.079
0.119
-0.331
0.181
-0.149
-0.010
0.336
-0.426
-0.351
0.194
0.072
0.059
-0.183
-0.051
-0.057
-0.073
-0.075
-0.068
0.041
-0.101
0.022
0.098
-0.037
0.064
0.015
-0.157
-0.075
0.059
-0.013
0.073
-0.020
-0.083
0.025
-0.081
0.035
0.118
0.177
-0.410
-0.140
-0.015
0.006
0.065
-0.011
-0.049
-0.033
0.066
-0.002
-0.121
-0.038
-0.031
-0.057
-0.076
0.032
0.003
0.019
0.056
-0.100
0.551
-0.651
-0.416
0.002
0.285
0.066
0.079
-0.014
-0.060
-0.019
-0.059
-0.029
0.348
-0.074
-0.558
0.118
0.234
0.180
0.038
-0.067
-0.019
-0.463
-0.135
0.023
0.111
0.101
-0.064
-0.095
-0.018
0.094
-0.060
-0.066
0.008
-0.019
0.026
0.142
0.145
-0.389
-0.403
0.184
0.190
0.020
0.017
-0.006
-0.005
-0.107
0.052
-0.052
-0.134
-0.105
0.060
0.022
-0.027
-0.034
-0.042
0.083
0.084
-0.011
-0.067
0.161
-0.141
-0.122
-0.081
-0.041
0.020
-0.127
0.035
0.251
-0.415
0.015
0.076
-0.048
-0.060
0.126
-0.407
-0.127
0.087
0.076
0.124
-0.008
-0.051
-0.164
0.003
0.048
-0.014
-0.095
0.153
-0.097
0.012
-0.066
0.036
0.129
0.101
-0.568
0.076
0.094
-0.074
0.027
-0.101
-0.039
-0.256
-0.128
0.358
-0.392
-0.107
0.128
0.071
-0.063
0.081
0.025
-0.077
0.260
-0.269
-0.522
0.081
0.123
0.067
0.086
-0.020
-0.139
-0.053
0.077
-0.017
-0.039
-0.047
-0.041
0.037
-0.081
-0.040
-0.006
0.050
-0.124
0.028
0.128
-0.166
-0.223
-0.005
0.119
0.016
0.022
-0.013
-0.095
-0.145
-0.094
-0.050
-0.009
0.073
0.066
0.020
-0.054
0.034
-0.072
-0.041
0.053
0.026
0.031
-0.155
-0.219
-0.086
0.215
0.135
-0.082
-0.100
-0.103
-0.058
-0.098
-0.028
-0.016
-0.035
-0.029
-0.097
0.026
0.103
-0.054
-0.118
0.000
0.090
0.012
0.082
-0.049
0.123
-0.289
-0.440
0.119
0.187
0.148
0.010
-0.050
-0.109
-0.083
0.015
-0.093
-0.033
0.092
-0.061
-0.006
-0.027
0.019
0.043
-0.022
-0.095
0.048
-0.109
-0.071
-0.012
0.015
-0.137
0.038
-0.070
0.282
-0.073
-0.564
-0.045
0.197
0.048
-0.016
-0.175
0.038
0.092
0.070
-0.158
-0.047
0.004
-0.144
-0.179
0.035
0.097
0.026
0.042
0.328
-0.661
-0.002
0.306
0.504
-0.732
-0.176
0.157
0.047
0.053
0.129
-0.104
-0.061
-0.010
0.057
0.200
-0.589
-0.168
0.043
0.110
0.093
0.105
-0.138
-0.105
0.044
0.236
-0.429
0.024
0.153
0.017
0.036
-0.048
-0.033
-0.248
0.111
0.014
-0.043
-0.049
-0.005
0.001
0.030
-0.120
-0.045
0.070
-0.029
0.042
-0.037
0.013
0.056
-0.108
-0.070
0.048
-0.008
-0.041
0.165
-0.194
-0.053
-0.085
-0.091
0.145
-0.118
-0.277
0.009
0.202
0.047
0.025
-0.116
-0.110
0.050
0.048
-0.111
-0.088
0.006
0.020
0.046
0.075
0.033
0.025
-0.106
0.128
-0.315
-0.013
0.158
-0.001
-0.109
-0.066
-0.057
0.020
0.121
0.032
-0.019
-0.079
-0.045
-0.029
0.113
0.002
-0.013
-0.071
-0.050
0.053
-0.020
-0.054
-0.022
-0.151
-0.089
0.061
-0.012
-0.045
-0.001
-0.012
-0.115
-0.204
0.059
0.186
0.019
-0.033
0.000
-0.004
-0.053
-0.006
0.040
0.144
0.076
-0.463
-0.267
0.093
0.247
0.150
0.089
-0.062
0.005
0.169
-0.438
-0.048
-0.478
0.005
0.409
0.285
0.120
-0.110
-0.124
-0.099
-0.221
-0.090
0.077
0.052
0.103
-0.052
0.017
-0.091
-0.075
-0.008
0.000
0.032
-0.091
0.020
0.084
0.041
-0.073
-0.043
0.013
0.482
-0.561
-0.434
0.141
0.156
0.016
0.010
-0.180
-0.138
-0.030
-0.077
0.007
0.041
0.007
0.209
0.016
-0.381
0.025
0.112
0.125
-0.084
-0.090
0.097
0.046
0.090
-0.041
0.019
-0.023
-0.037
-0.030
-0.045
-0.087
0.012
-0.098
0.183
-0.093
0.159
-0.498
-0.133
0.244
0.170
-0.072
-0.240
-0.095
-0.103
0.032
0.209
-0.259
0.048
0.063
0.089
0.011
-0.004
-0.227
-0.021
0.197
-0.014
0.060
0.031
-0.145
-0.010
0.003
0.037
0.080
0.016
-0.115
0.006
-0.087
-0.077
0.352
-0.352
0.064
0.014
-0.048
0.031
-0.071
-0.015
0.085
0.022
-0.087
-0.036
-0.027
-0.171
0.024
0.074
0.038
-0.073
0.011
-0.011
-0.055
-0.055
-0.053
0.050
-0.020
0.060
0.437
-0.651
-0.329
0.129
0.366
0.024
-0.179
-0.101
0.122
-0.056
-0.017
-0.002
-0.097
-0.091
-0.032
0.069
0.093
0.041
-0.212
-0.009
-0.018
0.061
-0.032
-0.098
0.029
0.329
-0.353
-0.508
0.133
0.114
0.093
-0.082
-0.056
0.000
-0.017
-0.006
0.024
0.008
0.015
-0.131
-0.033
0.362
-0.457
-0.362
0.172
0.136
0.102
-0.007
-0.066
0.053
-0.117
-0.076
-0.106
-0.069
-0.103
0.001
-0.052
0.019
-0.012
0.056
-0.017
-0.057
-0.089
0.051
-0.012
0.034
0.327
-0.638
-0.109
-0.025
0.161
0.087
0.032
-0.137
0.113
-0.140
-0.113
-0.158
-0.014
0.040
-0.021
0.040
-0.042
0.040
-0.032
-0.130
-0.053
0.206
-0.126
-0.242
0.076
0.121
-0.012
-0.001
-0.048
0.066
-0.072
0.147
-0.051
-0.252
-0.002
0.072
0.028
-0.059
-0.034
0.132
0.016
-0.053
-0.254
-0.125
-0.024
0.088
-0.014
0.104
0.002
-0.025
0.168
0.129
-0.403
0.185
-0.058
-0.101
0.191
-0.488
0.047
0.149
-0.014
0.004
0.064
0.114
-0.338
-0.128
0.076
0.051
-0.293
0.052
0.175
0.093
0.031
0.057
-0.103
-0.242
0.068
0.089
-0.020
-0.037
-0.041
-0.037
0.017
0.009
-0.014
0.014
-0.014
-0.170
-0.100
0.007
0.083
0.042
-0.191
-0.034
0.049
0.102
-0.017
-0.038
-0.110
-0.053
-0.024
0.136
0.043
0.059
-0.044
-0.081
-0.147
-0.063
-0.132
-0.076
0.023
0.066
0.038
-0.082
-0.006
-0.028
-0.046
-0.066
-0.031
-0.017
-0.031
0.179
0.026
0.056
0.007
-0.042
-0.051
-0.186
-0.160
-0.037
0.027
0.063
0.226
0.030
-0.501
0.014
0.112
0.109
-0.108
-0.070
-0.054
-0.122
-0.013
0.069
-0.113
0.067
0.008
0.238
0.155
-0.370
-0.069
-0.305
0.163
0.092
0.153
-0.022
-0.020
-0.176
-0.024
-0.038
0.001
-0.061
0.080
-0.072
-0.018
0.004
0.007
-0.006
0.009
0.225
-0.408
-0.009
0.038
0.205
0.073
-0.047
-0.114
-0.257
-0.103
0.024
0.025
0.034
-0.025
0.448
-0.538
-0.326
0.107
0.034
0.049
-0.068
0.159
-0.050
-0.143
0.053
-0.022
-0.060
-0.051
-0.015
0.005
-0.010
-0.023
0.059
0.053
-0.340
-0.065
0.156
0.067
0.024
-0.097
-0.060
-0.102
-0.069
-0.146
0.087
0.023
0.002
-0.018
-0.041
-0.083
-0.020
-0.064
0.024
-0.091
-0.006
0.058
0.098
-0.002
-0.334
-0.181
0.216
0.156
-0.078
-0.114
-0.004
-0.080
0.017
-0.028
-0.028
0.103
0.099
-0.058
-0.067
-0.214
-0.161
-0.052
0.072
0.062
-0.014
0.047
0.019
0.056
0.226
-0.318
-0.454
-0.113
0.237
0.110
0.158
0.090
-0.224
-0.059
0.034
-0.055
0.029
-0.088
-0.137
0.004
-0.015
0.077
-0.066
0.011
0.026
-0.004
0.028
-0.078
-0.072
-0.062
-0.100
0.044
0.209
-0.030
-0.079
0.038
-0.067
-0.126
-0.022
0.013
0.081
0.073
0.030
0.021
-0.070
-0.088
-0.104
0.089
0.070
0.114
-0.290
-0.025
0.186
-0.438
-0.310
0.288
0.057
0.246
0.193
-0.461
-0.665
0.095
0.273
0.088
0.046
-0.105
0.022
-0.046
0.022
0.350
-0.701
-0.048
0.345
-0.068
0.000
-0.025
0.039
0.066
0.057
-0.121
0.013
-0.054
0.018
-0.077
-0.147
0.009
0.075
0.193
-0.091
-0.139
0.032
-0.038
-0.128
-0.043
0.239
-0.296
-0.297
0.159
0.140
0.051
-0.034
-0.040
-0.112
0.008
0.001
-0.065
-0.031
0.010
-0.011
0.014
0.086
-0.016
0.004
0.024
-0.148
-0.010
0.125
-0.251
-0.019
0.197
0.145
-0.046
-0.105
-0.023
-0.096
-0.028
0.007
0.004
0.365
-0.315
-0.447
0.092
0.081
0.166
0.117
-0.237
-0.126
0.022
-0.106
-0.029
0.072
0.078
0.072
-0.066
0.096
-0.168
-0.039
-0.024
0.012
0.000
-0.041
-0.076
0.007
0.155
-0.151
-0.041
0.034
-0.025
-0.097
0.005
-0.110
0.033
0.057
-0.052
0.266
-0.093
-0.578
-0.071
0.156
0.119
0.059
-0.020
-0.042
0.203
-0.132
-0.486
-0.003
0.223
0.135
0.029
-0.092
-0.059
-0.106
-0.049
0.005
-0.062
-0.108
0.042
0.078
0.012
-0.066
-0.049
0.011
-0.004
0.067
0.070
0.323
-0.912
-0.271
0.217
0.188
0.070
0.073
-0.003
-0.078
-0.110
-0.087
0.031
-0.145
-0.080
0.028
0.150
0.065
0.019
0.087
0.036
-0.065
-0.053
-0.166
-0.237
0.029
0.149
0.013
-0.031
-0.026
0.012
0.465
-0.492
-0.288
0.115
0.003
-0.012
-0.098
0.051
-0.077
0.009
0.023
-0.043
0.320
-0.110
-0.670
0.148
0.189
0.124
0.072
0.062
0.052
0.247
-0.668
-0.111
0.199
0.171
0.017
-0.067
-0.064
-0.060
-0.066
-0.071
-0.048
0.064
-0.053
0.006
-0.009
-0.100
0.002
-0.025
-0.000
-0.025
-0.151
0.003
0.119
-0.053
-0.156
0.041
-0.218
0.020
0.046
-0.068
0.008
0.084
0.197
-0.251
-0.441
-0.099
-0.024
0.177
0.292
0.396
-0.683
-0.150
0.051
0.060
-0.012
0.116
-0.010
-0.162
-0.002
0.031
-0.027
0.036
0.032
-0.024
-0.225
0.016
0.116
0.220
-0.062
-0.107
-0.160
-0.018
-0.077
-0.113
-0.072
-0.031
0.075
0.065
-0.103
-0.112
-0.059
-0.062
0.055
0.003
0.047
-0.067
0.028
-0.007
-0.111
0.017
-0.010
-0.060
-0.100
-0.125
0.133
0.043
-0.042
0.119
-0.178
-0.164
-0.015
0.027
-0.001
-0.035
-0.024
-0.016
0.065
0.170
-0.171
-0.046
-0.059
0.044
-0.026
0.010
-0.126
0.063
-0.106
-0.008
0.061
0.044
0.032
-0.010
-0.085
-0.113
-0.066
0.021
0.250
0.080
-0.477
0.016
0.190
0.161
-0.067
-0.127
0.026
0.003
-0.208
0.038
-0.043
0.168
0.137
-0.698
0.294
0.453
-0.556
0.136
-0.012
-0.123
0.164
0.003
0.258
-0.503
-0.197
0.077
0.040
0.145
-0.048
-0.042
0.038
-0.049
-0.016
-0.116
0.010
0.128
0.235
0.089
-0.198
-0.451
0.047
0.123
0.031
-0.031
-0.001
0.020
-0.062
-0.104
0.007
-0.001
-0.004
0.434
-0.667
-0.264
0.259
0.194
0.090
0.019
-0.050
0.243
-0.374
-0.334
0.056
0.051
0.040
0.061
0.046
-0.108
-0.059
-0.017
-0.006
0.052
-0.032
0.068
-0.135
-0.120
0.055
-0.117
-0.119
0.125
0.124
0.168
-0.235
-0.159
-0.053
-0.017
-0.022
0.088
-0.104
-0.151
-0.096
0.020
0.017
0.133
0.101
-0.014
-0.095
-0.071
-0.047
0.038
0.021
-0.080
-0.099
0.094
-0.011
-0.009
-0.060
-0.014
-0.126
-0.051
0.118
0.076
0.019
-0.095
-0.082
-0.132
-0.030
-0.104
-0.025
0.043
0.141
-0.240
-0.023
-0.010
0.120
-0.078
-0.160
0.047
0.020
0.025
-0.087
-0.069
0.051
0.057
-0.010
0.004
-0.010
-0.092
0.051
-0.109
-0.066
0.050
0.011
-0.050
-0.107
0.002
0.011
-0.003
-0.172
0.075
-0.072
0.003
0.017
0.038
-0.007
-0.124
-0.048
0.179
0.012
-0.048
-0.085
0.285
-0.601
-0.379
0.271
0.246
0.120
-0.039
-0.000
0.215
-0.757
-0.078
0.226
0.237
0.262
-0.314
-0.392
0.151
0.106
0.236
-0.049
-0.091
0.155
-0.349
-0.381
-0.110
0.260
0.101
0.046
-0.051
-0.076
0.034
0.211
-0.293
-0.517
0.038
0.231
0.107
0.048
0.091
0.030
-0.214
-0.130
-0.067
-0.011
-0.069
0.088
0.046
-0.115
-0.013
0.095
-0.036
0.044
0.088
-0.262
-0.045
0.056
-0.077
-0.113
-0.073
0.214
-0.114
-0.231
0.079
-0.029
0.059
0.031
-0.047
0.048
-0.082
0.169
-0.113
-0.052
0.257
0.032
-0.515
-0.047
0.144
0.021
0.120
-0.063
-0.009
-0.067
-0.018
-0.095
-0.208
-0.085
0.068
0.069
-0.057
-0.021
-0.003
-0.052
-0.025
-0.005
-0.069
0.043
-0.017
0.015
0.006
-0.013
-0.072
-0.014
0.059
-0.124
-0.023
-0.076
0.040
-0.029
-0.034
-0.019
-0.037
-0.003
-0.041
-0.066
0.054
-0.019
-0.079
0.028
0.018
-0.052
-0.008
-0.073
-0.011
-0.020
0.011
-0.076
-0.037
0.166
-0.073
-0.144
0.025
0.033
-0.096
-0.066
-0.025
0.034
0.025
0.083
0.349
-0.846
-0.119
0.274
0.195
-0.017
-0.033
-0.116
-0.128
-0.074
-0.050
0.062
-0.060
-0.108
-0.080
0.064
0.020
-0.085
0.062
-0.006
-0.035
0.180
0.255
-0.534
-0.243
0.066
0.167
0.057
0.069
-0.033
-0.122
-0.044
-0.131
-0.004
-0.100
-0.027
0.028
-0.035
0.036
0.214
-0.365
0.075
0.135
-0.013
-0.077
-0.173
0.001
-0.044
-0.057
0.050
0.020
0.008
-0.062
0.009
-0.011
0.374
-0.418
-0.305
0.152
0.055
-0.015
0.286
0.156
-0.293
-0.162
-0.589
0.289
0.247
0.095
-0.054
-0.115
-0.149
-0.086
0.037
-0.030
0.073
-0.001
0.046
0.044
-0.165
-0.092
-0.196
0.132
-0.026
-0.008
-0.031
0.168
-0.087
-0.204
0.098
-0.022
-0.263
0.068
0.126
0.116
0.053
-0.016
-0.034
-0.039
-0.061
0.019
0.048
-0.098
-0.100
0.019
0.088
-0.068
-0.063
-0.073
0.096
0.012
-0.055
-0.065
0.140
-0.067
-0.261
0.430
-0.852
-0.140
0.268
0.216
0.046
-0.022
0.015
-0.126
-0.142
-0.022
0.093
-0.075
-0.018
0.107
0.089
0.012
-0.039
0.209
-0.278
-0.002
0.062
-0.005
0.030
0.029
-0.058
-0.107
-0.200
0.003
-0.046
0.092
0.015
0.086
-0.071
-0.017
-0.079
-0.046
0.113
-0.040
-0.073
0.137
-0.063
0.028
0.065
-0.045
-0.070
-0.041
-0.110
0.019
-0.003
-0.059
-0.076
-0.033
0.024
0.009
-0.044
-0.101
0.031
0.075
-0.085
0.001
0.059
-0.066
0.027
0.074
0.078
0.032
-0.466
-0.319
0.106
0.263
0.149
0.141
-0.078
-0.044
-0.123
-0.065
-0.052
0.096
0.201
-0.432
0.087
0.123
0.035
0.031
-0.022
0.017
-0.078
-0.180
0.057
-0.032
0.007
-0.063
-0.015
0.015
0.062
-0.039
-0.013
-0.146
-0.102
0.073
0.227
-0.281
-0.136
0.158
0.273
0.071
-0.488
0.030
0.073
0.084
-0.036
0.193
-0.270
-0.604
-0.135
0.048
0.131
0.349
-0.167
-0.160
-0.033
-0.107
-0.043
-0.047
0.490
-0.584
-0.291
0.184
0.279
0.111
0.054
-0.028
0.037
-0.288
-0.327
0.205
0.146
-0.007
-0.051
-0.014
-0.020
-0.047
-0.023
-0.029
-0.013
-0.075
-0.155
0.020
0.060
-0.119
-0.091
0.041
-0.008
-0.060
-0.044
-0.004
-0.075
-0.087
-0.050
-0.068
0.004
0.077
0.109
-0.148
-0.075
-0.007
0.022
0.060
-0.102
-0.130
-0.091
-0.152
-0.054
0.020
-0.031
-0.173
-0.002
0.090
0.048
-0.036
0.051
0.027
-0.062
0.001
-0.072
0.103
0.015
-0.047
-0.056
-0.082
0.038
-0.030
-0.068
0.015
-0.006
-0.154
-0.078
-0.044
0.021
0.027
-0.033
-0.087
-0.031
0.086
0.025
0.030
-0.219
0.086
0.087
-0.098
-0.025
0.070
-0.134
0.061
0.027
0.017
-0.030
-0.113
-0.193
-0.037
0.108
0.272
0.231
-0.282
-0.492
0.002
0.222
0.125
-0.049
-0.008
-0.026
-0.105
-0.106
-0.107
-0.069
0.048
0.027
0.008
-0.062
-0.030
0.210
-0.470
0.111
0.556
-0.640
-0.157
0.142
0.131
-0.138
-0.010
0.038
-0.041
0.002
-0.008
-0.187
-0.047
-0.037
0.111
0.070
-0.013
-0.036
-0.005
-0.114
-0.027
0.026
-0.095
0.070
-0.030
0.060
0.011
0.110
0.242
-0.329
-0.845
0.073
0.332
0.226
0.128
-0.101
-0.111
0.006
-0.111
-0.032
0.022
-0.039
-0.021
0.126
-0.080
-0.223
0.177
0.168
0.058
-0.334
-0.209
0.039
0.034
0.023
0.006
-0.086
-0.067
0.007
0.016
-0.076
0.050
0.151
-0.052
-0.024
-0.068
0.078
-0.025
0.008
-0.053
-0.096
0.027
-0.027
-0.094
-0.051
-0.112
-0.054
0.019
0.072
0.303
-0.338
-0.263
0.015
0.187
0.071
0.003
0.006
-0.028
-0.030
-0.046
-0.019
-0.097
-0.107
-0.035
0.018
0.069
0.101
-0.038
-0.035
-0.156
0.056
-0.103
0.093
-0.003
-0.265
0.120
0.202
0.051
-0.006
0.056
-0.067
0.016
0.015
-0.111
-0.090
-0.034
0.048
-0.142
-0.047
-0.002
-0.021
-0.115
0.003
-0.043
0.274
-0.148
-0.416
0.026
0.038
0.005
-0.041
-0.041
-0.008
0.077
0.038
-0.156
-0.082
0.013
-0.025
0.279
-0.274
-0.225
0.013
0.074
0.133
-0.096
-0.055
-0.106
-0.014
0.025
-0.002
-0.040
-0.017
0.224
-0.356
-0.055
0.030
0.147
0.017
0.056
0.236
-0.618
-0.270
0.226
0.109
0.167
-0.171
-0.148
-0.078
-0.111
-0.083
0.005
-0.028
0.013
-0.024
0.008
-0.017
-0.120
0.012
0.130
-0.131
-0.190
-0.154
-0.031
0.490
-0.192
-0.689
0.137
0.257
0.035
-0.026
0.009
-0.050
-0.091
0.010
-0.071
-0.029
-0.014
-0.100
0.002
0.053
-0.067
-0.015
0.044
-0.011
-0.103
-0.028
-0.187
-0.072
0.082
0.048
0.350
-0.191
-0.511
-0.152
0.190
0.353
-0.243
-0.141
0.180
0.014
0.000
-0.007
-0.051
0.037
0.012
0.035
-0.135
-0.086
-0.074
-0.068
0.049
0.043
0.034
-0.074
-0.064
0.052
-0.061
-0.084
-0.051
0.019
0.087
0.069
0.038
0.017
0.244
-0.135
-0.736
0.030
0.135
0.203
-0.009
0.004
0.153
-0.041
-0.110
-0.066
0.064
-0.099
-0.018
0.022
-0.013
0.017
0.011
-0.042
-0.100
-0.021
0.102
-0.005
-0.090
-0.016
0.016
0.008
-0.079
0.059
0.124
-0.208
-0.037
-0.025
0.075
0.020
-0.033
-0.006
-0.038
-0.130
-0.098
-0.132
0.032
-0.057
0.059
0.009
-0.001
-0.061
-0.072
0.045
0.051
-0.045
-0.030
-0.007
-0.033
0.026
-0.100
0.272
-0.317
-0.103
-0.277
0.075
-0.018
0.211
0.384
-0.195
-0.123
-0.108
0.264
-0.574
-0.124
0.124
0.166
0.058
-0.042
-0.171
-0.034
0.072
0.031
0.113
-0.184
-0.312
-0.002
-0.069
0.050
0.118
0.056
0.109
-0.024
-0.038
-0.049
-0.138
-0.075
-0.023
-0.002
-0.014
0.038
0.060
-0.096
0.054
-0.142
-0.043
-0.031
-0.085
0.098
-0.102
0.125
-0.047
-0.063
0.037
-0.147
-0.150
-0.012
0.137
0.231
-0.077
-0.548
0.242
0.216
0.002
0.136
-0.178
-0.043
-0.102
-0.023
0.117
0.428
-0.587
-0.449
0.225
0.192
-0.042
0.026
-0.149
-0.062
0.081
-0.195
-0.086
0.061
0.064
-0.038
-0.083
0.063
-0.121
-0.014
0.138
0.025
-0.079
0.177
-0.036
-0.657
0.066
0.197
0.144
0.041
-0.061
-0.074
-0.052
-0.020
-0.048
-0.138
0.039
-0.082
-0.054
0.075
0.014
-0.019
0.077
-0.033
0.032
-0.070
-0.036
0.028
-0.066
-0.051
-0.031
0.019
0.100
0.001
-0.114
-0.019
-0.030
0.061
0.085
-0.071
-0.152
-0.211
-0.086
0.005
-0.058
0.067
-0.001
0.029
0.025
-0.127
-0.104
0.031
0.009
-0.061
0.055
0.048
-0.025
-0.118
0.035
-0.003
0.018
0.022
0.082
-0.053
-0.130
-0.039
-0.041
-0.058
-0.045
-0.001
0.148
0.078
-0.109
-0.256
0.093
0.228
0.227
-0.255
-0.040
0.021
0.114
0.143
-0.654
-0.307
0.145
0.272
0.086
-0.037
-0.031
-0.165
-0.053
0.012
-0.052
0.131
0.009
-0.127
-0.142
-0.075
0.009
0.042
0.031
-0.059
0.014
0.025
0.532
-0.694
-0.216
0.041
0.177
0.059
0.107
-0.242
-0.153
0.101
0.100
0.009
0.116
-0.193
-0.134
0.078
0.041
0.392
-0.548
-0.231
0.190
0.079
0.001
-0.037
-0.044
0.013
-0.106
-0.153
-0.033
-0.118
0.029
-0.043
0.059
0.057
0.104
0.200
-0.586
0.053
0.053
0.046
-0.027
-0.057
0.125
-0.202
-0.087
-0.049
0.029
0.087
-0.096
-0.039
-0.055
-0.019
0.067
0.017
-0.035
-0.053
-0.061
0.065
-0.060
-0.018
-0.086
-0.141
-0.003
0.043
0.061
0.042
-0.180
-0.071
-0.033
-0.075
-0.040
0.079
0.099
-0.313
-0.021
0.130
0.042
0.117
-0.043
-0.045
-0.044
-0.122
0.017
-0.034
-0.107
-0.074
-0.050
0.030
-0.075
0.006
-0.035
-0.005
-0.022
0.233
-0.461
-0.271
0.048
0.198
0.022
0.039
-0.015
-0.016
-0.027
-0.039
-0.033
0.009
-0.057
-0.022
0.006
-0.130
0.003
0.105
0.209
0.068
0.156
-0.476
-0.498
-0.012
0.278
0.243
0.163
0.065
-0.401
-0.438
0.102
0.083
0.032
0.066
-0.012
-0.025
0.019
-0.037
-0.125
-0.075
-0.029
-0.024
0.159
0.121
-0.204
-0.001
-0.030
-0.061
-0.082
-0.082
0.015
0.047
-0.038
-0.019
-0.053
-0.125
-0.055
0.008
0.027
0.235
-0.453
-0.243
0.107
0.212
0.168
-0.218
-0.056
-0.001
-0.116
0.016
0.027
-0.090
-0.067
-0.083
-0.039
-0.071
-0.025
-0.057
-0.024
0.030
-0.050
0.018
-0.023
-0.105
-0.010
-0.032
-0.153
-0.008
0.093
-0.008
-0.050
-0.041
-0.053
0.449
-0.536
-0.264
0.137
0.159
-0.004
-0.049
-0.164
-0.087
-0.059
0.009
0.033
-0.071
-0.143
-0.057
-0.099
-0.029
-0.004
0.050
-0.042
-0.031
-0.084
-0.052
-0.053
0.136
0.313
-0.516
-0.173
0.209
-0.012
0.047
-0.040
-0.053
-0.023
0.027
-0.100
-0.156
0.067
0.127
0.112
-0.089
-0.179
0.022
-0.063
-0.061
0.054
-0.202
0.006
0.082
0.050
0.041
-0.043
-0.107
0.043
-0.105
-0.115
0.018
-0.005
-0.009
-0.051
0.016
0.153
-0.161
-0.127
0.180
0.117
-0.594
-0.097
0.137
0.141
0.119
0.006
0.008
-0.127
-0.014
0.070
0.111
-0.131
-0.223
0.089
0.309
-0.169
0.034
-0.352
0.039
0.185
-0.010
-0.042
-0.136
-0.025
-0.013
-0.075
-0.080
0.031
-0.047
-0.051
-0.095
0.093
0.087
-0.028
-0.152
0.170
-0.312
0.077
0.463
-0.588
-0.274
0.155
0.200
0.190
0.052
-0.131
-0.084
-0.053
-0.100
-0.029
0.023
0.134
0.049
-0.047
0.011
-0.035
-0.047
-0.077
-0.021
-0.066
0.259
0.070
-0.569
0.062
0.216
0.081
-0.088
0.014
0.104
-0.036
-0.011
-0.072
-0.101
-0.214
-0.030
0.044
0.011
0.047
-0.012
0.013
0.079
-0.004
-0.096
0.059
-0.005
-0.113
-0.051
0.065
0.027
-0.007
-0.030
0.089
-0.034
-0.092
-0.019
-0.012
-0.039
-0.014
0.164
-0.114
-0.213
-0.010
0.092
-0.004
0.008
0.007
0.313
-0.603
-0.100
0.166
0.158
0.066
0.117
0.003
-0.112
-0.002
0.006
-0.026
-0.043
0.074
-0.013
-0.001
-0.051
-0.172
-0.130
0.144
-0.151
-0.548
0.172
0.335
0.259
0.014
-0.080
-0.037
-0.216
-0.218
0.012
0.040
0.096
0.067
0.019
-0.014
-0.041
-0.133
-0.070
0.053
-0.051
0.025
0.067
0.012
-0.233
0.091
0.388
-0.441
-0.143
-0.007
0.110
0.142
-0.011
-0.065
-0.051
-0.116
0.010
0.060
0.007
-0.073
-0.096
0.000
0.025
-0.074
0.007
-0.040
-0.053
-0.057
0.016
0.011
-0.033
0.094
0.045
-0.276
-0.125
0.067
0.030
-0.017
0.213
-0.053
-0.082
0.264
-0.577
-0.043
-0.231
0.011
0.208
0.067
-0.042
-0.077
-0.063
-0.037
-0.051
0.029
0.083
0.086
0.071
0.011
-0.127
0.117
-0.169
-0.072
0.093
0.366
-0.495
-0.211
0.052
0.004
0.010
-0.041
-0.017
-0.002
-0.083
-0.129
0.011
0.123
-0.122
-0.069
0.062
0.046
-0.052
0.029
-0.001
-0.021
-0.156
0.002
-0.040
0.025
-0.101
-0.137
-0.053
-0.012
0.055
0.007
0.309
-0.359
-0.278
0.077
0.082
0.038
0.048
0.496
-0.698
-0.121
0.112
0.178
0.016
-0.033
-0.035
-0.028
-0.054
-0.048
-0.035
-0.068
-0.005
0.108
-0.110
-0.112
0.053
0.031
-0.035
-0.016
0.102
0.351
-0.607
-0.083
0.190
0.008
-0.021
0.027
-0.013
-0.028
-0.145
-0.163
-0.036
-0.002
-0.087
-0.070
-0.071
0.020
0.128
-0.033
-0.123
0.127
-0.041
-0.097
0.021
0.002
-0.058
0.035
0.212
-0.150
-0.328
-0.028
0.067
0.206
-0.070
-0.022
-0.058
0.130
-0.049
-0.284
0.007
0.047
-0.084
-0.100
0.078
0.089
0.063
-0.042
0.022
-0.031
-0.132
-0.269
-0.061
0.102
0.145
0.130
-0.185
-0.014
0.016
-0.084
-0.033
-0.088
-0.081
-0.018
-0.057
0.102
0.090
-0.039
-0.243
-0.023
0.034
0.002
-0.131
-0.002
0.061
0.052
-0.026
-0.092
-0.044
-0.018
0.103
-0.031
-0.368
0.065
0.108
0.055
0.035
-0.045
-0.108
0.097
0.394
-0.390
-0.484
0.072
0.067
0.022
0.154
-0.005
-0.059
-0.076
-0.049
-0.063
0.005
-0.105
0.036
0.007
-0.011
-0.115
-0.082
-0.024
0.032
0.146
0.073
0.150
-0.022
-0.496
0.110
0.274
-0.252
-0.269
0.195
0.120
0.000
-0.002
-0.116
-0.002
-0.210
-0.086
0.035
-0.095
-0.045
0.016
0.384
-0.215
-0.415
0.070
0.107
0.074
-0.005
-0.012
-0.024
-0.151
-0.033
-0.029
-0.101
0.035
0.003
0.012
-0.102
-0.037
0.052
0.032
0.002
-0.031
-0.031
0.028
-0.066
0.023
-0.023
-0.027
-0.019
0.112
-0.100
-0.019
-0.122
-0.046
-0.074
0.093
-0.104
-0.033
0.036
-0.051
0.000
-0.053
0.055
-0.147
-0.025
-0.045
-0.048
0.077
0.361
-0.322
-0.384
0.020
0.159
0.061
0.131
0.234
-0.431
-0.329
-0.025
0.011
-0.040
0.027
0.021
0.015
-0.070
-0.129
0.209
-0.119
-0.044
-0.024
0.075
-0.137
0.091
0.036
-0.052
0.044
-0.050
-0.008
0.078
0.011
-0.007
-0.107
-0.017
0.093
-0.036
0.082
-0.125
-0.068
-0.081
0.323
-0.377
-0.139
0.028
0.067
-0.002
-0.014
-0.049
0.101
-0.065
-0.083
-0.123
-0.010
-0.070
-0.044
0.004
-0.053
0.036
-0.035
0.185
-0.149
-0.533
0.139
0.321
0.114
-0.101
-0.148
-0.149
-0.114
0.040
0.025
0.018
0.022
0.124
0.193
-0.276
-0.421
-0.002
0.137
0.142
-0.012
0.049
0.033
-0.115
-0.014
-0.045
0.012
-0.077
-0.017
0.096
0.036
-0.037
-0.039
-0.090
-0.104
-0.049
-0.036
-0.178
0.193
0.282
-0.497
-0.139
0.113
0.051
0.049
-0.135
-0.002
0.016
-0.095
-0.025
0.061
0.013
0.046
-0.016
0.044
0.067
0.286
-0.058
-0.733
0.045
0.335
-0.174
0.041
0.011
-0.054
-0.241
-0.068
0.148
-0.028
-0.048
-0.069
-0.196
-0.001
0.180
0.013
0.036
0.189
-0.165
-0.144
-0.042
0.002
-0.003
-0.009
0.048
-0.100
-0.013
0.178
0.222
-0.266
-0.120
0.128
0.066
0.005
-0.087
-0.024
-0.049
0.070
-0.143
0.038
0.019
-0.093
-0.025
0.018
0.091
0.121
-0.302
-0.089
-0.041
0.055
0.058
0.023
-0.072
-0.037
-0.004
-0.054
0.041
-0.098
-0.052
0.040
0.268
0.056
-0.614
0.016
0.149
0.095
-0.059
-0.033
-0.015
-0.037
-0.109
-0.021
0.015
0.032
0.062
-0.213
0.001
0.058
0.052
0.410
-0.447
-0.408
0.217
0.208
0.165
-0.172
0.139
0.165
-0.165
-0.235
-0.159
-0.209
0.013
0.158
0.122
0.052
0.010
-0.083
-0.151
-0.051
-0.024
0.062
-0.041
0.018
-0.002
0.228
-0.071
-0.065
0.004
0.042
0.040
-0.016
-0.117
-0.476
0.107
0.182
0.111
0.084
-0.066
-0.151
-0.011
-0.083
-0.050
0.000
0.003
0.012
0.010
-0.019
-0.051
-0.053
0.060
0.024
-0.062
-0.026
0.005
-0.031
-0.085
-0.048
0.004
0.204
-0.461
-0.370
0.225
0.194
0.000
-0.059
-0.020
-0.092
-0.107
0.049
-0.063
-0.033
0.040
0.019
-0.093
0.068
0.067
0.009
0.060
0.071
-0.010
-0.103
-0.069
0.072
-0.060
0.006
0.089
-0.356
0.076
0.004
-0.028
-0.024
0.066
-0.174
0.029
-0.042
-0.069
0.355
-0.612
-0.162
0.112
0.293
0.091
-0.222
-0.003
0.050
-0.090
-0.083
0.075
-0.013
-0.128
0.215
-0.280
-0.109
0.118
0.207
-0.481
-0.175
0.283
0.105
0.033
-0.169
-0.019
0.039
-0.341
-0.014
0.121
0.063
0.031
0.010
-0.050
0.053
-0.051
0.018
0.077
-0.106
-0.150
0.079
0.030
0.064
-0.130
0.007
0.135
0.000
-0.085
-0.023
0.008
-0.121
0.011
-0.039
-0.125
-0.122
0.318
-0.367
-0.069
0.061
0.063
0.380
-0.380
-0.201
0.056
-0.029
0.011
0.008
-0.168
-0.201
-0.002
-0.033
0.139
0.103
0.014
-0.061
-0.026
0.000
0.001
-0.081
-0.123
-0.029
-0.095
0.019
0.131
-0.030
-0.072
0.059
-0.093
-0.129
-0.127
0.048
-0.070
0.024
-0.011
0.029
0.056
-0.168
-0.185
0.081
-0.045
0.060
0.103
-0.085
0.136
0.174
-0.668
0.095
-0.009
0.050
0.140
0.094
-0.046
-0.075
-0.063
-0.104
0.086
-0.013
0.051
-0.066
-0.054
-0.010
0.143
0.120
-0.530
0.024
0.130
0.079
0.053
0.054
0.255
-0.785
-0.032
0.146
0.159
0.007
0.025
-0.132
-0.058
-0.100
-0.024
-0.004
-0.037
0.042
-0.151
-0.049
-0.001
0.013
0.154
0.055
0.004
-0.064
-0.102
-0.106
-0.015
0.035
0.122
0.158
-0.302
-0.158
0.032
0.087
0.053
-0.014
-0.034
-0.132
-0.078
0.159
-0.130
-0.221
-0.005
0.081
0.081
-0.082
0.026
-0.044
-0.139
-0.092
-0.044
0.006
-0.016
0.019
-0.018
-0.026
0.027
-0.090
0.000
-0.119
-0.080
0.109
0.009
-0.092
0.043
0.007
0.011
0.024
0.006
-0.003
-0.129
-0.028
0.066
0.064
-0.072
-0.130
-0.099
-0.129
-0.015
0.053
0.074
-0.053
-0.034
-0.063
-0.002
-0.001
-0.083
-0.026
-0.003
0.057
-0.030
-0.027
0.009
-0.008
-0.060
-0.158
-0.096
0.044
0.012
0.065
0.327
-0.290
-0.224
0.177
0.208
-0.505
0.018
0.314
0.120
-0.011
0.216
-0.118
-0.469
0.101
0.171
0.086
-0.002
-0.046
0.227
-0.178
-0.338
-0.312
0.128
0.223
0.073
0.013
-0.075
-0.007
-0.108
0.069
-0.187
0.018
0.042
0.054
0.006
0.063
0.034
-0.174
-0.078
-0.028
0.020
0.112
0.058
-0.089
-0.101
-0.286
0.013
0.000
0.093
0.024
0.199
-0.046
-0.302
-0.038
0.373
-0.564
0.028
0.229
0.024
-0.029
0.023
-0.082
-0.083
0.007
0.069
-0.337
-0.048
0.018
0.001
0.082
0.105
0.006
0.046
-0.098
-0.050
-0.163
0.002
-0.017
0.033
0.065
-0.034
0.098
-0.224
-0.128
0.009
0.048
-0.038
-0.016
-0.207
-0.074
0.041
0.251
-0.015
-0.412
0.025
0.254
0.089
-0.037
-0.136
-0.147
0.059
-0.012
-0.016
0.063
0.092
-0.009
-0.034
-0.002
0.002
-0.077
-0.054
0.060
-0.057
-0.091
-0.098
-0.130
-0.035
0.130
-0.097
0.011
0.038
-0.024
-0.049
-0.055
-0.030
-0.002
-0.039
-0.109
0.026
0.088
-0.006
-0.064
0.013
0.014
-0.038
0.460
-0.608
-0.242
0.091
0.084
0.032
0.024
0.024
-0.014
-0.093
-0.034
-0.070
0.034
0.153
-0.204
-0.164
0.035
-0.116
0.181
0.074
-0.320
0.080
0.117
-0.188
0.051
-0.008
-0.042
-0.098
-0.032
-0.045
0.031
0.042
-0.038
-0.023
-0.061
0.021
-0.054
-0.038
-0.030
-0.040
0.020
0.011
-0.006
0.013
-0.080
0.041
0.139
-0.298
-0.203
0.293
0.388
-0.673
-0.127
0.008
0.195
-0.003
-0.088
-0.039
-0.075
-0.037
0.080
0.021
-0.053
0.027
0.048
-0.088
-0.188
-0.038
0.096
0.022
-0.112
0.007
0.096
0.293
-0.569
-0.227
0.161
0.376
-0.019
-0.514
0.152
0.325
0.162
-0.092
0.061
-0.090
-0.266
-0.017
0.125
0.094
0.017
-0.088
-0.076
-0.046
-0.080
0.038
0.210
-0.477
-0.042
0.125
0.029
-0.000
0.077
-0.131
-0.090
-0.011
0.048
-0.034
-0.079
0.002
0.008
-0.048
-0.152
-0.060
0.027
-0.010
0.005
0.040
-0.069
0.173
-0.261
-0.131
0.037
0.017
0.017
-0.018
0.046
-0.051
-0.019
-0.034
0.015
-0.041
0.405
-0.422
-0.434
0.102
0.235
0.055
0.010
-0.070
-0.140
-0.040
-0.075
-0.055
-0.008
0.043
-0.119
0.167
-0.068
-0.157
-0.114
0.067
0.055
-0.031
-0.052
-0.120
0.011
0.042
0.047
-0.102
-0.046
-0.110
-0.117
-0.079
0.098
-0.016
0.008
0.076
0.050
-0.055
-0.105
-0.127
-0.027
-0.055
-0.007
0.002
0.251
0.151
-0.629
0.031
0.188
0.118
-0.022
-0.091
-0.102
-0.113
-0.071
0.060
0.027
0.101
0.120
-0.339
-0.066
0.080
0.075
-0.058
0.036
0.052
-0.044
0.006
-0.131
0.013
-0.010
0.050
-0.066
-0.022
-0.032
0.004
0.100
-0.011
-0.111
-0.038
0.227
-0.068
-0.488
0.059
0.226
0.143
0.028
0.006
-0.055
-0.084
-0.137
0.030
-0.067
-0.015
0.026
0.332
-0.542
-0.173
0.288
0.115
-0.008
0.028
-0.021
-0.057
-0.036
-0.033
-0.070
0.049
0.141
0.052
-0.061
0.052
0.053
-0.240
-0.072
0.211
-0.127
-0.013
0.088
-0.001
0.396
-0.505
-0.191
-0.436
0.127
0.350
0.047
0.068
-0.056
-0.142
-0.062
0.050
-0.031
-0.039
0.029
0.261
-0.298
-0.267
0.303
0.045
-0.409
0.128
0.143
0.183
-0.334
-0.179
-0.046
0.060
0.030
-0.029
-0.039
-0.003
-0.060
-0.119
-0.053
-0.049
-0.063
-0.006
0.103
0.090
-0.070
-0.027
-0.142
-0.144
0.073
-0.036
0.106
-0.109
-0.023
-0.033
0.025
-0.012
0.035
0.013
-0.037
-0.009
-0.094
-0.081
-0.020
0.021
-0.038
0.009
-0.136
-0.042
-0.106
-0.046
-0.010
0.011
-0.004
0.037
-0.144
-0.117
-0.067
-0.033
-0.065
-0.073
-0.024
-0.042
0.026
0.109
-0.061
-0.035
-0.066
-0.016
0.200
-0.108
-0.444
0.133
0.119
0.096
-0.028
0.128
-0.003
-0.073
-0.068
-0.116
-0.047
-0.059
0.059
-0.029
-0.087
0.056
0.152
-0.270
-0.041
-0.073
0.020
0.130
-0.077
0.016
-0.056
-0.032
0.040
-0.077
-0.040
0.007
0.004
-0.016
0.110
0.459
0.031
-1.152
0.279
-0.190
-0.049
0.357
0.046
-0.226
-0.122
0.002
-0.048
-0.022
-0.009
0.023
-0.147
-0.159
0.020
0.110
0.071
-0.022
-0.049
-0.035
-0.069
0.014
-0.041
-0.037
0.082
-0.018
-0.021
-0.056
-0.063
-0.072
0.082
0.072
0.010
-0.459
0.124
0.069
-0.043
0.048
0.196
-0.412
-0.223
-0.048
0.171
0.162
0.081
-0.085
-0.077
-0.238
-0.173
-0.162
0.089
0.077
0.106
0.116
-0.029
-0.061
-0.109
-0.176
-0.027
-0.148
0.018
0.013
0.043
0.049
0.045
-0.094
-0.150
0.029
-0.070
-0.060
-0.023
0.046
-0.112
0.043
-0.002
-0.081
-0.008
0.044
0.031
-0.004
-0.053
-0.159
-0.067
0.043
-0.052
-0.006
0.097
0.125
-0.316
0.046
0.072
0.010
0.010
-0.094
0.019
-0.064
0.414
-0.432
-0.477
0.111
0.173
0.050
0.058
0.065
0.059
-0.425
-0.160
0.017
-0.065
0.054
0.040
0.048
0.104
0.034
0.084
-0.138
0.069
0.405
-0.461
-0.349
-0.191
0.193
0.204
0.056
-0.040
-0.087
-0.096
-0.139
-0.007
-0.080
-0.061
-0.075
0.138
0.086
-0.022
-0.126
-0.044
-0.073
-0.015
0.030
-0.122
0.279
-0.326
-0.295
0.066
0.152
0.048
0.023
-0.035
-0.000
-0.080
-0.047
-0.016
0.080
-0.019
0.058
0.009
-0.046
-0.017
-0.024
0.040
-0.231
0.027
-0.041
0.047
0.054
0.129
0.034
-0.170
-0.127
-0.081
-0.175
-0.126
0.016
0.132
0.031
-0.010
-0.039
-0.111
-0.115
-0.079
-0.106
-0.002
-0.026
0.080
0.019
0.020
0.053
-0.070
0.209
-0.120
0.089
-0.572
0.111
0.504
-0.202
-0.267
0.097
-0.098
0.105
-0.059
-0.150
-0.018
0.075
0.015
-0.067
-0.042
0.062
-0.038
-0.043
-0.030
-0.063
-0.014
0.078
-0.011
-0.006
0.026
-0.045
-0.279
-0.007
0.084
0.134
0.035
-0.022
-0.117
-0.175
0.040
0.023
-0.073
-0.030
-0.017
0.010
0.079
-0.072
-0.068
0.000
-0.071
-0.072
-0.030
-0.000
-0.013
0.065
-0.062
0.070
0.306
-0.709
0.004
0.167
0.078
0.030
-0.064
-0.070
0.009
-0.349
0.000
0.055
0.019
-0.008
0.055
0.035
-0.077
-0.077
-0.054
0.065
-0.110
-0.024
-0.056
0.036
-0.036
-0.009
-0.050
-0.061
-0.002
-0.016
0.027
0.012
0.023
0.025
-0.119
-0.045
0.017
-0.120
-0.063
-0.033
0.130
0.226
-0.296
-0.604
0.029
0.242
0.114
-0.023
-0.052
-0.069
-0.046
-0.051
-0.005
-0.067
0.015
0.066
-0.027
-0.128
-0.119
0.200
-0.161
-0.198
0.135
0.098
-0.027
0.009
-0.099
-0.102
0.151
-0.152
0.340
-0.398
-0.214
0.163
0.128
-0.050
-0.021
-0.000
-0.051
-0.083
-0.031
-0.058
-0.009
-0.177
-0.011
-0.006
-0.072
0.049
0.005
0.099
-0.005
-0.056
0.126
0.184
-0.074
-0.498
-0.013
0.122
0.109
0.020
-0.008
-0.059
-0.037
-0.019
0.045
0.022
0.065
-0.129
0.038
-0.061
-0.023
-0.009
0.054
0.062
0.542
-0.639
-0.837
0.159
0.312
0.180
-0.024
-0.055
-0.088
-0.010
-0.129
-0.032
0.007
0.474
-0.232
-0.356
0.061
0.129
0.171
0.004
-0.097
0.078
0.025
-0.103
-0.188
0.065
-0.125
-0.110
0.061
0.095
-0.034
0.104
-0.289
-0.119
-0.040
0.104
0.066
0.092
-0.116
-0.045
-0.054
-0.011
-0.055
0.005
0.044
-0.029
0.032
-0.033
0.026
-0.049
-0.038
0.033
0.043
-0.015
-0.153
0.010
0.023
0.112
-0.256
-0.145
0.037
0.138
0.149
-0.176
-0.069
0.084
-0.230
-0.178
0.054
-0.027
0.087
-0.062
0.109
-0.030
-0.039
-0.102
-0.125
0.020
-0.008
0.033
0.025
-0.033
0.090
0.353
-0.341
-0.697
0.097
0.409
0.161
-0.003
-0.086
-0.036
-0.060
-0.100
-0.079
0.070
0.006
-0.019
-0.012
-0.027
0.077
-0.023
-0.073
-0.036
-0.006
0.049
-0.091
-0.048
-0.032
0.035
0.079
0.032
-0.042
-0.016
-0.230
-0.154
0.003
0.117
0.128
-0.056
-0.125
0.033
0.355
-0.510
-0.406
0.096
0.245
0.050
0.015
-0.022
-0.136
0.096
-0.051
-0.064
-0.027
-0.073
0.072
-0.419
-0.010
0.099
0.073
0.028
0.052
-0.087
-0.044
-0.072
0.027
0.005
-0.189
0.047
-0.040
0.126
0.156
-0.053
0.027
-0.059
-0.012
0.045
0.076
-0.310
0.055
0.038
-0.045
0.119
0.256
-0.256
-0.468
-0.137
0.041
0.169
0.133
-0.041
0.048
0.135
-0.623
0.009
0.128
0.059
0.034
-0.188
0.034
0.460
-0.529
-0.216
0.220
0.326
0.023
-0.163
-0.174
-0.158
-0.229
-0.091
0.103
0.216
-0.023
0.036
0.000
-0.039
0.033
-0.009
-0.076
-0.091
-0.017
-0.004
0.026
0.089
0.036
-0.039
0.074
0.077
-0.068
-0.182
-0.039
-0.056
0.029
0.032
-0.018
-0.041
-0.049
-0.089
0.003
0.012
-0.005
0.088
-0.038
0.005
0.046
-0.075
-0.073
0.080
-0.022
0.082
0.100
0.163
-0.628
-0.070
0.068
0.110
-0.014
-0.000
-0.119
0.466
-0.441
-0.756
0.054
0.362
0.189
0.032
-0.117
-0.075
-0.001
-0.020
0.102
-0.004
-0.161
-0.033
0.076
0.057
0.163
-0.024
-0.257
-0.030
0.017
0.076
-0.046
-0.081
-0.076
-0.016
-0.067
0.036
0.045
-0.089
-0.171
-0.032
-0.021
0.056
0.072
0.048
0.017
0.003
-0.002
-0.003
0.059
0.162
-0.357
-0.114
0.093
0.156
-0.026
-0.040
-0.064
-0.035
-0.075
-0.028
-0.114
-0.182
0.020
0.028
0.070
0.055
0.040
-0.109
-0.001
-0.138
-0.169
-0.082
-0.015
0.070
0.003
0.119
-0.054
-0.083
0.016
-0.099
-0.074
-0.087
-0.069
-0.005
0.071
0.020
0.044
0.035
-0.077
-0.041
-0.038
-0.056
0.109
0.020
-0.108
-0.004
-0.073
-0.237
0.020
0.031
0.050
0.035
0.033
0.152
0.153
-0.671
-0.086
0.110
0.139
0.087
0.015
-0.103
-0.002
-0.046
-0.058
-0.110
-0.029
-0.000
-0.019
0.896
-0.848
-0.863
0.305
0.447
0.219
0.146
-0.136
-0.161
-0.073
-0.092
-0.116
0.061
-0.011
0.025
0.037
-0.134
-0.105
-0.042
-0.017
0.007
0.066
0.095
-0.028
0.011
-0.098
-0.153
-0.070
0.014
0.232
-0.006
-0.502
0.171
0.265
0.061
-0.048
-0.088
0.039
-0.050
-0.034
0.139
-0.208
-0.004
0.047
-0.070
-0.031
0.131
-0.054
-0.035
-0.048
0.166
0.141
-0.550
0.099
0.331
-0.379
0.077
0.081
0.154
0.048
-0.001
-0.036
-0.058
-0.287
-0.217
-0.099
0.087
0.211
0.059
-0.013
0.012
-0.127
-0.140
-0.024
-0.082
0.061
0.022
0.017
-0.091
0.072
-0.023
0.008
0.112
-0.338
-0.041
0.061
0.075
-0.029
0.002
0.110
-0.136
-0.213
-0.027
0.055
-0.005
0.020
-0.005
-0.085
0.038
-0.081
0.043
-0.152
-0.088
0.012
0.005
0.066
0.131
-0.011
-0.332
0.107
0.096
0.018
-0.084
-0.071
0.076
-0.055
-0.015
0.025
-0.031
-0.094
-0.075
-0.126
-0.035
0.062
0.075
-0.023
-0.066
-0.079
-0.015
-0.037
0.452
-0.203
-0.560
0.099
0.292
-0.087
0.007
-0.012
-0.021
-0.041
0.054
-0.140
0.025
-0.235
-0.053
0.077
-0.035
0.364
-0.211
-0.426
0.064
0.150
0.095
0.006
-0.042
-0.146
-0.158
-0.029
0.148
-0.005
-0.027
0.079
0.016
-0.058
0.405
-0.633
-0.394
0.207
0.111
0.222
-0.020
-0.105
-0.072
-0.103
-0.023
-0.027
0.001
-0.037
0.031
0.032
-0.110
-0.012
0.100
-0.030
-0.094
-0.120
-0.109
-0.047
-0.119
0.064
0.042
0.055
0.072
0.081
0.228
-0.715
-0.008
0.109
0.095
0.069
-0.056
0.015
-0.034
0.091
-0.172
-0.032
-0.052
0.099
-0.021
-0.000
0.145
-0.473
-0.011
0.045
-0.022
-0.013
-0.013
0.049
0.163
-0.219
-0.167
0.055
-0.046
-0.007
0.124
-0.100
-0.067
0.035
0.038
0.043
-0.127
-0.048
0.381
-0.244
-0.643
0.132
0.247
0.114
-0.010
-0.101
-0.067
0.070
-0.072
-0.038
-0.068
0.037
0.540
-0.583
-0.278
-0.037
0.161
0.202
0.114
-0.146
-0.042
-0.139
-0.026
-0.054
0.019
-0.051
-0.036
-0.015
-0.090
-0.010
-0.018
0.069
0.026
-0.027
-0.018
-0.006
-0.035
-0.094
-0.108
-0.092
0.054
0.050
0.110
-0.077
-0.029
-0.036
0.007
-0.100
-0.070
0.003
0.002
0.023
-0.063
-0.053
-0.056
-0.092
-0.054
-0.103
0.024
0.059
0.052
-0.040
-0.013
0.133
-0.307
-0.048
0.051
0.063
0.051
-0.034
0.058
-0.007
-0.225
-0.125
0.010
-0.027
0.032
0.125
0.216
0.028
-0.581
-0.120
0.160
0.072
-0.014
0.059
-0.069
0.041
0.003
-0.104
-0.072
-0.110
0.037
0.038
0.007
-0.078
-0.038
-0.075
0.440
-0.450
-0.244
0.160
0.148
0.038
0.041
-0.086
-0.051
-0.044
-0.085
-0.027
-0.036
0.112
-0.005
0.094
-0.050
-0.149
0.034
-0.074
-0.078
-0.067
-0.054
-0.046
-0.043
0.024
0.061
0.575
-1.086
-0.200
0.317
0.400
-0.110
-0.079
-0.066
-0.462
-0.059
0.108
0.231
0.411
-0.753
-0.368
0.133
0.199
0.181
0.052
-0.105
-0.002
0.016
0.032
0.035
-0.045
-0.039
0.060
-0.175
-0.033
-0.027
-0.003
-0.005
-0.015
-0.079
-0.014
-0.279
0.047
0.067
0.064
-0.013
-0.086
-0.041
-0.060
0.012
0.013
0.025
-0.094
-0.014
-0.092
0.060
0.054
-0.063
-0.085
0.056
0.015
0.040
-0.202
-0.161
-0.153
0.050
0.005
0.116
0.024
-0.073
0.198
-0.252
-0.263
0.088
0.209
0.045
0.016
-0.086
-0.101
0.036
0.023
0.014
-0.102
-0.003
-0.054
0.000
-0.014
-0.095
0.043
0.152
0.000
-0.034
-0.041
-0.033
-0.141
-0.121
0.019
0.015
-0.020
0.070
-0.004
-0.083
-0.065
0.005
0.000
-0.187
0.051
0.086
0.030
-0.070
0.008
0.048
-0.021
-0.009
0.203
0.222
-0.650
-0.275
0.283
0.175
0.038
0.067
-0.038
-0.165
-0.083
-0.031
-0.036
-0.073
0.062
0.043
-0.025
0.103
-0.126
-0.007
0.021
-0.003
0.041
-0.098
-0.074
0.061
0.275
-0.629
0.234
0.438
-0.849
0.010
0.184
0.193
-0.032
0.054
-0.055
-0.288
0.069
-0.260
-0.019
0.130
0.174
0.068
0.023
-0.005
0.006
0.136
0.162
-0.089
-0.688
0.125
0.237
0.101
-0.069
-0.144
0.043
0.036
-0.106
-0.071
-0.050
0.148
-0.132
-0.222
0.067
0.136
0.087
-0.021
0.033
-0.191
-0.140
0.114
0.087
-0.100
-0.033
0.013
-0.032
-0.108
0.017
0.082
0.051
0.121
-0.328
-0.073
0.005
-0.048
0.113
-0.024
-0.124
0.092
0.070
-0.055
-0.058
0.003
-0.107
0.023
-0.021
0.015
-0.068
0.010
-0.166
-0.023
0.076
-0.057
-0.122
-0.096
0.009
0.032
0.053
0.107
-0.101
0.029
0.008
0.013
-0.101
0.015
-0.002
0.097
-0.185
0.067
-0.049
0.066
-0.008
-0.037
-0.050
-0.155
-0.109
0.123
0.058
0.076
-0.131
-0.055
-0.042
-0.122
0.049
0.030
0.042
0.011
0.038
-0.143
0.026
0.136
0.097
-0.579
-0.040
0.178
0.138
-0.005
-0.111
0.304
-0.354
-0.369
0.192
0.216
-0.037
-0.019
-0.026
-0.102
0.128
0.320
-0.720
-0.235
0.149
0.276
0.107
-0.061
-0.035
-0.046
-0.070
-0.064
0.042
0.040
-0.098
-0.032
0.020
-0.195
-0.067
0.096
0.052
0.102
-0.039
-0.028
-0.131
-0.109
-0.060
0.023
0.023
-0.076
-0.018
0.058
0.034
-0.035
-0.087
-0.087
0.004
-0.036
-0.099
-0.013
-0.013
0.293
-0.222
-0.130
0.035
-0.074
-0.105
-0.094
-0.007
-0.009
0.281
-0.106
-0.604
0.096
0.408
0.004
-0.486
-0.021
0.102
0.011
0.051
-0.001
-0.031
-0.019
0.051
0.049
-0.050
-0.052
-0.057
0.043
0.085
0.009
-0.003
0.179
-0.445
-0.498
0.047
0.218
0.105
0.038
-0.077
-0.196
-0.054
-0.073
-0.044
-0.009
-0.005
-0.115
0.047
0.011
0.078
-0.102
-0.080
0.112
0.046
0.007
-0.049
-0.085
-0.091
-0.009
0.042
-0.110
-0.024
0.043
0.029
-0.008
0.013
-0.036
-0.065
-0.110
-0.039
0.032
-0.048
0.028
-0.045
0.025
-0.124
-0.063
0.077
0.369
-0.710
-0.044
0.089
0.012
0.062
0.066
0.070
-0.053
-0.057
0.014
-0.209
-0.042
-0.053
-0.043
0.060
-0.000
0.063
0.130
0.146
-0.474
-0.118
0.055
0.025
0.036
-0.054
0.015
-0.152
-0.071
-0.018
-0.070
0.007
0.048
0.199
-0.226
-0.055
0.040
0.098
0.295
-0.488
-0.280
0.120
0.105
-0.059
0.017
0.036
-0.017
0.035
-0.144
-0.097
0.072
-0.057
-0.072
0.038
0.089
-0.058
-0.120
-0.018
-0.063
-0.031
0.017
0.053
-0.053
-0.094
-0.094
0.169
-0.456
-0.103
0.123
0.139
0.014
-0.110
-0.069
-0.096
-0.091
0.024
-0.045
-0.022
0.017
0.055
0.019
0.138
0.040
-0.103
-0.002
-0.069
-0.029
-0.051
-0.045
0.148
-0.323
0.077
0.328
-0.525
-0.173
0.030
0.083
0.158
-0.059
0.180
0.016
-0.573
-0.016
0.217
0.095
-0.122
0.345
-0.307
-0.285
0.011
-0.139
0.104
0.023
0.080
0.034
0.466
-0.833
-0.203
0.171
0.071
0.102
0.035
0.033
-0.078
-0.059
-0.058
0.123
0.045
-0.051
-0.095
0.084
-0.216
-0.024
0.218
0.055
-0.061
-0.183
-0.123
-0.031
-0.004
-0.018
0.022
-0.038
-0.028
-0.128
0.024
0.018
-0.044
0.191
-0.179
0.102
-0.150
0.043
-0.030
0.124
0.034
0.003
0.078
-0.073
-0.065
-0.107
-0.116
0.034
-0.232
0.020
0.061
-0.001
0.064
-0.061
-0.075
-0.068
-0.038
-0.044
-0.005
-0.037
0.055
-0.110
0.032
-0.010
0.097
-0.066
-0.011
0.030
-0.100
0.020
0.051
-0.026
0.171
-0.257
-0.170
0.172
0.046
-0.071
-0.043
0.010
-0.082
0.033
-0.044
-0.049
-0.146
0.120
-0.153
0.026
-0.067
-0.035
0.116
0.384
-0.791
-0.202
0.449
0.037
-0.284
0.001
-0.007
0.025
-0.086
-0.158
-0.116
0.002
0.120
-0.023
0.018
0.014
-0.123
-0.028
-0.098
-0.120
-0.020
0.065
0.043
0.100
-0.049
0.116
-0.062
-0.001
-0.090
-0.094
-0.066
-0.036
-0.102
-0.120
0.053
0.106
0.117
-0.073
-0.023
-0.055
0.417
-0.681
-0.206
0.153
0.285
0.034
-0.050
-0.027
0.102
-0.490
-0.085
-0.069
0.440
-0.207
-0.391
0.094
0.019
0.158
-0.010
-0.102
-0.142
0.183
0.276
-0.649
-0.246
0.108
0.247
0.051
-0.100
-0.051
-0.030
-0.009
0.068
0.090
-0.062
-0.210
-0.077
-0.000
-0.070
0.030
0.101
0.017
-0.074
-0.054
0.080
0.024
0.064
-0.096
0.060
-0.075
0.018
0.046
0.032
0.106
-0.000
-0.141
0.131
0.132
-0.353
-0.293
-0.003
0.136
0.129
-0.149
-0.209
0.007
0.141
-0.055
-0.125
0.069
0.033
0.188
-0.262
-0.030
0.083
0.088
-0.134
-0.057
-0.052
-0.001
0.000
-0.087
-0.002
0.058
-0.004
-0.135
-0.044
-0.006
-0.017
0.061
0.039
-0.075
-0.006
0.052
0.071
-0.115
-0.263
-0.030
0.136
0.013
-0.039
-0.039
0.036
0.050
-0.077
-0.119
-0.051
-0.023
-0.031
-0.007
-0.005
0.015
-0.017
0.021
-0.040
-0.063
-0.038
-0.015
0.262
-0.398
-0.224
0.134
0.142
0.236
0.197
-0.715
-0.106
0.353
0.237
-0.056
-0.548
0.076
0.084
0.051
0.064
-0.079
-0.081
0.063
-0.248
-0.149
-0.087
0.051
-0.011
0.214
0.021
-0.006
0.026
-0.182
-0.096
-0.211
-0.097
0.092
0.065
0.001
-0.001
-0.081
-0.036
-0.036
0.067
0.130
-0.232
0.069
0.043
-0.002
-0.008
0.072
-0.013
-0.056
-0.089
0.186
-0.060
-0.384
0.097
0.120
0.007
-0.079
0.019
-0.036
-0.032
-0.065
0.015
-0.109
0.010
-0.045
0.003
0.068
0.009
-0.064
-0.048
-0.124
0.003
-0.056
0.053
0.387
-0.420
-0.320
0.099
0.125
-0.029
0.035
-0.050
0.021
-0.017
0.040
0.139
0.243
-0.585
-0.069
0.044
0.117
-0.029
-0.028
-0.089
0.235
-0.085
-0.102
0.001
-0.109
0.003
-0.086
-0.121
0.103
-0.031
-0.020
0.022
-0.002
-0.081
-0.055
-0.061
-0.012
0.026
-0.063
-0.038
0.024
-0.122
-0.118
-0.014
-0.023
0.047
0.062
-0.024
-0.033
0.020
0.040
0.539
-0.496
-0.845
0.163
0.290
0.148
0.035
0.014
-0.012
-0.098
-0.275
-0.094
-0.016
0.038
0.131
0.091
-0.217
-0.048
0.039
0.231
-0.307
-0.127
-0.043
0.121
0.084
0.010
0.013
-0.066
-0.102
-0.069
-0.035
-0.068
0.046
-0.040
-0.094
-0.013
-0.071
0.088
-0.015
-0.058
-0.110
-0.085
-0.017
-0.097
-0.137
0.087
-0.042
0.062
0.092
0.107
0.126
-0.021
-0.138
-0.055
0.246
-0.537
-0.204
-0.080
0.235
0.218
0.145
-0.097
-0.156
-0.169
-0.135
-0.063
0.104
-0.035
-0.030
0.108
0.069
-0.012
-0.050
0.003
0.022
0.032
-0.046
-0.198
0.004
0.119
0.165
0.029
-0.453
-0.024
0.050
0.061
-0.097
-0.035
0.034
-0.020
-0.075
0.004
0.023
-0.008
0.007
0.041
-0.013
-0.087
-0.106
-0.005
-0.003
0.044
-0.020
-0.030
-0.087
0.019
0.024
0.015
0.039
-0.070
0.090
0.439
-0.766
-0.334
0.140
0.193
0.186
-0.036
-0.121
0.117
0.044
0.204
-0.664
0.003
-0.051
0.071
0.073
0.072
0.114
0.040
0.000
-0.067
-0.145
0.319
-0.777
-0.222
0.370
0.183
0.059
0.043
-0.100
-0.061
-0.072
-0.071
-0.023
0.005
0.168
0.017
0.016
-0.082
-0.235
-0.055
0.009
0.046
0.094
-0.077
0.065
-0.054
-0.002
-0.009
0.059
-0.045
-0.222
-0.131
-0.087
0.136
0.099
0.200
-0.119
-0.307
-0.051
0.103
0.091
-0.045
-0.102
0.092
-0.079
-0.112
-0.147
0.043
0.145
-0.011
-0.014
-0.053
0.070
-0.063
-0.143
0.070
-0.000
-0.017
-0.011
-0.018
-0.044
0.033
-0.014
-0.083
-0.058
-0.060
0.086
0.026
-0.078
-0.065
-0.027
0.007
-0.005
-0.006
-0.002
0.153
0.153
-0.397
0.007
0.050
-0.122
-0.037
-0.100
0.046
0.009
0.084
-0.036
-0.082
-0.117
-0.061
-0.101
0.129
0.213
0.126
-0.574
0.164
0.098
0.122
0.017
-0.065
-0.202
-0.009
-0.069
0.226
-0.138
-0.389
0.065
0.306
0.182
-0.154
-0.121
-0.114
-0.135
-0.091
0.035
0.105
0.076
0.042
-0.208
-0.074
-0.028
0.055
-0.005
-0.063
0.225
-0.272
-0.233
0.009
0.218
0.229
-0.005
-0.148
-0.136
0.019
-0.076
0.103
0.445
-0.703
-0.132
0.232
0.250
-0.041
0.030
0.050
-0.100
-0.055
-0.087
-0.125
-0.096
0.056
0.495
-0.651
-0.207
0.250
0.043
-0.010
-0.043
-0.180
-0.052
-0.054
-0.013
0.110
-0.077
0.004
-0.065
-0.036
-0.008
-0.011
-0.021
0.004
-0.002
-0.092
-0.054
0.035
-0.063
0.035
-0.052
0.055
0.084
-0.069
-0.004
-0.077
-0.096
0.013
0.244
-0.297
-0.107
0.181
0.079
-0.100
-0.069
0.003
-0.061
-0.066
-0.110
-0.022
-0.015
0.086
0.056
-0.045
-0.099
-0.063
0.059
-0.034
0.013
0.113
-0.083
-0.111
-0.100
-0.043
0.082
0.013
-0.051
-0.160
-0.251
0.079
-0.035
0.174
-0.054
-0.137
0.022
0.047
-0.076
-0.183
0.040
-0.075
-0.070
0.006
0.038
0.087
0.020
0.001
-0.100
-0.059
-0.011
0.024
-0.067
-0.207
-0.098
0.078
0.085
0.039
-0.178
-0.034
-0.030
0.031
0.015
0.105
0.237
-0.331
-0.391
0.175
0.074
0.103
0.316
-0.131
-0.587
0.151
0.196
0.094
-0.366
-0.071
-0.045
0.081
-0.007
0.249
-0.212
-0.473
0.087
0.133
0.114
0.158
-0.327
-0.318
0.053
0.314
-0.459
-0.155
0.225
0.050
0.070
-0.159
0.037
-0.203
0.112
0.034
0.113
-0.120
-0.080
0.003
-0.036
-0.054
-0.041
-0.019
-0.124
0.120
-0.007
-0.007
-0.021
-0.085
-0.044
0.021
0.005
-0.045
-0.062
0.032
-0.011
0.019
0.024
-0.011
-0.170
-0.116
-0.010
-0.052
0.077
0.084
-0.021
0.337
-0.220
-0.765
0.182
0.262
-0.023
-0.037
-0.002
-0.102
-0.096
-0.001
-0.011
-0.023
0.012
0.177
-0.053
-0.041
-0.128
-0.008
-0.027
-0.134
0.125
0.102
0.084
-0.121
-0.117
-0.193
-0.006
-0.049
-0.069
-0.009
-0.026
0.098
-0.020
0.031
-0.069
-0.044
-0.118
-0.083
0.017
-0.049
0.089
-0.026
-0.087
0.079
-0.070
-0.053
0.043
-0.065
-0.026
-0.062
-0.118
0.082
-0.166
0.008
0.403
-0.180
-0.555
0.017
0.238
0.032
-0.007
-0.007
-0.076
-0.004
0.080
-0.031
-0.022
0.049
-0.068
-0.195
-0.112
0.029
-0.039
-0.019
0.049
0.228
-0.168
-0.082
-0.115
0.015
0.013
0.144
-0.476
0.225
-0.010
-0.303
0.091
0.291
0.126
0.031
-0.145
-0.121
-0.117
-0.066
-0.130
-0.104
0.048
0.030
-0.020
-0.023
0.040
-0.073
-0.095
-0.005
-0.010
0.050
0.089
0.065
0.004
-0.152
-0.070
0.013
0.011
0.013
-0.104
0.004
-0.047
0.076
-0.116
-0.072
-0.069
0.066
-0.031
0.132
0.332
-0.645
-0.068
0.086
0.484
-0.351
-0.518
0.170
0.123
0.067
-0.036
-0.006
-0.042
-0.026
-0.060
0.044
0.236
-0.034
-0.134
-0.198
-0.169
0.189
0.131
0.045
0.015
-0.125
-0.049
-0.061
-0.174
-0.154
-0.183
-0.044
0.057
0.080
0.243
0.032
-0.142
-0.134
-0.099
-0.008
-0.019
-0.063
-0.004
0.050
0.055
0.159
0.008
-0.052
0.610
-0.737
-0.632
0.324
0.304
0.068
-0.051
-0.127
-0.078
-0.035
0.002
-0.158
0.011
0.049
-0.098
-0.034
0.179
-0.043
-0.064
-0.037
-0.051
0.022
-0.036
-0.097
-0.067
-0.025
0.037
-0.025
-0.005
0.075
-0.066
-0.030
0.115
0.053
-0.070
-0.049
-0.036
-0.194
0.178
-0.186
-0.031
-0.053
0.022
-0.006
-0.015
-0.004
-0.228
0.161
-0.155
-0.010
0.045
-0.007
0.030
-0.053
0.057
0.347
-0.185
-0.621
-0.027
0.242
0.213
0.051
-0.076
0.032
-0.085
-0.080
-0.011
0.023
0.094
-0.142
-0.039
0.029
0.205
-0.178
0.082
-0.088
-0.120
-0.152
-0.001
0.040
-0.014
0.059
-0.015
-0.039
-0.019
-0.104
-0.078
-0.045
0.056
0.050
0.084
0.037
-0.024
-0.068
0.032
-0.048
0.019
-0.056
-0.048
-0.066
0.057
0.046
-0.255
-0.076
-0.015
0.078
0.353
-0.180
-0.476
-0.019
0.179
0.087
-0.044
-0.036
-0.017
0.013
0.044
0.030
-0.001
-0.044
-0.040
-0.001
0.386
-0.065
-0.546
-0.028
0.364
0.379
-0.567
-0.037
0.077
-0.038
-0.056
0.047
0.107
-0.031
-0.014
-0.115
-0.421
-0.085
0.080
0.086
0.074
-0.031
-0.071
-0.019
-0.071
-0.093
-0.130
-0.008
0.090
-0.004
0.078
-0.131
-0.098
-0.056
-0.033
0.025
0.375
-0.421
-0.306
0.142
0.144
0.053
-0.030
0.009
-0.095
-0.133
0.080
-0.029
-0.080
-0.024
0.049
-0.013
0.044
-0.035
0.011
0.018
-0.079
0.076
-0.194
-0.164
-0.029
0.055
0.018
0.019
0.013
-0.036
-0.010
-0.103
-0.097
0.009
0.095
-0.069
-0.251
0.030
0.002
0.092
-0.054
0.011
0.335
-0.542
-0.336
0.109
0.102
0.100
-0.030
0.089
-0.053
-0.080
-0.020
0.039
-0.062
0.206
-0.307
-0.157
0.134
0.171
0.031
-0.023
-0.186
-0.073
-0.029
0.007
0.039
-0.051
0.034
0.019
-0.083
-0.091
0.065
-0.075
-0.032
-0.021
0.112
0.094
-0.128
-0.205
0.031
0.026
-0.067
-0.066
0.049
0.033
-0.015
-0.132
-0.056
0.102
-0.375
-0.016
0.128
0.031
0.058
-0.020
-0.023
-0.072
0.242
-0.574
-0.290
0.048
0.238
0.184
0.022
-0.204
-0.093
0.020
0.002
0.223
-0.377
-0.180
0.212
0.063
0.024
0.252
0.111
-0.515
-0.143
0.127
0.213
0.065
-0.197
-0.184
-0.011
-0.059
0.064
0.111
-0.206
-0.084
0.039
-0.001
-0.126
-0.107
0.053
0.075
-0.165
-0.067
0.040
-0.084
-0.091
0.096
0.118
0.138
0.248
-0.483
-0.439
0.140
0.090
0.197
0.114
-0.000
-0.032
-0.091
-0.196
-0.035
0.089
0.019
0.063
0.025
-0.036
-0.064
-0.034
-0.038
-0.015
-0.050
-0.090
-0.016
0.451
-0.445
-0.200
0.139
-0.036
0.177
0.382
-0.245
-0.239
0.038
0.098
0.022
-0.144
0.004
-0.032
-0.110
-0.041
0.031
0.021
-0.074
-0.039
0.066
-0.013
-0.022
-0.042
-0.057
-0.039
-0.140
0.023
-0.028
0.015
-0.030
-0.017
-0.023
0.014
0.009
0.004
-0.077
-0.009
-0.083
0.015
-0.125
0.051
0.302
0.190
-0.721
-0.011
0.160
0.124
-0.080
0.051
0.051
0.004
-0.188
-0.082
-0.138
0.419
-0.653
-0.102
0.223
0.168
0.063
0.096
0.007
-0.293
-0.039
-0.182
-0.025
0.105
0.045
-0.008
-0.094
0.022
0.065
-0.067
-0.038
-0.140
-0.018
0.009
-0.004
-0.024
-0.065
0.039
-0.003
-0.031
-0.021
-0.036
-0.059
0.042
0.164
-0.055
-0.209
0.422
-0.403
-0.101
0.146
0.066
0.035
-0.061
0.061
0.194
-0.664
-0.020
-0.174
0.126
0.166
0.065
0.016
-0.038
-0.072
-0.054
-0.078
0.006
0.022
-0.020
0.017
0.050
0.003
0.002
0.031
-0.098
0.014
-0.037
0.185
0.242
-0.740
-0.059
0.227
0.051
-0.099
0.023
-0.033
-0.001
0.052
-0.004
-0.095
-0.055
0.032
0.039
-0.067
0.011
0.057
0.032
0.107
-0.108
-0.195
-0.003
0.099
-0.071
-0.023
-0.021
0.024
-0.034
0.214
-0.307
-0.549
0.099
0.130
0.065
0.057
-0.008
-0.030
-0.011
-0.151
-0.112
0.057
0.075
-0.160
-0.062
0.206
0.010
-0.027
-0.080
0.028
0.076
-0.083
-0.053
0.047
0.481
-0.727
-0.072
0.161
0.313
-0.150
-0.192
-0.134
0.010
-0.022
-0.043
0.069
0.109
0.280
-0.629
-0.175
0.144
-0.031
0.010
0.142
0.042
0.020
-0.104
-0.015
-0.006
0.045
-0.127
-0.037
0.050
-0.009
-0.024
-0.021
-0.082
0.031
0.018
-0.118
-0.111
-0.040
-0.029
0.054
-0.041
0.037
0.009
0.027
-0.060
0.044
-0.008
0.008
-0.033
0.031
-0.094
-0.051
-0.039
-0.088
-0.041
0.016
-0.058
0.005
0.214
-0.143
-0.176
-0.064
0.205
-0.037
-0.056
0.062
0.052
-0.026
0.005
-0.032
-0.080
-0.015
0.113
-0.078
-0.115
0.031
0.038
0.013
-0.024
-0.005
-0.084
0.050
-0.019
-0.045
0.030
0.212
-0.075
-0.425
0.114
0.099
0.002
-0.081
-0.039
-0.001
0.005
-0.042
0.016
-0.036
0.078
-0.086
-0.331
0.115
0.272
0.015
-0.156
-0.081
-0.083
0.055
0.024
-0.280
0.254
0.192
-0.515
0.001
0.233
0.138
0.114
-0.173
0.003
0.271
-0.673
0.015
0.156
0.259
0.048
-0.112
0.111
-0.120
-0.082
-0.140
-0.076
-0.037
0.083
-0.039
-0.023
0.040
0.064
0.368
-0.700
-0.152
0.151
0.478
-0.498
-0.255
0.200
0.280
-0.248
-0.343
0.091
0.197
-0.030
0.010
-0.023
-0.034
-0.079
-0.156
0.048
0.007
0.046
-0.066
0.037
0.107
-0.018
0.041
0.038
-0.092
-0.075
0.054
0.055
-0.097
-0.088
-0.031
-0.061
-0.099
-0.121
0.084
0.028
0.024
0.137
-0.112
-0.138
0.130
-0.244
-0.055
0.009
0.018
0.009
-0.004
0.050
-0.144
-0.050
0.022
-0.016
-0.079
0.023
0.008
0.042
-0.044
-0.040
0.088
-0.024
-0.057
0.014
0.271
-0.414
-0.101
0.164
0.026
0.084
-0.007
-0.084
-0.134
-0.024
0.062
-0.009
0.042
-0.056
-0.122
-0.045
0.085
0.018
0.001
0.001
0.020
-0.080
-0.013
-0.102
-0.010
0.064
-0.090
-0.129
0.066
0.004
0.064
0.006
0.162
-0.493
-0.095
-0.037
0.138
0.044
-0.079
0.421
-0.532
-0.483
-0.042
0.293
0.206
0.083
-0.029
-0.089
-0.024
-0.028
-0.073
0.070
-0.052
0.061
-0.048
0.045
0.094
0.140
-0.130
-0.112
-0.111
0.015
-0.098
-0.113
0.035
0.037
-0.094
-0.010
0.010
0.132
0.146
-0.860
-0.105
0.277
0.201
0.126
-0.012
-0.069
-0.247
-0.025
0.043
-0.097
0.097
0.032
-0.028
-0.154
0.118
0.696
-0.856
-0.663
0.259
0.265
0.098
0.054
-0.074
-0.053
-0.139
-0.051
-0.122
-0.003
-0.087
0.155
0.276
0.122
-0.017
-0.138
-0.073
0.019
-0.096
0.023
0.001
0.075
0.000
-0.063
-0.133
-0.059
-0.013
0.063
0.093
-0.058
0.019
-0.143
-0.178
0.060
0.023
0.108
0.105
0.018
-0.037
-0.013
0.054
-0.107
0.045
0.051
0.085
-0.148
-0.033
0.190
-0.301
-0.152
0.426
-0.014
-0.439
-0.024
0.064
0.093
0.049
-0.110
-0.097
-0.100
0.067
-0.049
-0.024
0.056
0.006
0.014
-0.014
-0.113
0.117
0.119
-0.048
-0.001
0.042
-0.094
-0.119
0.004
0.041
-0.013
-0.035
0.010
0.189
0.133
-0.699
0.027
0.171
0.188
0.057
-0.083
-0.054
-0.021
-0.096
0.019
0.137
-0.063
-0.083
-0.055
0.016
0.024
0.003
0.251
-0.271
-0.250
0.137
0.011
-0.043
-0.029
-0.014
-0.063
0.055
-0.192
-0.127
-0.018
0.097
0.041
-0.116
-0.022
-0.035
-0.093
0.054
-0.028
-0.027
0.023
-0.080
-0.149
0.021
0.134
-0.010
-0.037
0.032
-0.005
-0.043
-0.130
-0.062
0.019
-0.035
-0.108
0.081
-0.017
0.069
0.059
0.122
-0.236
-0.187
0.191
-0.482
-0.263
0.202
0.113
0.173
-0.020
-0.096
-0.015
-0.022
-0.145
-0.017
-0.067
0.080
0.147
0.181
-0.645
-0.068
0.253
0.157
0.018
-0.101
0.112
0.014
-0.491
-0.053
0.178
0.122
0.028
-0.167
-0.132
-0.055
0.059
-0.126
0.096
0.051
-0.093
-0.168
-0.063
0.063
0.072
-0.088
-0.038
-0.039
-0.108
0.009
0.026
0.109
0.236
-0.516
-0.155
0.038
0.112
0.253
-0.536
-0.005
0.262
0.009
-0.132
-0.181
-0.107
0.086
0.108
0.182
-0.237
-0.056
-0.010
-0.016
0.083
0.112
-0.008
0.038
-0.113
-0.049
0.064
0.090
-0.018
-0.107
-0.006
-0.033
-0.126
0.073
-0.048
-0.042
-0.012
-0.122
-0.074
-0.062
-0.012
0.099
-0.120
-0.087
-0.118
0.026
0.068
-0.039
-0.035
-0.068
0.053
0.040
-0.193
-0.048
0.169
0.279
-0.543
-0.069
0.158
0.101
-0.035
0.093
-0.216
-0.068
-0.033
0.068
0.071
-0.002
-0.028
0.013
-0.050
-0.116
-0.033
-0.042
-0.081
0.051
0.209
-0.077
-0.144
-0.082
0.005
0.123
0.009
-0.003
-0.040
-0.119
-0.041
0.001
0.164
0.228
-0.531
-0.005
0.102
-0.054
-0.067
-0.075
-0.003
0.061
-0.185
-0.003
-0.068
-0.101
0.064
0.078
0.006
-0.171
0.080
0.039
0.012
0.035
-0.019
-0.037
-0.022
0.026
0.267
0.194
-0.747
-0.055
0.008
0.120
-0.326
0.172
0.102
0.268
0.029
-0.684
0.117
0.539
-0.611
0.057
0.185
0.105
0.293
0.182
-0.590
-0.038
0.083
0.108
-0.080
0.005
-0.002
-0.016
-0.111
-0.079
0.040
-0.009
0.090
0.087
-0.605
-0.067
0.214
0.209
0.054
-0.061
-0.057
-0.033
0.010
-0.051
0.093
-0.053
-0.016
-0.108
0.062
0.203
-0.103
-0.138
-0.112
0.047
-0.106
-0.040
-0.062
0.037
0.070
-0.005
-0.031
-0.040
-0.180
-0.047
-0.001
-0.034
0.024
-0.013
0.074
0.048
0.032
-0.049
0.033
0.042
0.011
-0.085
-0.102
-0.002
0.151
-0.110
-0.076
0.015
-0.043
-0.042
-0.130
-0.011
0.000
0.030
-0.210
0.047
-0.001
0.005
-0.056
-0.094
-0.066
-0.081
-0.028
0.186
0.260
-0.581
-0.291
0.133
0.136
0.082
0.061
-0.018
-0.133
0.042
0.082
-0.197
0.012
-0.011
0.013
0.049
-0.023
-0.017
-0.112
-0.002
0.003
-0.010
-0.080
0.025
-0.040
-0.120
-0.075
0.106
0.008
0.054
-0.107
-0.055
-0.175
0.470
-0.156
-0.493
0.121
0.049
0.015
0.049
0.012
-0.029
-0.120
0.080
-0.025
0.052
-0.031
-0.058
0.010
0.005
-0.067
0.047
-0.042
0.133
-0.059
-0.097
0.181
0.031
-0.463
-0.158
0.077
0.162
0.043
0.004
0.127
-0.021
-0.229
-0.102
-0.152
0.093
0.037
0.037
-0.050
0.353
-0.007
-0.738
0.021
0.286
0.319
0.314
-0.515
-0.168
0.340
-0.086
-0.892
0.045
0.340
0.217
0.009
-0.030
-0.064
-0.114
-0.034
-0.015
-0.054
-0.101
0.094
0.041
0.009
-0.071
-0.024
0.045
0.039
0.031
-0.026
-0.118
-0.024
0.048
-0.058
-0.065
0.006
-0.025
0.025
-0.093
-0.037
0.147
-0.074
-0.035
0.001
-0.158
-0.131
-0.034
-0.006
0.017
-0.084
-0.093
0.055
0.086
-0.031
-0.011
-0.075
-0.025
0.089
-0.003
-0.008
-0.013
0.027
0.077
-0.039
-0.048
-0.061
-0.003
-0.098
-0.014
0.065
-0.083
-0.002
-0.051
-0.075
0.092
-0.025
0.007
0.046
0.027
-0.077
-0.070
0.023
-0.027
0.223
-0.258
-0.359
0.035
0.485
-0.234
-0.343
0.147
0.128
0.091
-0.057
-0.206
-0.100
-0.021
-0.032
0.058
0.019
-0.058
0.098
0.071
0.011
-0.007
-0.004
-0.067
-0.103
-0.141
-0.032
0.088
0.017
-0.066
0.042
0.012
-0.007
-0.002
-0.120
-0.072
0.052
0.190
-0.245
-0.518
0.119
0.259
0.072
-0.179
-0.113
-0.015
-0.018
-0.019
-0.081
-0.088
-0.054
-0.034
0.015
0.057
0.093
0.158
-0.169
-0.221
0.097
0.051
-0.038
-0.079
-0.055
-0.070
0.121
0.350
-0.465
-0.417
0.098
0.044
0.023
0.037
-0.084
-0.036
-0.090
0.382
-0.479
-0.250
0.380
0.199
-0.469
0.045
0.085
0.078
-0.064
-0.081
0.030
0.015
0.019
-0.066
-0.106
-0.001
-0.086
-0.035
-0.064
0.068
0.074
-0.037
-0.111
0.002
0.002
-0.025
-0.135
0.104
-0.032
0.013
-0.053
0.043
-0.094
-0.164
-0.061
-0.036
0.001
0.113
0.024
-0.127
-0.045
0.550
-0.687
-0.430
0.227
0.236
0.176
0.140
-0.207
-0.148
-0.100
0.034
0.023
-0.461
0.161
0.275
0.098
-0.073
-0.010
0.020
-0.131
-0.042
-0.066
-0.066
0.133
-0.099
0.111
-0.101
-0.049
-0.037
-0.014
-0.020
-0.036
-0.056
-0.005
0.096
0.180
-0.442
-0.149
0.022
0.091
0.047
0.054
-0.064
-0.015
-0.084
-0.042
0.008
-0.045
-0.069
-0.018
0.029
0.024
0.075
-0.003
-0.095
-0.161
0.101
0.071
-0.060
0.005
-0.063
-0.028
0.061
-0.064
0.081
-0.037
-0.034
-0.059
-0.142
-0.061
0.192
0.022
-0.134
-0.267
0.056
0.164
0.010
-0.117
0.005
-0.128
0.003
0.021
-0.026
-0.054
0.040
-0.043
-0.018
0.012
0.058
0.243
0.061
-0.524
-0.021
0.042
-0.090
-0.032
0.153
0.339
-0.720
-0.121
0.117
0.068
0.141
-0.001
-0.013
-0.055
-0.101
0.095
0.336
-0.653
-0.077
0.264
0.175
0.026
-0.065
-0.059
-0.284
0.033
0.032
-0.075
0.133
-0.153
-0.067
0.047
0.049
0.134
-0.067
-0.052
-0.095
-0.070
-0.086
0.230
-0.319
-0.314
0.237
0.101
0.015
-0.017
-0.095
0.373
-0.399
-0.595
0.127
0.240
0.187
0.078
-0.132
-0.092
-0.109
-0.026
0.025
-0.021
-0.007
-0.042
-0.114
-0.034
0.014
-0.077
0.043
-0.036
-0.083
-0.004
0.048
-0.017
0.060
0.008
-0.106
0.039
-0.014
-0.046
-0.004
0.079
-0.090
-0.132
0.115
-0.057
-0.047
0.092
0.092
-0.094
-0.032
-0.149
-0.068
-0.026
0.220
0.039
-0.528
0.064
0.040
0.099
0.088
-0.113
0.131
-0.233
-0.164
0.056
0.072
0.107
0.261
-0.535
-0.068
0.087
0.147
-0.006
-0.087
-0.040
-0.118
-0.080
-0.001
-0.125
-0.093
-0.022
0.084
0.053
0.122
-0.046
0.010
-0.077
-0.019
0.015
0.183
-0.194
-0.023
0.077
-0.011
-0.001
-0.090
-0.088
0.189
-0.008
-0.118
-0.158
-0.053
-0.096
0.056
-0.027
0.184
0.498
-0.872
-0.188
0.278
0.149
0.056
-0.124
0.043
0.172
-0.715
0.085
0.137
0.093
0.103
-0.031
-0.106
-0.057
-0.015
0.025
-0.090
-0.126
0.098
-0.022
-0.047
0.137
0.045
-0.060
-0.080
0.118
-0.207
-0.145
0.055
-0.023
-0.038
0.001
0.019
-0.302
-0.040
0.049
-0.010
0.027
-0.048
0.064
0.043
0.476
-0.424
-0.491
0.074
0.176
0.046
0.003
0.051
-0.003
-0.175
-0.022
-0.053
-0.014
0.058
-0.075
-0.143
0.117
0.000
-0.056
0.039
0.063
0.100
-0.104
-0.018
-0.055
-0.075
0.186
-0.160
-0.225
-0.005
0.051
0.394
-0.128
-0.544
0.073
0.134
0.021
0.008
-0.014
0.038
-0.026
-0.082
-0.010
0.135
-0.000
-0.063
-0.047
-0.114
-0.076
0.013
0.027
-0.193
-0.008
0.147
0.012
-0.048
-0.074
0.000
-0.116
0.182
-0.154
-0.054
-0.092
0.077
0.034
0.191
0.001
-0.118
-0.063
-0.110
-0.010
-0.002
-0.029
