-0.110
-0.067
0.058
-0.001
0.017
-0.089
0.089
-0.000
-0.030
-0.004
-0.389
-2.980
-3.971
-4.172
-1.264
-1.688
-3.044
2.421
4.389
4.835
0.493
-2.887
-3.876
-2.174
2.695
4.236
4.587
4.506
4.325
4.115
3.879
3.677
1.916
-1.818
-4.489
-5.322
-5.426
-5.288
-5.086
-4.824
-4.190
-2.725
-1.450
-0.362
0.618
1.038
1.191
1.145
1.007
0.735
0.297
0.047
-0.191
-0.142
-0.127
-0.003
0.061
-0.107
-0.093
-0.031
0.131
0.303
0.355
0.318
0.206
0.098
0.017
0.023
0.087
-0.267
-0.220
-0.203
-0.122
-0.383
-0.567
-0.500
-0.354
-0.418
-0.361
-0.309
-1.933
-3.719
1.284
3.456
2.623
0.600
-0.897
-1.663
-1.600
-1.048
-0.518
0.128
0.010
0.068
-2.211
-4.004
1.237
3.489
4.094
3.301
-2.037
-4.093
-4.597
-4.045
-0.756
2.680
4.091
4.441
4.396
4.261
4.106
3.377
1.847
0.213
-1.187
-2.199
-2.702
-2.774
-2.537
-2.196
-1.590
-1.062
-0.488
0.021
0.176
0.531
0.741
0.883
0.758
0.530
0.496
0.526
0.500
0.447
0.619
0.635
0.560
0.519
0.396
0.402
0.524
0.524
0.600
0.522
0.554
0.551
0.468
0.471
0.391
0.412
0.346
0.309
0.163
0.282
0.234
0.120
0.085
0.057
0.113
0.148
0.120
0.037
-0.092
-0.138
-0.201
-0.144
-0.208
-0.168
0.029
-0.084
-0.333
-0.232
-0.353
-0.274
-0.249
-0.277
-0.263
-0.424
-0.298
-0.321
-0.363
-0.248
-0.388
-0.345
-0.191
-0.241
-0.256
-0.327
-0.402
-0.898
-0.989
-0.542
-0.587
-0.261
-0.147
0.182
0.473
0.477
0.148
-0.147
-0.108
0.069
0.154
-0.930
-3.351
-4.021
0.341
3.578
4.472
3.524
-1.776
-3.724
-4.218
-4.267
-4.148
-3.995
-1.437
3.327
4.694
4.954
3.758
1.027
-0.703
-3.064
-4.004
-3.450
-1.820
0.481
2.408
3.519
4.199
4.245
4.101
3.905
3.519
2.446
1.182
0.149
-0.140
-0.582
-1.092
-1.068
-0.924
-0.989
-0.983
-0.874
-0.646
-0.436
-0.138
0.043
0.412
0.398
0.474
0.120
0.096
0.162
0.121
-0.177
-0.138
-0.067
-0.199
0.371
0.665
0.900
0.860
1.009
0.924
1.041
1.035
1.122
1.227
1.431
1.287
1.180
1.359
1.460
1.510
1.439
1.169
1.158
1.058
0.797
0.845
0.900
0.774
0.747
0.784
0.736
0.673
0.502
0.604
0.455
0.320
0.340
0.274
0.156
0.276
0.095
0.055
-0.062
-0.036
-0.304
-0.425
-0.264
-0.219
-0.248
-0.089
-0.297
-0.426
-0.433
-0.359
-0.233
-0.282
-0.319
-0.275
-0.314
-0.289
-0.224
-0.240
-0.152
-0.220
-0.269
-0.324
-0.223
-0.323
-0.227
-0.388
-0.277
-0.182
-0.054
-0.179
-0.214
-0.103
-0.076
-0.026
0.011
0.113
0.041
0.004
0.037
0.079
0.005
0.040
0.029
0.021
0.146
0.118
0.304
0.194
0.198
-0.019
0.138
-0.073
-0.015
0.044
0.175
0.141
0.137
0.208
0.105
0.173
-0.109
0.090
0.077
-0.032
0.055
0.180
-0.002
0.114
0.133
0.144
0.128
0.014
-0.026
0.148
0.125
0.013
-0.072
-0.036
0.106
0.041
0.005
0.040
0.012
0.012
0.041
0.084
0.145
0.064
-0.004
0.012
0.048
-0.023
0.053
0.187
0.088
0.110
0.058
0.024
0.123
0.007
0.103
0.135
0.177
0.183
0.021
0.100
0.033
0.038
0.158
0.238
0.093
0.133
0.228
0.175
0.075
0.075
0.157
0.147
0.144
0.029
-0.079
-0.077
-0.141
-0.107
0.051
0.252
0.104
-0.017
-0.189
-0.111
-0.057
-0.332
-0.139
-0.006
0.141
0.272
0.382
0.231
0.086
-0.033
-0.067
-0.128
-0.036
-0.125
-0.027
-0.034
-0.051
-0.092
-0.140
0.016
-0.355
-0.012
-0.166
-0.359
-0.281
-0.189
-0.093
-0.036
0.121
0.170
0.100
-0.006
0.152
0.106
-0.046
0.042
0.102
0.088
0.176
0.108
0.099
0.101
-0.061
0.159
0.091
-0.038
0.062
0.125
0.286
0.381
0.099
0.129
0.081
0.206
0.039
0.262
0.186
0.148
0.079
-0.163
-0.055
-0.142
0.050
0.014
-0.098
-0.025
0.017
-0.079
0.136
0.032
0.073
-0.005
-0.018
0.143
0.009
0.107
0.007
0.042
-0.013
-0.025
-0.193
-0.072
-0.175
-0.102
-0.028
-0.053
-0.173
-0.046
-0.160
-0.128
-0.166
-0.119
-0.073
-0.076
-0.100
-0.011
-0.160
-0.037
-0.077
-0.097
0.054
-0.058
-0.091
-0.081
0.040
-0.078
-0.059
-0.073
0.072
-0.119
-0.069
0.076
0.078
0.092
-0.097
-0.014
0.088
0.101
0.022
0.007
0.097
0.082
0.074
0.130
0.027
0.011
0.081
0.176
0.064
0.098
-0.006
0.129
0.103
0.087
-0.089
0.047
-0.035
-0.119
-0.502
-0.115
-0.045
0.049
0.044
0.077
-0.073
-0.070
0.063
0.224
-0.096
-0.028
0.025
0.055
0.188
0.240
0.183
0.309
0.676
0.480
0.347
0.078
-0.067
-0.004
-0.084
0.152
0.017
0.122
0.018
-0.097
-0.201
-0.142
0.014
-0.222
-0.258
-0.390
-0.551
-0.121
0.107
0.168
-0.083
-0.099
0.005
-0.105
0.159
0.145
-0.066
-0.482
-0.427
-0.076
0.065
0.051
0.039
0.166
-0.042
-0.047
-0.082
-0.117
-0.118
0.080
0.044
0.127
0.247
0.013
0.326
0.370
0.130
0.120
0.184
0.315
0.165
0.018
-0.003
0.005
0.049
0.027
-0.114
-0.114
0.111
0.012
-0.209
0.006
-0.074
-0.155
-0.038
-0.076
-0.017
-0.041
-0.084
0.401
0.273
0.183
-0.005
-0.084
-0.002
-0.018
0.084
0.173
0.032
0.191
-0.008
-0.071
-0.068
-0.080
-0.036
-0.520
-0.226
-0.083
0.029
0.116
-0.011
-0.056
0.028
0.143
0.017
-0.072
-0.013
-0.003
0.181
0.113
0.210
0.140
0.162
0.212
-0.108
0.131
-0.068
-0.010
0.082
-0.055
0.102
0.133
0.077
-0.001
0.080
0.059
0.204
0.048
0.004
0.048
-0.008
-0.045
0.098
0.063
0.077
-0.105
-0.039
0.117
-0.088
0.064
-0.031
-0.015
0.005
-0.046
-0.003
0.034
0.162
-0.009
0.037
-0.103
-0.152
0.064
-0.019
0.093
0.050
0.133
0.079
-0.224
-0.093
-0.119
-0.071
0.049
0.076
-0.015
0.059
0.031
0.094
-0.019
-0.066
0.056
0.013
0.129
0.014
0.065
0.021
0.068
0.073
0.136
0.075
0.033
0.090
0.077
-0.011
0.095
0.154
0.073
0.024
0.044
0.121
0.104
0.009
0.050
0.161
0.120
0.144
0.077
0.003
0.094
0.041
0.130
0.152
0.111
0.016
-0.132
0.051
-0.080
-0.001
-0.146
-0.059
-0.091
0.026
0.039
0.014
-0.071
-0.059
-0.099
0.100
-0.092
-0.123
-0.084
-0.000
0.074
0.010
0.006
0.065
0.039
0.075
0.120
0.157
0.015
-0.005
0.137
0.134
0.052
0.192
0.219
0.524
0.993
0.710
0.402
0.191
0.074
0.077
-0.650
0.370
0.832
0.675
0.468
0.113
-0.120
-0.082
-0.273
-0.368
-0.117
-0.231
-0.062
0.065
0.008
0.059
-0.011
-0.054
0.060
0.063
0.193
0.091
0.138
0.068
0.062
0.115
0.150
0.218
0.245
0.234
0.145
0.149
0.236
0.181
0.150
0.127
0.227
0.140
0.093
0.180
0.133
0.265
0.076
0.206
0.043
0.174
0.206
0.066
0.055
-0.049
0.018
0.097
0.081
0.040
-0.141
0.080
-0.067
-0.070
-0.017
0.025
-0.117
0.011
-0.032
-0.251
-0.036
-0.001
-0.101
-0.011
-0.108
-0.056
-0.076
0.014
-0.114
-0.138
-0.066
-0.248
-0.204
-0.024
-0.096
-0.081
-0.112
-0.101
-0.097
-0.117
-0.044
-0.122
-0.005
-0.105
0.004
0.025
0.048
0.073
-0.004
-0.026
-0.010
-0.023
0.014
-0.111
0.076
-0.013
-0.028
-0.023
0.042
0.015
-0.058
0.065
0.078
0.006
0.106
-0.094
-0.073
-0.015
0.061
-0.008
0.163
0.052
0.070
-0.011
0.154
0.050
-0.012
-0.027
0.088
-0.188
0.122
0.074
0.077
-0.117
0.023
-0.128
0.035
0.087
0.072
0.164
-0.160
0.016
0.120
-0.112
0.126
0.033
0.018
0.040
-0.028
0.057
0.166
0.007
0.071
-0.047
-0.012
0.014
0.061
0.039
0.090
0.007
-0.041
0.069
0.151
-0.004
-0.067
-0.041
0.003
0.047
-0.037
-0.039
-0.001
0.160
-0.030
0.024
-0.047
0.009
0.069
-0.018
-0.000
0.039
0.009
-0.028
-0.021
0.046
0.002
-0.058
-0.027
-0.031
0.006
-0.028
0.005
-0.237
-0.132
0.001
-0.083
-0.030
0.074
0.051
-0.030
0.037
-0.033
-0.030
-0.124
-0.035
0.043
-0.031
0.081
0.084
0.017
0.025
-0.070
-0.005
-0.070
0.067
0.058
-0.099
-0.036
0.095
-0.048
-0.052
0.002
0.041
0.139
0.009
-0.124
-0.083
-0.042
0.366
0.291
0.304
0.102
-0.007
0.024
-0.000
0.094
0.134
0.132
0.065
0.105
0.110
0.003
-0.002
-0.008
0.054
-0.086
-0.036
-0.013
0.023
0.106
0.009
0.030
0.098
0.025
0.151
0.103
0.135
0.125
0.101
0.038
0.150
0.114
0.129
0.184
-0.019
0.173
-0.090
0.059
0.101
0.169
0.105
0.047
0.204
0.016
-0.063
0.135
0.194
-0.014
0.054
0.268
0.086
0.140
0.016
0.058
0.120
-0.021
-0.022
0.091
0.053
0.077
0.041
-0.074
-0.098
-0.033
-0.200
-1.388
-1.936
-2.141
-1.161
-0.157
0.240
0.930
1.197
-0.896
-1.530
-1.991
-3.517
1.161
3.841
4.557
4.095
-1.466
-3.675
-4.279
-3.945
1.689
3.874
4.424
4.443
4.293
2.782
1.174
1.048
1.815
2.778
3.227
3.285
3.143
2.603
1.381
0.304
-0.907
-1.832
-2.503
-2.748
-2.811
-2.593
-2.308
-1.980
-1.316
-0.856
-0.356
-0.022
0.250
0.406
0.606
0.557
0.751
0.802
0.818
0.870
0.863
0.996
-0.111
-2.391
-2.944
2.579
5.013
5.676
4.784
-0.506
-1.064
-1.190
-0.562
0.576
2.386
4.141
5.021
5.146
5.027
4.763
4.134
2.819
1.530
0.120
-0.819
-1.554
-1.991
-2.016
-2.083
-1.759
-1.427
-1.062
-0.844
-0.377
-0.095
-0.083
0.010
0.080
0.077
-0.057
-0.109
-0.079
-0.210
-0.034
-0.129
-0.127
-0.131
-0.112
-0.071
0.062
0.144
0.009
0.211
0.217
0.151
0.250
0.243
0.240
0.317
0.203
0.301
0.320
0.270
0.178
0.266
0.116
0.210
0.141
0.272
0.105
0.191
-0.102
0.095
0.209
0.127
0.059
0.024
0.093
-0.168
-0.002
0.034
-0.056
-0.115
-0.058
-0.200
-0.073
-0.042
-0.147
-0.175
-0.280
-0.135
-0.092
-0.250
-0.275
-0.077
-0.228
-0.238
-0.198
-0.211
-0.305
-0.127
-0.201
-0.295
-0.205
-0.159
-0.118
-0.094
-0.137
-0.128
-0.046
0.053
-0.141
-0.742
-0.959
-1.277
-1.206
-2.129
-3.586
-3.944
-3.062
2.571
4.456
4.913
2.134
-1.542
-3.180
-2.636
-0.703
1.778
3.834
4.546
4.600
4.454
4.084
3.048
1.752
0.405
-0.844
-1.804
-2.405
-2.287
-2.318
-2.125
-1.742
-1.316
-0.854
-0.631
-0.220
-0.117
0.051
-0.021
0.147
0.165
0.094
0.163
0.198
0.058
0.043
0.173
0.160
-0.006
0.080
0.337
0.371
0.110
0.242
0.154
0.296
0.282
0.443
0.287
0.265
0.267
0.463
0.334
0.194
0.337
0.343
0.338
0.244
0.149
0.258
0.161
0.161
0.222
0.259
0.030
0.042
0.007
0.099
0.097
0.009
0.057
-0.024
-0.003
-0.096
-0.074
-0.023
-0.023
-0.110
-0.048
0.056
-0.074
-0.163
-0.119
-0.166
-0.162
0.022
-0.059
-0.023
-0.189
-0.134
-0.034
-0.195
-0.014
-0.154
-0.111
-0.101
-0.070
-0.156
-0.259
-0.122
-0.081
0.060
0.027
-0.163
0.021
-0.139
-0.096
-0.022
-0.012
-0.024
0.047
-0.071
-0.040
0.004
0.048
0.016
-0.074
0.005
-0.100
0.068
0.032
0.084
-0.017
0.075
0.002
0.092
0.015
-0.131
0.029
0.093
0.081
-0.036
-0.062
0.011
0.154
0.087
-0.060
-0.024
0.045
-0.102
0.078
0.055
-0.216
0.006
-0.036
-0.098
0.049
0.112
0.024
0.065
-0.064
-0.053
-0.111
-0.005
0.045
-0.035
0.085
-0.009
-0.028
0.069
-0.090
0.004
0.038
-0.083
-0.116
-0.070
0.063
0.030
0.166
-0.029
-0.062
-0.109
0.127
0.073
-0.089
-0.004
-0.013
0.050
0.056
0.056
0.014
0.153
0.097
0.087
0.026
0.033
0.063
-0.025
-0.006
0.030
0.181
0.145
-0.009
-0.040
-0.028
-0.026
-0.036
-0.031
-0.016
0.204
-0.109
-0.095
-0.053
0.052
-0.125
0.093
-0.021
-0.070
-0.036
-0.163
-0.050
-0.077
-0.021
-0.218
-0.157
0.022
-0.088
-0.101
-0.014
-0.040
0.033
-0.047
-0.026
0.007
0.034
0.088
0.010
-0.034
0.078
-0.069
0.124
-0.006
0.107
0.028
-0.001
0.031
-0.140
0.106
0.055
-0.004
0.073
-0.024
0.075
0.027
-0.002
-0.110
0.037
0.115
0.082
0.135
0.111
-0.034
0.029
0.139
0.221
0.415
0.371
-0.008
-0.485
-0.815
-0.486
0.426
0.515
0.281
-0.351
-0.579
-0.543
-0.367
-0.115
0.024
0.022
-0.088
0.025
-0.099
0.341
0.842
0.739
0.556
0.274
0.038
-0.663
-0.514
-0.104
0.228
0.289
0.135
0.163
0.724
0.501
0.060
-0.201
-0.385
-0.196
-0.080
0.041
0.235
0.337
0.354
0.310
0.020
-0.001
-0.031
-0.022
-0.165
-0.355
-0.361
-0.260
-0.394
-0.196
-0.118
-0.176
0.002
0.247
0.121
0.110
0.102
0.275
0.122
0.210
0.219
0.135
0.001
0.018
-0.140
-0.178
-0.145
-0.055
0.020
-0.013
-0.185
-0.184
-0.350
0.306
0.727
0.445
0.159
0.157
0.350
0.175
0.212
0.269
0.310
0.651
0.577
0.350
0.480
0.238
0.039
-0.054
0.000
-0.074
-0.103
-0.159
-0.142
-0.046
0.033
-0.052
0.037
-0.152
-0.444
-0.321
-0.232
-0.160
-0.137
-0.200
-0.243
0.033
-0.177
-0.344
-0.361
-0.147
-0.120
0.065
-0.003
-0.098
-0.058
0.064
-0.042
-0.076
-0.069
0.087
0.015
0.155
0.173
0.100
-0.004
0.100
0.128
0.151
0.092
0.254
0.168
0.030
0.040
0.011
-0.114
0.208
-0.015
0.120
0.184
-0.009
-0.012
-0.010
-0.122
-0.063
0.022
0.015
0.008
0.053
-0.156
-0.160
0.032
-0.074
-0.074
-0.029
0.049
-0.042
-0.004
-0.204
-0.182
-0.023
0.037
-0.001
-0.052
0.033
0.028
0.030
-0.046
0.062
-0.017
-0.066
-0.099
-0.066
0.033
0.077
0.098
0.070
0.098
0.173
0.180
-0.009
0.045
-0.074
0.104
0.341
0.123
0.124
0.096
0.063
0.056
0.243
0.112
0.070
0.092
0.045
0.068
0.132
0.139
-0.009
-0.072
0.038
0.027
0.114
0.028
0.019
-0.098
0.095
-0.005
0.038
-0.081
-0.057
0.087
0.049
0.022
0.004
0.083
-0.028
-0.070
-0.009
-0.044
0.004
0.032
0.232
0.193
0.239
0.204
0.161
0.305
0.093
0.042
0.105
0.132
0.175
0.182
0.087
0.066
-0.019
-0.103
0.045
0.102
-0.115
-0.224
-0.007
0.087
-0.031
-0.142
-0.083
-0.055
0.088
0.083
0.047
-0.029
0.026
0.133
0.103
0.164
0.123
0.026
0.158
0.125
0.087
0.132
0.097
0.162
0.124
0.103
0.034
0.162
0.199
0.038
0.045
0.134
0.157
0.146
0.214
-0.020
0.089
0.191
0.038
0.049
0.089
0.073
-0.110
0.103
0.097
0.023
0.016
0.085
0.081
-0.124
-0.071
0.034
-0.018
-0.008
0.062
-0.042
-0.011
-0.002
-0.147
0.055
-0.065
-0.064
-0.019
0.012
-0.141
0.115
0.064
-0.043
0.017
-0.026
-0.096
-0.048
0.048
-0.034
0.061
0.029
-0.042
-0.063
-0.047
-0.036
-0.011
-0.032
0.028
0.027
-0.032
0.072
-0.060
0.002
0.034
0.038
-0.014
-0.100
-0.011
0.072
0.002
0.081
0.122
0.073
0.058
0.045
-0.143
0.056
0.079
0.077
0.054
0.014
-0.048
-0.071
0.021
-0.049
0.097
-0.005
-0.023
0.042
-0.040
-0.078
0.050
0.070
0.011
-0.023
0.044
0.072
0.110
-0.031
0.021
0.045
-0.023
-0.012
0.045
0.021
0.126
-0.125
-0.019
0.090
0.068
0.201
-0.043
-0.085
-0.169
0.105
0.034
0.059
0.126
-0.066
-0.016
-0.008
0.008
0.095
0.027
0.102
-0.075
-0.033
0.137
0.044
-0.069
0.053
-0.044
0.045
0.050
0.058
0.009
0.079
0.055
-0.011
0.042
0.123
-0.047
-0.005
0.072
0.008
0.059
0.024
-0.025
0.097
-0.086
0.005
0.093
-0.019
0.077
-0.123
-0.080
0.023
-0.078
0.055
0.074
-0.040
-0.011
0.027
-0.046
0.047
-0.018
0.068
-0.013
-0.003
0.002
-0.038
0.008
0.097
0.066
0.038
-0.031
0.005
-0.077
0.044
0.038
-0.071
0.028
0.090
-0.014
0.037
0.109
-0.053
0.020
-0.035
-0.049
0.179
0.077
0.090
0.002
-0.012
0.013
0.089
-0.072
-0.027
0.168
0.062
0.035
0.087
0.105
-0.028
0.046
-0.119
-0.135
-0.045
0.068
-0.007
0.075
0.110
0.043
0.187
0.088
-0.042
-0.107
-0.041
0.096
0.193
0.050
-0.051
-0.027
0.052
0.134
0.061
-0.020
-0.082
-0.193
0.094
0.033
-0.035
0.027
-0.039
0.114
0.024
-0.191
0.042
-0.008
-0.018
0.131
0.143
-0.078
-0.134
0.080
-0.016
0.102
-0.016
0.044
0.067
-0.013
-0.113
-0.009
-0.005
0.170
-0.001
-0.042
0.033
0.083
0.084
-0.040
0.032
0.055
0.045
0.009
0.126
-0.118
-0.058
0.102
-0.031
-0.034
0.074
-0.083
0.122
0.071
-0.064
0.035
0.103
-0.011
-0.092
-0.033
0.034
-0.048
0.129
-0.012
0.116
-0.072
0.034
0.044
0.131
-0.007
0.013
0.061
-0.024
0.009
0.007
-0.040
0.001
0.013
0.079
0.077
0.120
-0.036
-0.069
0.057
0.036
0.036
-0.002
0.076
0.019
-0.079
-0.058
0.091
0.002
-0.001
0.025
-0.076
0.101
0.128
-0.061
-0.161
0.054
-0.032
0.042
0.107
0.013
0.056
-0.014
0.094
0.155
-0.028
0.077
0.028
0.142
0.002
0.062
-0.010
0.013
-0.092
0.083
0.131
0.028
0.037
0.005
-0.016
0.030
-0.002
-0.024
0.025
-0.024
0.132
-0.038
-0.001
0.052
0.046
-0.074
-0.158
0.098
0.107
-0.030
0.034
0.053
0.051
0.107
0.028
-0.098
0.123
-0.082
-0.119
-0.006
0.040
0.016
0.196
0.043
0.020
0.142
-0.005
0.014
0.044
0.056
-0.037
0.057
0.069
0.001
0.079
0.078
-0.011
0.045
-0.002
-0.055
-0.029
-0.043
0.014
0.086
-0.081
-2.976
-3.981
-2.533
0.600
3.359
4.379
-0.218
-3.184
-4.038
-0.748
3.192
4.317
4.525
3.618
1.775
3.386
3.779
3.782
3.653
3.496
3.341
2.584
0.700
-1.211
-2.923
-3.792
-4.264
-4.212
-3.789
-3.171
-2.476
-1.885
-1.292
-0.605
-0.139
0.250
0.417
0.451
0.593
0.731
0.617
0.461
0.564
0.642
0.540
0.680
0.661
0.690
0.684
0.821
0.809
0.794
-0.740
-2.696
-0.990
3.656
4.970
5.205
2.944
-2.044
-3.570
-3.983
-1.074
3.194
4.396
4.593
4.474
4.248
4.016
3.767
3.502
2.870
1.639
0.218
-1.171
-1.763
-2.905
-4.678
-5.531
-5.585
-3.027
-1.783
-2.071
-1.707
-1.737
-1.553
-1.559
-1.323
-0.652
-0.040
0.880
1.768
2.354
2.715
2.973
3.003
2.382
2.189
1.689
1.110
0.693
0.588
0.156
-0.367
-0.284
-0.096
0.042
0.072
0.232
0.185
0.260
0.355
0.445
0.461
0.338
0.364
0.546
0.542
0.519
0.446
0.381
0.435
0.279
0.131
0.256
0.179
0.153
0.196
0.190
0.235
0.160
0.064
0.196
0.233
0.140
0.014
-0.164
-0.061
0.014
-0.047
0.073
-0.024
-0.129
-0.209
-0.055
0.098
0.339
0.064
-0.199
-0.249
-0.223
-0.034
-0.036
-0.305
-0.163
-0.001
0.009
0.114
0.176
0.350
-0.168
-0.479
0.095
0.066
-1.187
-1.271
-0.339
0.479
0.656
0.647
0.493
0.852
0.773
0.843
0.283
-1.086
-2.868
-1.176
0.525
1.395
1.295
0.857
-0.042
-0.360
-0.546
-0.738
-0.537
-0.158
-0.117
-0.019
0.001
0.135
0.372
0.443
0.550
0.230
0.144
0.118
0.090
-0.073
-0.075
-0.187
-0.236
-0.090
-0.188
-0.132
-0.159
-0.139
-0.034
-0.033
-0.115
0.127
-0.165
-0.110
-0.027
-0.022
-0.023
-0.095
0.106
0.104
0.011
0.001
-0.087
-0.021
0.073
0.091
0.058
0.149
0.145
0.017
0.112
0.220
0.108
-0.035
0.091
0.189
-0.042
0.274
0.156
0.170
0.209
0.103
0.096
0.129
0.126
0.095
0.148
0.092
0.204
0.188
0.075
0.108
0.076
0.004
0.102
0.100
0.184
0.006
0.028
0.057
0.025
0.101
0.126
-0.035
0.074
-0.004
-0.080
0.025
-0.049
0.043
-0.046
0.098
0.066
-0.070
-0.101
-0.109
-0.103
-0.071
0.087
-0.096
-0.176
-0.122
-0.114
0.084
-0.064
-0.232
-0.119
-0.030
0.034
0.016
-0.081
-0.085
-0.139
0.067
-0.093
-0.109
-0.012
-0.028
0.101
0.075
-0.012
0.019
-0.100
0.087
0.062
-0.023
-0.003
-0.069
0.089
0.064
-0.031
0.104
0.094
0.027
0.158
-0.108
0.033
0.066
0.191
0.241
0.057
0.067
-0.036
0.061
0.060
0.122
-0.010
0.126
0.121
0.127
-0.015
-0.162
0.051
0.078
0.105
0.177
0.062
0.074
-0.001
-0.094
0.084
0.009
0.145
0.050
-0.037
-0.046
-0.046
0.137
0.030
0.028
0.069
0.032
0.051
-0.027
0.026
0.190
0.008
-0.049
0.077
-0.004
0.099
0.155
-0.028
-0.063
0.048
-0.002
-0.040
0.024
-0.025
0.093
-0.086
-0.008
-0.074
0.056
-0.061
0.029
0.076
0.107
-0.030
-0.053
0.048
-0.035
0.070
0.070
0.144
-0.027
-0.041
-0.082
0.075
0.031
0.029
0.041
-0.137
0.038
0.068
-0.047
0.060
0.049
-0.036
-0.001
0.036
0.106
0.101
0.101
0.018
-0.089
-0.128
0.092
-0.020
0.130
0.157
0.142
-0.009
-0.191
-0.030
-0.122
0.141
-0.032
0.206
0.152
-0.028
0.029
0.188
-0.110
-0.028
-0.026
-0.007
0.111
-0.021
0.045
0.117
-0.039
-0.050
0.037
0.073
0.190
-0.168
0.010
-0.002
0.078
-0.057
-0.047
-0.011
0.145
0.038
0.015
0.023
-0.028
-0.071
-0.041
0.027
0.104
0.150
0.065
-0.072
-0.028
0.010
-0.024
0.010
0.132
-0.061
0.126
0.085
0.061
0.126
-0.020
0.023
-0.042
-0.046
0.034
0.096
0.022
0.011
0.014
-0.073
-0.013
0.136
0.016
-0.100
0.035
-0.025
-0.069
0.017
-0.024
0.064
-0.035
0.076
0.066
-0.081
0.008
0.091
0.147
0.042
-0.051
0.052
0.028
0.057
0.112
0.036
-0.080
0.001
0.115
0.037
-0.053
-0.021
-0.009
0.036
0.052
0.004
0.075
0.033
-0.154
0.028
0.039
0.029
0.043
0.029
0.081
0.066
-0.015
0.090
0.206
0.091
-0.038
-0.098
-0.119
0.006
0.062
0.110
-0.050
-0.052
-0.041
0.036
0.062
-0.077
-0.012
-0.034
-0.033
0.066
0.103
0.044
0.031
0.080
-0.001
-0.140
0.039
0.179
0.050
0.025
0.015
0.007
-0.006
0.121
0.001
-0.001
0.089
0.068
0.040
-0.023
0.068
0.155
0.046
-0.004
0.034
-0.070
0.096
0.063
0.189
0.046
-0.070
0.086
0.015
-0.049
-0.106
-0.042
0.240
0.118
-0.021
-0.033
-0.006
0.063
0.154
0.111
0.029
0.082
0.218
0.245
0.505
0.892
0.634
0.365
0.070
0.237
0.184
0.244
0.277
0.355
0.310
0.187
0.063
0.045
-0.068
-0.260
-0.199
-0.138
-0.193
-0.335
-0.183
-0.106
0.044
-0.016
-0.151
0.071
0.224
0.153
0.238
0.202
0.141
0.080
0.198
0.219
0.107
0.182
0.228
0.082
0.090
0.249
0.232
0.160
0.094
0.167
0.182
0.206
0.099
-0.031
0.263
0.096
0.082
0.112
-0.016
0.182
0.071
0.105
0.066
0.031
-0.004
-0.092
0.057
-0.078
-0.014
-0.053
-0.099
-0.141
0.094
-0.121
-0.047
-0.141
0.067
-0.114
-0.077
0.033
-0.134
-0.195
-0.137
-0.019
-0.128
-0.116
-0.059
-0.142
-0.008
-0.002
-0.059
-0.079
-0.085
-0.090
-0.007
-0.018
0.013
-0.144
0.022
-0.180
-0.074
0.097
0.027
-0.022
-0.112
0.129
0.029
0.004
-0.068
0.063
0.019
0.057
-0.034
0.082
0.054
0.015
0.047
-0.017
0.131
0.075
0.083
-0.186
0.046
0.134
0.043
-0.110
0.088
0.104
0.043
-0.023
0.018
0.033
0.039
0.073
0.070
-0.086
0.023
0.012
0.003
0.079
-0.092
-0.150
0.135
0.031
0.007
0.005
-0.019
-0.012
0.065
0.044
-0.059
0.045
-0.021
0.002
0.115
0.047
0.028
-0.028
0.053
-0.035
0.065
-0.082
-0.000
-0.014
0.084
0.092
-0.089
-0.115
0.069
0.091
0.047
0.076
0.034
0.065
-0.021
0.064
0.086
-0.048
0.061
0.042
0.066
-0.030
-0.022
0.130
0.083
0.011
-0.141
0.003
0.057
0.061
0.051
0.077
0.022
-0.049
0.020
-0.072
0.015
-0.105
0.032
0.111
-0.064
-0.030
-0.006
0.031
0.076
-0.047
0.021
0.093
-0.035
-0.062
-0.023
-0.000
0.042
-0.099
0.004
0.070
0.020
-0.112
0.057
0.012
0.007
0.003
0.116
0.101
0.113
-0.047
-0.008
0.000
-0.017
0.025
0.171
-0.068
0.141
-0.039
0.062
-0.002
-0.023
0.005
0.124
0.175
0.015
0.011
-0.158
0.163
0.202
-0.069
-0.011
-0.103
0.070
0.070
0.028
0.086
0.081
0.001
0.069
0.052
0.035
0.042
-0.019
-0.057
-0.062
0.114
0.088
0.114
-0.019
-0.075
0.130
0.018
0.025
0.062
-0.044
-0.016
0.051
-0.036
-0.050
0.048
0.012
-0.057
0.083
0.143
-0.071
-0.063
0.010
0.025
-0.088
0.052
0.011
0.061
-0.033
-0.054
0.090
0.005
-0.070
0.062
0.113
-0.088
-0.030
-0.053
-0.015
0.035
0.019
-0.049
0.010
-0.035
0.119
-0.008
0.109
-0.060
-0.062
0.025
0.136
-0.020
-0.033
0.054
0.116
-0.087
-0.013
0.057
0.111
-0.037
0.111
-0.007
-0.096
0.111
-0.002
0.022
0.144
0.028
-0.007
-0.072
-0.050
0.043
0.023
0.060
0.048
0.057
-0.030
0.043
-0.007
0.084
0.169
0.050
-0.055
-0.036
-0.010
-0.071
0.010
-0.040
0.128
0.031
0.033
-0.086
-0.057
0.058
0.111
0.244
-0.019
-0.025
-0.079
0.082
0.082
0.050
0.040
-0.029
-0.164
0.030
0.068
0.155
-0.025
0.080
0.078
-0.371
-0.530
-2.908
-3.951
0.086
3.435
4.376
3.594
-2.016
-3.839
-4.295
-4.308
-1.868
2.957
4.362
4.678
3.288
-1.188
-0.403
0.507
2.347
3.433
1.704
-0.122
-1.457
-2.151
-2.372
-2.160
-1.493
-0.661
0.351
1.540
2.096
2.359
2.062
1.659
0.952
0.381
-0.153
-0.505
-0.884
-0.946
-1.008
-0.875
-0.707
-0.373
-0.247
-0.003
0.150
0.158
0.304
0.251
0.358
0.179
0.372
0.477
0.550
0.530
0.317
0.237
0.215
0.272
0.585
0.335
0.509
0.497
0.600
0.605
0.593
0.265
0.379
0.332
0.263
0.359
0.435
0.289
0.162
0.351
0.175
0.259
-0.195
-0.166
0.389
1.600
1.073
-0.463
-2.659
-0.744
1.870
1.877
1.116
0.446
0.291
-0.031
0.096
-2.207
-3.429
0.975
2.993
2.273
0.883
-0.267
-0.766
-0.887
-0.735
-0.448
-0.072
0.098
0.217
0.072
0.036
-0.081
-0.052
-0.174
-0.187
-0.180
-0.264
-0.385
-0.321
-0.404
-0.332
-0.122
-0.028
0.235
0.273
0.091
0.063
0.071
-0.016
0.138
0.400
0.246
0.261
0.069
0.012
0.008
0.144
0.209
-0.089
-0.012
0.093
0.249
0.237
0.283
0.110
0.056
-0.082
0.086
0.076
0.162
0.078
0.097
0.122
0.165
0.083
0.081
0.005
-0.145
-0.040
0.022
-0.202
-0.040
0.007
-0.197
-0.085
-0.277
-0.146
-0.074
-0.073
-0.210
-0.134
-0.110
0.006
-0.230
-0.239
-0.168
-0.127
-0.076
-0.047
-0.121
-0.124
-0.063
-0.153
0.009
-0.252
-0.158
-0.362
-0.186
0.146
0.119
0.061
0.204
0.099
0.079
0.079
-0.023
-0.140
-0.041
0.095
0.223
0.450
0.444
0.238
-0.004
-0.134
-0.039
0.191
0.151
0.009
-0.082
0.025
-0.247
0.105
-0.041
0.154
0.062
0.018
-0.045
0.020
0.053
0.020
-0.042
-0.026
-0.072
-0.033
0.013
-0.064
-0.141
-0.161
-0.027
0.182
0.172
0.077
-0.081
-0.269
-0.078
-0.057
0.187
-0.038
0.059
0.015
-0.055
-0.010
0.121
0.009
-0.071
-0.025
0.069
-0.064
0.024
0.199
0.122
-0.052
0.049
0.092
-0.003
0.004
-0.149
0.000
0.335
0.248
0.066
-0.246
-0.141
0.023
0.375
0.339
0.133
0.049
-0.216
-0.511
-2.147
2.371
3.577
2.280
0.820
-0.304
-0.497
-0.296
0.068
0.383
0.718
0.814
0.822
0.587
0.431
0.368
-0.021
-0.277
-0.392
-0.766
-0.558
-0.512
-0.352
-0.188
-0.263
-0.112
-1.083
-0.076
0.450
0.461
0.309
0.302
0.182
-0.057
0.190
0.132
0.280
0.402
0.315
0.425
0.329
0.350
0.364
0.359
0.300
0.203
0.280
0.222
0.177
0.244
0.257
0.127
0.208
0.251
0.196
0.104
0.105
0.057
0.152
0.081
0.129
0.026
-0.062
-0.022
-0.069
0.050
-0.022
0.048
0.022
0.123
0.075
-0.061
-0.172
-0.178
-0.116
-0.154
0.027
-0.065
-0.008
-0.444
-0.557
0.033
-0.371
-3.329
1.306
3.576
3.320
0.818
-0.806
-2.560
-2.962
-3.193
-2.138
2.614
4.024
4.339
4.305
1.756
-1.184
-2.274
-1.611
0.019
1.776
3.229
3.802
3.882
3.556
2.759
1.770
0.538
-0.513
-1.372
-1.774
-1.911
-2.004
-1.892
-1.516
-1.241
-0.795
-0.444
-0.002
0.348
0.421
0.517
0.784
0.638
0.729
0.597
0.621
0.729
0.695
0.712
0.822
0.654
0.762
0.789
0.757
0.928
0.762
0.752
0.911
0.812
0.807
0.787
0.667
0.734
0.750
0.636
0.629
0.493
0.498
0.470
0.318
0.338
0.249
0.360
0.221
0.078
0.133
-0.011
-0.078
-0.104
-0.127
-0.249
-0.245
-0.205
-0.319
-0.219
-0.357
-0.399
-0.533
-0.345
-0.405
-0.403
-0.444
-0.246
-0.430
-0.479
-0.418
-0.428
-0.388
-0.263
-0.294
-0.328
-0.372
-0.179
-0.260
-0.298
-0.251
-0.369
-0.241
-0.147
-0.061
-0.161
-0.424
-1.363
-2.969
-3.996
-4.167
-4.081
-0.996
2.923
3.772
1.934
-0.265
-2.089
-2.524
-1.851
-0.396
1.349
2.966
4.180
4.591
4.521
4.356
4.054
3.330
2.234
1.095
0.273
-0.236
-1.009
-1.456
-1.648
-1.782
-1.539
-1.337
-1.382
-0.746
-0.661
-0.590
-0.370
-0.255
-0.100
-0.114
-0.109
0.004
0.003
-0.024
-0.025
-0.051
0.111
0.258
0.527
0.555
0.657
0.736
0.726
0.639
0.499
0.599
0.726
0.849
0.968
0.811
0.847
0.791
0.844
0.599
0.668
0.726
0.970
0.779
0.733
0.774
0.602
0.590
0.419
0.413
0.455
0.549
0.522
0.425
0.379
0.294
0.268
0.122
0.019
0.092
0.153
0.013
-0.039
-0.207
-0.112
-0.111
-0.195
-0.146
-0.309
-0.289
-0.353
-0.376
-0.455
-0.442
-0.487
-0.496
-0.409
-0.501
-0.358
-0.485
-0.400
-0.424
-0.343
-0.402
-0.264
-0.324
-0.333
-0.370
-0.214
-0.153
-0.370
-0.239
-0.138
-0.084
-0.108
-0.057
-0.180
-0.032
-0.043
-0.064
0.073
-0.002
0.063
0.178
0.047
0.113
0.088
0.191
0.176
0.110
0.113
0.146
0.130
0.115
0.026
0.188
0.203
0.254
0.235
0.144
0.208
0.216
0.068
0.158
0.081
0.149
0.177
0.331
0.168
0.191
0.047
0.027
0.319
0.117
0.119
-0.154
0.068
0.117
0.097
-0.057
0.006
0.049
0.010
0.057
-0.022
-0.062
-0.052
-0.023
0.101
-0.051
-0.134
0.034
0.093
0.194
-0.055
-0.004
0.103
0.033
0.001
0.145
0.044
0.018
0.041
0.085
0.089
0.127
0.067
-0.033
-0.011
0.053
0.072
0.015
-0.005
-0.018
0.016
0.102
-0.051
-0.018
-0.059
0.098
-0.048
-0.026
-0.032
0.017
-0.062
-0.040
0.040
-0.096
0.103
0.029
-0.036
-0.054
-0.096
0.166
0.080
-0.006
0.024
0.073
-0.083
-0.013
-0.103
0.074
0.087
0.034
-0.040
-0.036
-0.032
-0.031
-0.062
0.067
0.031
0.005
-0.127
0.116
0.037
-0.251
-0.280
-0.060
-0.086
-0.007
0.121
0.179
0.001
0.078
0.161
0.176
-0.020
-0.070
-0.041
0.076
0.223
0.284
0.127
0.156
0.183
0.042
-0.035
0.023
0.024
0.025
0.129
0.094
0.205
0.116
-0.059
0.059
0.156
0.124
0.049
0.034
-0.075
0.020
0.073
0.036
0.025
0.102
-0.029
-0.014
0.194
0.035
0.002
0.068
-0.004
-0.070
0.044
0.020
0.029
-0.053
-0.071
-0.005
-0.125
-0.115
-0.010
-0.038
0.122
-0.038
-0.008
-0.090
-0.108
-0.022
0.066
0.049
0.114
0.074
0.043
-0.134
-0.019
-0.114
0.005
-0.071
-0.207
-0.066
-0.043
0.110
0.164
0.131
-0.148
-0.038
-0.165
-0.315
-0.194
0.051
0.024
0.077
0.010
0.049
-0.048
0.001
-0.070
0.125
0.072
0.032
-0.058
0.032
0.094
0.037
0.058
0.365
0.283
0.087
-0.022
0.008
-0.024
0.072
0.031
0.054
-0.111
0.093
0.051
0.092
-0.034
0.003
-0.023
-0.224
0.000
-0.024
0.053
0.093
0.007
-0.066
0.024
0.102
0.217
0.058
-0.018
0.033
0.093
0.162
0.048
0.076
0.029
0.037
-0.075
0.057
0.039
0.146
0.028
-0.001
0.019
0.059
0.031
-0.088
-0.074
-0.015
-0.009
0.015
0.100
0.116
-0.061
-0.107
-0.012
-0.005
0.054
0.004
-0.172
0.102
-0.036
0.064
0.048
0.021
-0.134
0.196
0.180
-0.066
-0.112
-0.066
-0.034
0.031
0.219
-0.008
-0.023
0.020
0.001
-0.005
-0.070
0.043
0.145
0.141
-0.067
-0.042
-0.011
-0.024
-0.082
0.100
-0.004
0.063
0.049
0.029
0.071
-0.029
-0.152
0.039
-0.038
0.137
0.149
0.243
0.018
0.000
0.095
0.139
0.022
0.094
0.044
0.026
0.117
0.137
0.112
-0.107
-0.078
0.129
-0.071
0.015
-0.047
0.095
-0.026
-0.052
-0.058
-0.066
-0.068
0.148
0.026
0.088
-0.096
-0.004
0.040
0.043
-0.033
0.041
0.010
0.028
0.142
-0.038
-0.040
-0.037
0.020
0.029
0.104
0.015
0.034
-0.064
-0.038
0.112
0.002
0.011
-0.026
0.285
0.124
-0.021
0.117
0.167
0.112
0.183
0.275
0.393
0.680
0.633
0.526
0.166
-0.019
0.233
0.187
0.174
0.189
0.176
0.148
0.053
0.073
-0.096
-0.128
-0.151
-0.264
-0.188
-0.107
-0.183
-0.248
-0.209
-0.090
0.219
0.091
0.237
0.192
0.146
0.232
0.070
0.105
0.249
0.139
0.225
0.133
0.203
0.228
0.267
0.253
0.081
0.046
0.152
0.135
0.215
0.170
0.088
0.112
0.214
0.087
0.027
0.043
0.097
0.190
0.081
0.086
-0.004
0.028
0.015
0.022
0.108
0.033
0.011
-0.008
-0.115
-0.040
0.090
0.026
0.032
-0.061
-0.166
-0.085
-0.084
-0.004
-0.121
0.029
0.036
-0.142
-0.202
0.046
0.059
-0.167
-0.033
-0.036
0.039
-0.076
-0.100
-0.080
-0.004
-0.036
-0.026
0.034
0.075
-0.062
0.076
-0.040
-0.022
-0.023
0.036
0.122
-0.013
0.002
-0.001
-0.085
-0.073
0.030
0.112
-0.134
0.023
0.058
0.005
0.020
0.017
-0.017
0.089
-0.044
0.046
0.041
0.056
0.055
0.044
0.079
0.024
0.040
0.004
0.059
-0.069
0.145
0.010
-0.049
0.091
0.064
0.088
0.079
0.091
-0.083
-0.044
-0.002
0.102
0.128
-0.014
-0.040
0.068
-0.097
0.062
0.086
-0.020
0.110
0.017
-0.154
0.068
0.073
0.041
-0.035
0.052
0.067
0.051
0.041
0.091
-0.002
-0.065
0.095
0.058
-0.104
0.023
0.050
-0.001
-0.049
-0.051
0.044
-0.013
0.077
0.041
0.077
0.059
-0.019
0.040
0.037
0.067
-0.050
0.006
0.052
0.097
-0.101
0.035
0.175
-0.007
-0.043
0.021
-0.129
0.079
0.057
0.023
0.006
0.001
-0.008
0.002
-0.047
0.028
-0.044
-0.114
0.119
0.136
0.005
-0.010
0.088
-0.033
-0.145
0.003
0.074
-0.050
0.107
0.063
0.026
-0.001
-0.032
-0.144
-0.000
0.141
-0.072
0.006
0.018
-0.060
0.049
0.036
0.062
0.059
0.060
0.105
0.074
0.025
-0.083
-0.128
0.081
0.065
0.070
0.118
0.090
0.201
-0.077
-0.053
0.063
0.016
0.006
0.027
-0.031
-0.095
0.064
-0.072
-0.629
-2.609
-3.848
-4.103
-4.083
-3.943
-3.784
1.397
4.279
3.634
3.884
2.959
-0.494
-2.989
-2.749
-0.110
3.075
4.234
4.431
4.341
4.123
3.901
3.672
3.457
2.973
1.353
-0.721
-2.394
-3.395
-3.931
-3.792
-3.491
-2.850
-2.067
-1.412
-0.782
-0.417
-0.016
0.228
0.393
0.336
0.393
0.453
0.222
0.221
0.161
0.114
0.112
0.305
0.329
0.404
0.471
0.502
0.538
0.653
0.750
0.637
0.702
0.749
0.836
0.889
0.900
0.704
0.642
0.809
0.624
0.558
0.699
0.586
0.579
0.573
0.565
0.431
0.388
0.449
0.330
0.259
0.217
0.142
0.239
0.094
0.059
-0.042
-0.054
-0.011
0.005
-0.105
-0.248
-0.028
-0.123
-0.178
-0.183
-0.278
-0.281
-0.223
-0.272
-0.326
-0.312
-0.399
-0.324
-0.359
-0.216
-0.266
-0.253
-0.321
-0.206
-0.288
-0.254
-0.214
-0.094
-0.132
-0.140
-0.125
-0.167
-0.212
-0.120
-0.091
0.032
-0.141
-0.091
0.030
0.008
0.081
0.014
-0.033
0.073
0.072
0.092
0.197
0.062
-0.022
0.141
0.118
0.048
0.174
0.090
0.045
0.132
0.054
0.185
0.203
0.082
0.077
0.088
0.001
-0.020
0.160
0.084
0.063
0.008
0.105
-0.112
0.124
0.037
-0.016
-0.013
-0.022
-0.034
0.051
0.007
0.064
-0.018
-0.054
0.081
-0.072
0.048
0.057
0.861
1.117
1.024
0.474
0.127
0.138
-1.504
-3.619
-0.680
1.911
3.008
2.696
1.164
-0.212
-1.018
-1.137
-0.702
-0.135
0.473
0.807
0.982
-1.625
-2.004
2.398
3.740
2.413
0.460
-1.027
-1.812
-1.998
-1.232
-0.786
-0.010
0.564
1.072
1.287
1.154
1.088
1.041
0.724
0.578
0.191
0.014
-0.194
-0.148
-0.219
-0.291
-0.183
-0.109
0.055
0.076
0.078
0.038
0.256
0.152
0.071
0.086
0.105
0.102
0.115
0.065
0.151
0.006
0.010
0.003
0.040
0.147
0.858
1.187
0.814
-0.147
-0.003
0.392
0.399
0.077
-1.003
0.077
0.941
1.134
0.491
0.062
-0.284
-0.309
-0.392
-0.382
-0.126
-0.304
-3.062
-3.157
1.979
3.961
3.188
0.894
-0.880
-1.806
-1.858
-1.207
-0.434
0.403
1.240
1.628
1.852
1.856
1.485
1.172
0.756
0.389
0.024
-0.206
-0.326
-0.506
-0.465
-0.351
-0.419
-0.262
-0.157
0.061
-0.048
0.100
0.130
0.163
0.044
0.127
0.162
0.008
0.083
0.093
0.069
0.105
0.093
0.125
0.062
0.038
0.175
0.011
-0.062
0.177
0.180
0.141
0.074
0.123
-0.056
0.075
0.101
0.256
0.084
0.011
0.095
0.137
0.045
0.064
0.063
-0.037
0.041
-0.016
0.134
0.130
-0.055
0.005
-0.089
0.049
0.006
-0.005
0.110
-0.099
0.055
0.000
-0.093
-0.031
-0.002
0.051
0.091
0.021
-0.004
-0.103
-0.037
0.053
0.002
-0.070
0.032
0.163
0.083
0.026
-0.041
-0.062
-0.052
0.045
-0.004
-0.027
0.039
-0.040
0.133
-0.015
0.019
-0.178
0.056
0.081
0.014
0.042
-0.066
0.014
0.057
-0.019
0.112
-0.004
0.083
-0.076
-0.016
0.057
0.112
0.009
-0.067
0.041
0.018
0.084
0.084
0.070
0.026
-0.043
0.018
-0.018
0.014
-0.048
0.030
0.086
0.010
-0.018
0.090
0.042
-0.019
0.039
0.059
-0.077
-0.017
0.118
-0.011
-0.030
0.096
-0.000
0.079
-0.030
0.004
0.077
-0.047
0.007
0.115
0.037
-0.093
-0.015
0.081
0.002
0.053
-0.138
0.134
0.091
-0.043
-0.034
0.039
0.235
-0.003
-0.078
0.041
-0.045
0.105
-0.005
0.085
-0.030
0.103
0.105
-0.053
0.106
-0.021
0.043
0.002
0.089
0.028
0.096
-0.012
-0.035
-0.122
-0.071
0.017
-0.005
0.118
-0.004
-0.037
0.125
-0.075
0.012
0.001
0.031
-0.045
0.080
0.091
0.093
-0.051
-0.037
-0.086
-0.032
-0.007
0.087
0.038
0.074
-0.000
-0.046
0.083
-0.032
0.012
0.057
0.032
-0.028
0.035
-0.020
0.000
0.186
-0.012
-0.055
-0.053
-0.007
0.095
-0.009
-0.047
0.030
0.094
0.089
0.008
0.051
-0.028
-0.026
0.120
0.010
0.080
0.030
-0.002
0.097
-0.010
-0.022
-0.048
0.152
-0.002
-0.051
0.024
0.052
0.132
0.056
-0.097
0.097
0.163
0.026
-0.034
0.042
0.106
-0.041
0.206
0.024
0.092
0.016
0.066
0.120
0.017
0.026
0.003
-0.031
0.036
-0.012
0.067
0.055
0.038
0.006
0.002
0.038
0.027
0.059
0.031
0.055
0.023
-0.023
0.000
0.041
0.004
-0.010
-0.052
0.080
0.056
-0.051
-0.112
-0.121
0.068
0.111
-0.068
0.037
-0.017
0.038
0.050
0.017
0.017
0.060
0.080
0.026
0.028
-0.119
0.064
0.068
0.016
-0.019
0.181
-0.049
0.046
0.069
-0.150
-0.075
0.051
0.061
-0.035
0.102
-0.005
-0.016
-0.007
0.036
0.043
0.083
0.045
-0.126
0.155
0.003
-0.048
-0.068
0.041
0.099
0.058
0.070
-0.015
0.029
0.037
0.038
0.044
0.007
-0.006
0.132
0.075
0.037
0.042
0.047
-0.126
0.078
0.083
0.003
-0.083
0.021
0.045
0.117
0.032
0.037
-0.003
-0.003
-0.032
0.078
0.048
0.001
0.026
0.132
-0.012
0.015
0.037
0.028
0.058
0.047
-0.018
0.087
0.014
0.091
-0.017
-0.014
0.066
0.043
0.075
-0.054
-0.100
-0.024
0.131
0.072
-0.083
0.061
0.029
0.135
0.006
-0.008
-0.023
0.117
0.033
-0.025
0.079
-0.096
0.186
-0.045
-0.012
0.024
0.105
0.078
-0.071
0.018
0.035
0.030
-0.024
0.008
0.068
0.015
0.005
0.008
-0.047
-0.013
0.013
0.068
0.021
0.036
-0.019
0.034
-0.100
-0.022
0.052
0.116
-0.040
0.066
0.009
-0.013
0.071
-0.013
0.026
-0.026
-0.062
-0.010
-0.025
0.107
0.196
-0.061
-0.014
0.004
0.016
0.045
-0.001
0.039
0.017
-0.025
-0.137
0.103
0.137
0.093
-0.109
0.006
-0.011
0.114
0.039
-0.018
0.094
0.087
-0.120
0.009
0.061
-0.011
0.087
0.023
0.065
0.005
0.013
0.065
-0.014
0.047
0.032
-0.007
0.067
0.062
0.125
-0.054
0.045
0.037
-0.049
0.059
0.031
-0.125
0.079
-0.035
0.090
0.018
0.029
0.005
0.086
0.016
0.044
-0.059
0.106
0.132
0.022
-0.075
0.112
-0.117
0.063
0.112
0.095
0.006
0.158
0.012
-0.060
0.083
-0.094
0.096
0.028
-0.011
-0.120
0.021
0.119
-0.089
0.075
-0.024
-0.030
0.015
-0.031
-0.098
0.039
0.210
0.110
0.033
0.061
0.024
-0.131
-0.062
-0.005
-0.002
0.155
0.133
-0.001
0.070
-0.080
0.065
0.071
-0.076
0.034
0.073
-0.057
0.154
-0.050
-0.010
0.096
0.086
0.051
-0.001
0.056
0.073
0.080
0.067
-0.128
-0.066
0.122
0.016
-0.028
0.077
-0.029
0.069
0.127
-0.030
0.045
-0.118
0.012
0.129
0.029
-0.097
0.070
-0.019
0.019
0.136
0.055
-0.044
-0.043
0.202
0.080
-0.085
0.060
0.111
0.004
0.010
-0.026
0.022
0.002
0.091
-0.033
0.165
0.054
0.035
-0.020
0.098
0.093
-0.061
0.073
0.105
-0.033
0.104
0.022
-0.010
0.125
-0.037
0.005
0.091
0.058
0.057
0.013
0.047
-0.044
-0.035
0.013
0.074
0.066
-0.066
-0.038
-0.077
0.061
-0.023
0.014
0.035
0.072
0.132
0.063
0.025
0.023
-0.067
-0.001
-0.035
0.044
0.183
-0.075
0.087
0.038
-0.040
-0.094
0.179
0.082
-0.019
-0.033
-0.084
0.066
0.017
0.020
-0.006
0.144
0.060
-0.044
0.007
-0.009
-0.018
-0.040
-0.036
0.132
-0.013
0.029
0.106
0.020
-0.096
-0.025
0.036
0.165
-0.053
-0.118
0.093
0.037
0.020
0.084
-0.068
-0.013
-0.040
0.045
-0.013
0.008
-0.056
0.075
0.012
-0.030
0.114
-0.041
0.050
-0.048
0.084
0.028
-0.006
0.007
0.087
0.039
-0.027
-0.069
-0.021
0.059
0.055
0.015
0.101
-0.041
0.055
0.049
-0.058
-0.081
0.043
0.016
0.053
-0.052
-0.044
0.064
0.162
-0.014
0.048
-0.021
-0.019
0.028
0.024
0.031
-0.089
0.092
0.195
-0.050
0.062
-0.120
0.026
0.062
-0.070
-0.004
0.136
0.053
-0.025
0.065
-0.070
0.038
-0.003
0.057
-0.008
0.066
0.106
0.056
-0.025
0.084
-0.012
0.035
-0.041
0.099
0.031
-0.085
0.028
0.082
-0.070
0.117
-0.100
-0.075
-0.014
-0.014
0.185
0.001
0.070
0.183
0.023
-0.022
0.011
-0.088
0.186
0.021
0.063
-0.142
0.074
-0.044
0.146
0.095
0.029
-0.031
0.043
-0.049
0.115
0.017
0.112
-0.149
-0.028
0.080
0.115
0.109
0.030
-0.147
0.060
0.007
-0.136
0.185
0.057
0.078
0.042
-0.006
0.054
0.035
-0.015
0.039
0.058
-0.062
0.131
-0.070
-0.032
0.124
0.048
-0.045
-0.059
-0.012
0.021
0.008
0.037
0.050
-0.065
0.004
0.113
0.010
0.009
0.129
-0.095
-0.019
0.067
0.113
0.048
0.136
-0.021
-0.017
-0.085
-0.012
-0.046
0.093
0.109
0.079
0.035
-0.009
-0.038
0.021
0.053
-0.035
0.056
0.044
-0.105
0.074
0.233
0.064
-0.054
0.057
0.132
-0.056
-0.010
-0.016
0.028
0.035
-0.048
-0.069
0.075
0.054
-0.045
0.124
0.012
0.031
0.016
0.018
0.046
-0.045
0.052
0.045
-0.035
-0.014
0.107
0.019
0.083
-0.093
0.095
0.166
-0.020
0.028
0.032
0.100
0.049
-0.080
0.114
-0.197
0.043
0.083
0.079
-0.122
0.071
-0.040
-0.032
0.101
0.022
0.042
0.035
-0.008
0.020
0.024
0.038
0.036
0.006
0.145
0.061
-0.009
-0.116
0.153
0.097
0.002
0.112
-0.066
0.060
-0.049
0.049
-0.088
0.028
0.086
0.022
-0.008
-0.106
0.040
0.081
0.084
0.057
0.006
-0.012
0.091
-0.040
-0.087
0.044
0.091
0.020
0.031
0.001
0.064
-0.036
0.065
0.022
0.013
0.045
-0.016
0.073
-0.059
-0.020
-0.060
0.052
0.118
0.042
-0.041
-0.063
-0.015
0.147
0.038
-0.081
0.037
0.181
-0.016
-0.007
-0.049
0.103
0.105
-0.031
-0.021
0.013
0.120
-0.024
-0.026
0.077
0.029
0.088
-0.086
-0.027
0.100
-0.006
0.071
0.050
0.002
-0.036
0.032
0.027
0.091
-0.048
0.122
0.080
0.561
0.925
-1.300
-1.294
-0.075
0.679
0.290
0.300
0.139
0.629
0.050
-0.838
0.104
1.041
0.320
0.501
0.488
0.312
0.138
-2.593
-2.383
0.217
1.550
1.385
0.632
-0.081
-0.717
-0.869
-0.676
-0.538
-0.151
0.146
0.336
0.513
0.438
0.615
0.597
0.410
0.240
0.138
-0.123
-0.004
-0.001
-0.152
-0.139
0.004
-0.048
-0.116
0.022
-0.139
0.015
0.021
0.047
0.173
-0.011
0.139
0.078
-0.143
-0.093
0.128
-0.008
0.213
0.820
0.035
-1.168
-0.125
0.911
1.079
0.962
-1.306
-2.245
-0.292
0.942
1.050
0.508
-0.014
-0.348
-0.396
-0.510
-0.272
-0.012
0.815
0.040
0.831
1.183
0.637
0.535
0.377
0.092
-1.310
0.345
1.141
0.913
0.458
0.122
-0.082
-0.321
-0.292
-0.227
-0.046
-0.157
-0.038
0.144
0.027
-0.027
0.032
0.077
-0.031
-0.041
-0.023
0.017
0.063
-0.031
0.080
-0.088
-0.003
0.028
0.250
0.122
0.091
0.358
0.112
0.122
0.110
0.153
0.304
0.168
0.143
0.074
0.241
0.080
0.165
0.070
0.155
-0.060
0.086
0.092
0.029
0.047
-0.002
-0.042
0.032
-0.078
0.044
-0.002
0.061
0.052
-0.066
-0.025
-0.037
-0.118
0.028
-0.006
-0.084
-0.082
-0.155
-0.075
-0.038
-0.117
-0.022
-0.114
-0.262
-0.090
-0.272
-0.155
-0.391
-0.351
-0.393
-0.128
0.280
-0.049
-0.393
-0.332
-0.134
0.088
0.012
0.193
0.199
0.173
0.194
0.075
0.238
0.197
0.255
0.221
0.221
0.172
0.052
0.048
0.056
-0.057
-0.088
0.000
-0.173
-0.185
-0.143
-0.024
-0.150
-0.065
0.076
-0.098
0.033
0.091
-0.120
0.014
-0.096
-0.020
-0.007
0.055
0.079
0.125
0.038
0.149
-0.009
0.094
-0.118
0.061
0.169
0.131
0.140
0.085
0.162
0.134
0.039
0.133
0.062
0.113
-0.041
0.075
0.092
-0.033
0.035
0.014
0.058
0.033
-0.055
0.149
0.049
0.082
0.049
-0.076
0.074
-0.042
0.035
-0.021
0.082
0.031
0.023
0.140
-0.014
-0.127
0.068
0.019
-0.022
-0.030
0.018
0.067
-0.028
-0.001
-0.122
-0.039
0.050
0.020
0.027
-0.061
0.030
-0.040
0.085
-0.164
-0.047
0.024
-0.072
-0.007
-0.070
0.037
-0.173
-0.088
0.010
0.030
-0.090
0.085
-0.062
-0.055
-0.077
-0.012
0.015
-0.128
-0.046
-0.140
-0.083
0.120
0.087
0.001
-0.073
0.025
0.039
-0.015
0.083
-0.085
-0.044
0.004
0.089
0.027
-0.019
-0.038
0.049
-0.020
-0.075
0.113
-0.134
0.007
0.009
-0.080
-0.018
-0.052
0.123
-0.051
-0.029
0.067
0.068
0.156
-0.039
-0.112
-0.061
0.094
-0.057
0.004
0.081
-0.058
0.065
0.078
-0.011
-0.067
-0.086
-0.144
0.069
0.111
0.102
0.091
-0.047
0.084
-0.040
-0.106
0.075
0.062
0.053
0.022
-0.129
0.046
-0.030
0.058
0.035
-0.082
-0.038
0.006
-0.026
-0.099
-0.027
-0.007
-0.111
0.052
0.117
0.007
0.059
-0.080
-0.050
0.065
0.131
-0.090
0.027
0.034
0.063
-0.049
-0.034
0.023
0.114
-0.049
-0.004
-0.027
0.055
0.027
0.004
-0.044
-0.118
-0.044
0.007
-0.046
0.095
-0.052
-0.075
0.038
0.109
0.041
0.036
0.032
-0.053
-0.153
-0.113
-0.012
0.057
-0.088
-0.003
-0.007
0.040
0.034
0.107
0.095
-0.006
-0.103
-0.132
0.026
-0.039
0.132
0.121
0.166
0.130
0.091
0.070
-0.019
-0.006
0.041
-0.023
0.013
0.135
-0.013
0.007
-0.002
0.023
-0.126
-0.058
0.018
0.085
-0.034
-0.016
-0.212
-0.184
-0.016
0.015
-0.010
0.029
0.008
-0.001
-0.099
-0.077
0.117
0.124
0.107
-0.030
0.038
0.141
-0.096
-0.076
-0.261
-0.028
0.117
0.040
-0.032
0.130
-0.030
-0.070
-0.185
-0.075
-0.024
0.209
0.150
0.103
0.000
-0.023
-0.122
-0.033
0.214
0.306
0.129
0.168
-0.103
-0.169
-0.151
-0.146
-0.030
-0.036
0.072
0.082
0.045
0.024
0.029
-0.117
0.036
-0.034
0.212
0.066
0.098
0.218
0.108
0.060
0.236
0.121
0.013
-0.022
0.091
0.164
0.039
0.049
0.024
-0.040
-0.148
-0.120
-0.149
-0.108
-0.022
0.062
-0.035
-0.168
0.082
-0.024
-0.178
0.060
-0.001
0.024
0.130
0.055
-0.024
0.016
-0.360
-0.521
-0.059
0.277
0.277
0.070
-0.170
-0.294
-0.033
-0.015
-0.061
-0.024
0.135
0.099
0.016
0.055
0.259
0.103
-0.176
-0.187
-0.195
0.049
-0.272
0.050
0.228
0.088
0.209
0.056
-0.123
-0.069
0.058
0.071
0.174
-0.082
0.050
0.134
0.033
-0.023
-0.012
-0.020
-0.097
-0.231
-0.195
-0.104
-0.209
-0.142
-0.125
-0.227
-0.226
0.009
0.114
-0.120
-0.164
0.016
-0.008
-0.260
-0.013
0.043
0.215
0.131
0.011
0.092
-0.017
0.062
0.007
0.168
0.154
0.156
0.130
0.129
0.082
0.056
0.194
0.157
0.055
0.113
0.033
0.104
0.088
0.154
-0.012
0.012
-0.015
0.020
0.091
0.072
-0.008
-0.036
0.089
0.021
0.053
0.167
0.143
-0.027
0.031
0.157
0.126
-0.286
-0.169
0.053
0.157
0.111
0.139
0.105
0.064
0.030
-0.193
-0.440
-0.480
-0.324
-0.219
-0.037
-0.290
-0.611
-0.049
0.346
-0.023
-0.654
-0.741
-0.584
-0.183
-0.272
0.189
0.495
0.449
0.222
-0.120
-0.664
-0.629
-0.329
-0.612
0.060
0.205
0.221
0.314
-0.216
-0.566
-1.377
-0.966
0.532
1.329
1.391
1.203
1.676
1.488
0.862
0.380
0.494
0.690
0.919
0.685
0.609
0.396
0.175
-0.061
-0.328
-0.345
-0.882
-0.812
-0.907
-0.876
-0.886
-0.777
-0.630
-0.347
-0.177
-0.206
0.044
0.144
0.007
0.051
0.221
0.325
0.206
0.323
0.211
0.017
-0.310
0.108
0.190
0.310
0.095
0.165
-0.149
-0.274
-1.019
-2.923
-0.416
1.495
1.302
0.660
-0.067
0.687
-0.037
-1.063
-0.921
0.098
1.709
1.963
1.658
1.174
0.911
0.525
0.170
-0.769
-0.890
-0.074
0.186
0.212
-0.039
-0.261
-0.487
-0.766
-0.702
-0.544
-0.598
-0.337
-0.243
-0.226
-0.138
0.004
0.115
0.349
0.287
-0.177
-0.336
-0.118
-0.116
-0.826
-0.967
-0.385
-0.524
-0.341
-0.145
0.059
-0.145
-0.304
-0.306
-0.129
-0.050
-0.020
0.262
0.356
0.236
-0.582
-0.376
0.282
0.634
0.686
0.650
0.592
0.352
0.286
0.248
0.338
0.582
0.502
0.540
0.678
0.391
0.588
0.622
0.447
0.456
0.720
0.626
0.505
0.071
-0.172
-0.130
-0.021
0.013
0.099
0.378
0.412
0.309
0.333
-0.119
-0.028
-0.193
-0.181
-0.034
0.232
-0.070
0.221
-0.104
-0.079
0.104
0.292
0.133
0.150
0.119
0.174
0.251
0.195
0.096
0.090
0.137
0.039
0.161
0.160
0.037
0.214
0.027
-0.106
-0.039
-0.114
-0.064
0.046
0.061
-0.113
-0.075
-0.200
-0.300
-0.229
-0.796
-0.428
0.332
0.399
-0.162
-1.319
0.980
1.497
0.283
-2.968
-1.665
2.322
3.453
2.612
0.893
-0.492
-1.062
-1.077
-0.824
-0.256
0.317
0.681
0.934
1.008
0.858
0.657
0.331
0.067
-0.061
-0.269
-0.590
-0.594
-0.463
-0.329
-0.502
-0.289
-0.318
-0.121
0.005
0.047
0.043
0.230
0.174
0.082
0.148
0.150
0.159
0.328
0.235
0.275
0.227
0.219
0.266
0.294
0.337
0.386
0.294
0.359
0.308
0.342
0.413
0.302
0.303
0.334
0.321
0.312
0.345
0.382
0.282
0.163
0.328
0.277
0.153
0.131
0.321
0.210
0.190
0.144
0.127
0.100
0.055
0.118
0.048
-0.041
-0.039
0.015
-0.012
-0.024
-0.086
-0.104
-0.168
-0.043
-0.069
-0.037
-0.137
-0.091
-0.160
-0.171
-0.155
-0.142
-0.031
-0.110
-0.166
-0.088
-0.072
-0.292
-0.060
-0.019
-0.146
-0.077
-0.107
-0.068
-0.050
-0.058
-0.130
-0.136
-0.058
-0.032
-0.007
-0.079
-0.029
-0.083
0.022
-0.008
0.057
-0.141
-0.035
0.024
0.033
0.077
0.032
-0.010
0.101
-0.044
0.155
-0.072
0.008
-0.018
0.029
0.042
0.215
0.016
0.030
0.048
0.110
0.096
0.106
0.127
0.075
0.020
0.038
0.060
0.019
0.081
0.150
0.068
0.041
0.052
0.048
0.120
0.144
0.079
0.050
0.082
-0.029
0.095
0.069
0.065
0.090
-0.004
0.016
0.100
0.076
0.151
0.086
0.010
0.083
0.070
-0.001
-0.056
0.029
0.066
0.166
-0.042
-0.016
-0.035
0.037
-0.050
0.111
0.012
0.134
-0.082
-0.065
0.034
-0.007
0.003
0.029
-0.073
-0.034
0.120
0.117
-0.112
-0.002
-0.054
0.036
-0.091
0.013
-0.134
-0.053
0.008
-0.060
0.049
-0.004
0.095
-0.113
0.048
0.048
-0.063
0.000
-0.044
-0.091
-0.074
0.048
-0.034
0.051
-0.023
0.024
-0.026
0.066
0.006
-0.004
-0.031
0.025
0.122
-0.057
0.005
0.075
-0.052
-0.093
0.028
-0.059
0.106
0.022
0.100
-0.003
0.011
0.035
0.020
0.049
0.047
0.195
-0.104
0.066
0.061
0.030
0.242
0.029
0.097
0.051
-0.066
0.107
0.254
0.113
-0.129
-0.009
0.129
0.100
0.003
0.288
0.359
-0.126
-0.518
0.089
0.721
0.935
0.553
0.317
0.396
0.288
0.194
0.150
0.326
0.256
0.334
0.332
0.406
0.149
-0.032
-0.146
-0.014
-0.146
-0.351
-0.243
-0.242
-0.194
-0.128
-0.224
-0.223
-0.282
-0.262
0.080
0.146
-0.102
-0.223
-0.144
0.179
0.085
0.175
0.251
0.183
0.240
0.202
0.308
0.321
0.109
0.189
0.281
0.430
0.001
-1.971
-0.474
0.256
0.925
-2.590
-1.931
2.805
4.179
0.428
-2.403
-1.526
-1.687
-1.851
-0.995
0.631
1.778
2.471
2.715
3.435
3.306
2.336
0.223
-0.876
-0.412
0.018
0.007
-0.331
-0.966
-0.930
-1.156
-1.162
-1.003
-0.762
-0.322
-0.042
0.435
0.550
-0.205
-0.504
-0.372
0.001
0.242
0.280
0.235
0.008
0.037
-0.149
-0.024
-0.088
-0.051
0.019
0.156
0.248
0.293
0.402
0.445
0.465
0.462
0.479
0.461
0.476
0.439
0.376
0.292
0.315
0.438
0.287
0.230
0.281
0.313
0.285
0.187
0.171
0.215
0.155
0.145
0.073
0.152
0.176
0.071
-0.054
-0.052
-0.062
0.048
-0.076
0.005
0.019
-0.154
-0.063
-0.043
-0.156
-0.085
-0.134
-0.168
-0.082
-0.174
-0.146
-0.060
-0.263
-0.131
-0.073
-0.082
-0.162
-0.166
-0.179
-0.066
-0.025
-0.031
-0.127
-0.036
-0.015
-0.112
-0.050
-0.044
-0.012
0.062
-0.065
-0.244
-0.243
-0.047
0.048
0.194
0.107
0.121
-0.020
0.002
0.192
0.041
-0.057
0.183
0.080
0.069
0.109
0.404
0.101
0.147
0.064
0.060
-0.103
0.042
0.167
0.130
-0.045
-0.037
-0.042
-0.128
0.070
0.050
0.092
0.017
-0.020
0.075
-0.038
-0.100
0.009
0.028
-0.011
-0.041
0.055
0.002
-0.131
0.055
-0.005
0.064
0.097
-0.041
-0.041
-0.016
-0.003
-0.001
0.113
0.073
0.012
0.046
0.079
0.115
0.087
-0.072
0.049
0.051
0.161
0.013
0.018
0.174
0.136
0.123
0.054
-0.006
0.103
-0.000
0.164
0.215
0.077
-0.051
-0.033
0.056
0.059
0.070
0.044
0.036
0.058
0.091
0.009
-0.000
0.096
0.028
0.011
-0.024
0.005
-0.021
-0.018
0.090
0.003
-0.010
-0.023
0.026
-0.084
-0.050
0.132
-0.139
-0.044
-0.087
-0.070
-0.065
0.069
-0.014
-0.063
-0.042
0.013
0.033
0.047
-0.191
0.110
-0.044
0.000
-0.003
0.040
-0.048
-0.048
-0.054
0.038
-0.016
0.112
-0.064
0.049
0.069
-0.049
0.013
0.038
0.066
0.034
-0.049
-0.071
0.080
0.003
0.011
0.182
0.012
0.018
0.033
0.045
-0.029
0.138
-0.028
0.071
0.109
0.021
0.038
0.027
0.046
-0.050
0.100
0.048
0.072
0.053
0.035
0.002
-0.009
0.086
0.151
0.116
0.025
-0.062
0.014
0.043
-0.013
0.022
0.063
0.074
0.138
0.041
-0.081
-0.071
0.089
-0.106
-0.074
0.121
0.010
0.121
-0.049
-0.018
-0.027
-0.047
0.050
0.079
-0.131
0.039
0.040
0.070
-0.088
0.098
-0.043
0.034
-0.109
0.033
0.127
0.055
-0.094
0.044
-0.085
0.091
-0.080
0.088
-0.048
-0.029
0.017
-0.049
0.103
0.126
-0.007
-0.121
0.069
0.125
-0.057
0.026
0.032
0.182
0.067
0.002
0.018
0.028
-0.046
0.135
0.011
-0.043
0.017
0.102
0.154
0.069
-0.075
0.023
0.073
0.123
0.002
0.052
0.071
0.063
-0.052
-0.036
-0.034
0.119
0.115
-0.044
0.085
0.087
-0.088
-0.053
-0.042
0.122
-0.051
-0.004
0.120
0.019
-0.015
-0.036
0.122
0.108
0.023
-0.065
-0.004
0.014
0.167
0.029
-0.075
-0.091
-0.100
0.018
0.089
0.099
0.027
0.021
-0.038
-0.077
0.044
0.111
-0.082
0.044
-0.015
-0.046
0.033
0.011
0.004
0.020
0.092
0.012
-0.079
0.071
-0.091
0.029
0.083
0.041
-0.013
0.034
-0.122
0.083
-0.002
0.095
0.044
-0.071
-0.007
0.078
0.025
0.071
-0.052
-0.036
0.061
-0.023
-0.038
0.074
-0.039
-0.048
0.148
0.030
-0.007
0.039
0.039
0.037
-0.012
-0.001
-0.040
0.030
0.127
-0.018
0.002
-0.028
0.047
0.058
0.038
0.095
-0.050
0.056
0.035
-0.010
-0.028
0.048
0.020
0.049
0.165
0.081
-0.006
0.004
0.118
0.044
-0.034
-0.022
-0.041
-0.001
0.083
-0.053
0.052
0.042
0.066
0.042
0.059
0.003
-0.019
0.079
-0.084
0.010
-0.052
0.026
0.105
-0.042
0.062
0.087
0.058
-0.084
-0.006
0.007
0.065
0.011
-0.121
0.085
0.052
0.023
-0.017
-0.006
0.167
0.101
-0.004
-0.119
0.055
0.055
-0.039
-0.021
0.115
0.002
-0.012
0.003
0.000
0.015
0.000
-0.058
-0.017
0.082
-0.016
0.039
-0.039
0.010
-0.033
-0.088
-0.013
0.098
-0.014
-0.024
0.194
-0.001
-0.003
-0.063
-0.041
0.024
0.048
0.077
-0.021
-0.002
-0.005
-0.009
0.036
-0.048
0.049
-0.010
0.132
0.020
-0.075
-0.054
0.035
-0.025
-0.038
0.095
0.176
0.045
-0.149
0.004
0.062
-0.084
0.014
0.082
-0.042
0.017
0.064
0.014
0.029
0.116
-0.031
0.038
-0.109
0.003
-0.033
0.069
0.098
0.095
0.037
-0.012
0.010
-0.017
0.053
0.015
0.017
0.027
-0.079
0.005
-0.009
-0.062
0.064
0.027
0.037
0.077
-0.006
0.089
-0.013
0.012
-0.055
0.094
0.122
0.090
0.004
-0.075
-0.027
-0.088
0.049
0.048
0.071
0.091
-0.033
0.031
0.025
0.131
0.083
-0.086
0.068
0.045
0.013
0.115
-0.090
0.065
-0.087
0.013
0.063
0.045
0.010
-0.027
-0.073
0.036
0.037
0.017
0.034
0.064
-0.054
-0.027
0.127
0.127
0.147
0.086
0.050
0.282
0.208
0.002
-0.079
-0.153
0.052
0.100
0.689
0.796
0.482
-0.163
-1.169
-0.263
0.912
0.739
0.489
0.367
0.265
0.138
0.070
0.094
-0.025
0.112
0.229
0.054
-0.017
0.149
0.025
-0.002
-0.060
-0.114
-0.067
-0.107
-0.099
-0.038
0.032
0.022
-0.072
-0.013
0.014
0.091
0.102
0.230
0.185
0.136
0.023
0.214
0.095
0.129
0.154
0.131
0.254
0.098
0.148
0.182
0.027
0.223
0.081
0.062
0.090
0.138
0.106
0.002
0.125
0.075
-0.006
0.055
-0.028
0.022
0.022
-0.035
0.059
0.057
-0.109
-0.163
-0.025
-0.043
0.003
0.012
-0.099
-0.061
-0.176
-0.032
-0.110
-0.026
0.038
-0.102
-0.090
-0.072
-0.193
-0.108
0.131
0.025
-0.099
-0.089
0.012
-0.105
-0.160
-0.020
0.007
-0.114
-0.002
0.060
-0.088
-0.137
-0.052
0.004
0.041
0.091
-0.027
-0.046
0.019
0.036
0.036
-0.091
0.064
-0.003
0.058
-0.014
0.046
0.031
-0.009
-0.030
0.047
-0.010
0.042
0.141
-0.055
0.054
0.119
0.057
0.038
0.058
0.010
0.128
0.009
0.034
0.069
0.030
-0.048
-0.041
0.058
0.051
0.024
0.192
0.024
-0.006
0.087
0.063
0.007
-0.138
-0.088
0.083
0.003
0.108
0.031
0.082
0.047
-0.002
-0.052
-0.008
-0.020
-0.006
-0.041
-0.080
0.112
0.038
-0.008
0.145
-0.042
0.030
-0.036
-0.042
0.090
0.014
-0.071
0.048
0.094
-0.125
0.087
-0.018
0.091
-0.005
0.027
-0.011
-0.010
-0.026
0.009
0.100
0.012
-0.029
0.036
-0.098
0.061
0.028
-0.152
0.069
0.035
0.020
-0.002
-0.100
-0.054
0.014
0.047
-0.076
0.125
-0.005
0.014
-0.040
0.076
-0.111
0.063
-0.133
0.056
-0.059
0.028
0.004
0.148
0.014
-0.061
-0.010
0.062
-0.036
-0.025
0.034
0.010
0.059
-0.001
0.041
0.014
-0.073
-0.079
0.121
-0.045
0.014
0.017
-0.033
-0.147
0.165
0.104
0.123
0.038
-0.017
0.052
0.068
-0.018
-0.002
0.001
0.089
0.036
0.086
0.057
0.113
-0.064
-0.055
0.022
0.222
0.039
0.058
0.024
0.043
-0.264
0.015
0.133
0.045
-0.097
-0.042
-0.187
-0.178
-0.076
-0.122
-0.608
-0.500
-0.064
0.280
0.279
0.235
-0.055
-0.057
0.006
-0.032
0.020
0.163
0.154
0.244
0.101
0.278
0.222
0.068
-0.006
0.029
0.042
-0.149
-0.060
-0.001
-0.177
-0.196
-0.064
-0.093
-0.101
0.044
-0.009
-0.058
-0.051
-0.088
-0.014
-0.035
-0.007
-0.078
-0.096
-0.122
-0.120
0.036
-0.052
-0.091
0.036
-0.147
-0.044
-0.002
0.058
-0.058
0.031
0.013
0.059
0.100
0.006
0.041
0.027
0.058
0.056
0.042
0.074
0.062
0.169
0.045
0.109
0.011
0.160
0.051
0.088
0.091
0.030
0.030
0.051
-0.037
0.062
0.193
-0.020
0.150
-0.067
-0.135
0.009
0.000
0.109
-0.056
0.055
-0.002
0.007
0.012
-0.021
-0.073
0.013
0.007
0.004
0.088
0.001
0.057
-0.007
0.055
-0.010
-0.056
0.074
0.035
-0.024
-0.048
0.130
-0.023
0.136
0.018
-0.039
-0.065
-0.075
0.037
0.061
0.056
-0.027
0.105
-0.046
0.020
0.059
-0.053
0.028
-0.074
-0.044
0.011
0.026
-0.019
0.100
-0.017
0.025
-0.013
-0.008
0.073
0.056
0.011
-0.039
0.078
0.098
0.032
-0.041
0.026
0.119
0.008
-0.027
0.013
0.070
-0.036
-0.100
0.080
0.119
0.080
0.047
-0.056
0.052
-0.034
-0.038
-0.053
-0.101
0.013
0.083
-0.090
-0.142
-0.240
-0.069
-0.032
-0.062
0.057
0.015
-0.004
-0.125
0.021
-0.101
-1.332
-2.152
-1.137
0.851
2.013
1.701
0.759
0.103
-0.276
-1.681
-3.639
-4.127
-0.599
3.268
4.393
3.899
-1.813
-3.764
-4.268
-3.842
0.701
3.646
4.464
4.545
4.424
4.238
4.029
3.843
2.652
0.180
-2.201
-3.997
-4.738
-4.981
-4.524
-3.792
-2.678
-1.715
-0.852
-0.220
0.359
0.862
0.935
0.975
0.968
0.694
0.548
0.344
0.104
0.166
0.008
0.058
0.209
0.087
0.188
0.176
0.266
0.241
0.283
-2.463
1.177
3.785
4.417
0.825
-1.150
-0.812
-3.152
-3.692
-4.106
-4.161
-2.297
2.213
4.227
4.727
0.572
-2.950
-3.472
0.047
2.470
3.265
3.592
3.872
3.915
3.839
3.542
2.909
2.024
0.925
-0.280
-1.189
-1.746
-2.079
-2.237
-2.373
-2.031
-1.871
-1.692
-1.272
-0.868
-0.610
-0.257
-0.167
0.069
0.058
0.199
0.261
0.372
0.409
0.289
0.359
0.476
0.408
0.469
0.603
0.638
0.785
0.725
0.688
0.609
0.735
0.882
0.672
0.740
0.814
0.685
0.549
0.654
0.703
0.658
0.610
0.607
0.516
0.527
0.443
0.385
0.240
0.421
0.247
0.091
0.191
0.269
0.110
0.047
-0.061
-0.242
-0.176
-0.167
-0.103
-0.141
-0.268
-0.366
-0.209
-0.285
-0.269
-0.315
-0.248
-0.232
-0.409
-0.313
-0.361
-0.396
-0.283
-0.323
-0.390
-0.296
-0.362
-0.304
-0.252
-0.341
-0.357
-0.273
-0.183
-0.109
-0.010
-0.168
-0.053
-0.144
-0.105
-0.164
0.018
-0.027
0.055
-0.008
0.008
0.059
0.061
0.152
0.082
0.134
0.053
0.240
0.109
0.111
0.074
0.103
0.109
0.204
0.119
0.124
0.092
0.126
0.127
0.079
0.047
0.033
0.124
0.088
0.012
0.056
0.046
0.021
0.040
0.099
0.193
0.060
-0.033
-0.003
-0.043
0.016
0.041
-0.038
0.060
0.086
0.037
-0.129
-0.108
-0.082
-0.108
0.029
0.021
0.013
-0.050
-0.027
0.061
0.040
0.144
-0.042
-0.041
0.105
-0.033
0.055
-0.064
0.140
0.014
-0.057
0.160
-0.056
0.158
0.070
0.027
0.062
0.039
0.086
0.038
-0.011
0.029
0.064
0.108
0.094
0.081
-0.052
0.060
0.053
0.042
0.119
0.101
-0.090
-0.059
0.065
0.012
-0.011
-0.068
0.064
-0.109
-0.066
-0.130
0.044
-0.101
-0.078
-0.027
-0.086
-0.006
-0.012
-0.053
-0.001
-0.160
-0.078
-0.101
-0.091
-0.180
-0.120
-0.090
0.007
-0.222
-0.042
0.036
-0.110
-0.156
-0.195
-0.059
0.072
-0.014
-0.054
-0.037
0.006
-0.029
0.049
0.039
-0.072
0.132
0.060
-0.038
0.071
0.102
0.109
0.058
0.017
0.113
0.050
0.102
0.099
0.052
0.114
0.010
0.020
-0.036
0.084
0.297
0.129
0.089
0.052
0.001
0.143
0.122
-0.003
0.033
0.124
0.097
0.022
0.140
0.072
0.061
0.028
-0.077
0.081
0.018
-0.102
0.064
0.053
-0.162
-0.075
0.069
-0.093
0.036
-0.022
-0.015
0.002
-0.203
-0.183
-0.144
-0.046
0.147
-0.133
-0.097
0.002
0.053
-0.023
-0.085
-0.180
-0.222
0.004
0.046
0.125
-0.046
0.044
-0.061
-0.209
-0.133
0.035
-0.060
0.038
0.080
-0.005
-0.124
-0.086
-0.091
0.131
0.146
-0.098
-0.121
-0.024
0.002
0.037
0.055
-0.084
0.002
-0.062
-0.028
-0.004
-0.102
0.095
0.066
0.046
0.024
-0.083
0.066
0.029
0.008
-0.010
0.131
0.015
-0.062
0.050
0.168
0.021
0.055
0.072
-0.030
0.070
0.024
0.056
-0.024
-0.052
0.114
0.037
-0.062
0.022
-0.049
0.150
-0.039
0.058
0.151
-0.029
-0.091
0.049
-0.032
0.034
0.127
-0.005
0.096
0.185
-0.083
0.043
0.016
-0.026
0.018
-0.083
0.007
0.042
-0.029
0.013
0.052
-0.023
-0.026
0.031
0.077
0.014
-0.002
-0.094
-0.025
-0.034
-0.037
0.019
0.012
0.077
0.087
-0.020
0.085
0.031
-0.071
0.061
-0.062
0.070
0.001
0.052
0.017
-0.059
-0.022
0.063
-0.072
0.034
-0.016
0.144
0.088
0.025
-0.103
-0.045
-0.027
-0.007
0.139
0.117
0.158
0.019
-0.067
0.016
-0.035
0.002
0.225
-0.025
-0.035
-0.026
0.125
0.100
0.131
0.040
-0.049
-0.112
-0.052
0.085
0.045
0.042
0.008
-0.018
-0.077
0.065
0.018
0.097
-0.070
-0.004
0.043
0.143
0.080
0.004
0.131
0.024
-0.029
0.130
0.044
0.173
0.013
-0.125
-0.109
-0.229
-0.012
-0.061
-0.023
0.060
-0.149
-0.329
-0.015
0.034
-0.062
0.055
0.111
0.197
-0.131
-0.057
0.195
0.070
0.057
0.070
0.124
0.139
0.088
-0.010
-0.280
-0.116
-0.186
-0.045
-0.001
0.041
-0.129
-0.086
-0.027
-0.051
0.018
-0.012
-0.031
-0.019
-0.179
0.015
-0.022
-0.030
0.113
0.154
0.091
0.241
0.156
0.007
-0.043
-0.148
-0.140
-0.049
0.191
0.285
0.096
-0.025
-0.011
-0.046
-0.068
0.068
0.202
-0.016
-0.063
0.033
-0.025
-0.021
-0.022
-0.034
-0.024
-0.165
-0.157
-0.122
-0.228
0.061
-0.090
0.009
-0.012
0.023
-0.018
-0.136
0.069
-0.071
0.002
0.124
-0.011
-0.013
0.118
0.151
0.231
0.131
0.077
-0.085
-0.042
-0.082
-0.273
0.064
0.088
-0.101
-0.009
0.019
0.017
0.035
-0.034
-0.111
-0.196
-0.078
-0.032
0.024
-0.010
0.167
0.120
0.213
0.088
0.044
0.072
0.001
0.020
-0.075
-0.121
-0.106
0.014
-0.045
0.068
0.004
-0.089
0.026
-0.092
-0.118
-0.137
-0.010
-0.079
0.110
-0.085
-0.219
-0.121
0.064
0.163
0.127
-0.062
-0.024
-0.016
-0.006
-0.004
-0.051
-0.090
0.043
-0.052
-0.040
-0.106
0.021
-0.019
-0.137
0.008
0.094
-0.004
0.136
0.271
0.343
0.302
-0.118
-0.405
-0.256
0.006
-0.023
0.266
0.414
1.267
1.391
0.889
0.153
-0.032
0.130
0.129
0.358
0.402
0.585
0.469
0.450
0.249
0.095
-0.023
-0.091
-0.349
-0.248
-0.410
-0.390
-0.309
-0.117
-0.283
-0.029
0.062
0.089
0.080
0.185
0.106
0.097
0.192
0.124
0.323
0.145
0.126
0.171
0.242
0.181
0.133
0.193
0.158
0.237
0.163
0.235
0.070
0.289
0.133
0.220
0.295
0.187
0.065
0.198
0.137
0.074
0.037
0.136
0.051
0.121
0.104
0.029
-0.063
0.047
0.065
-0.096
0.021
-0.032
-0.019
-0.039
-0.041
-0.150
0.034
-0.020
-0.032
-0.186
-0.094
-0.108
-0.131
-0.098
-0.203
-0.000
-0.164
-0.084
-0.139
-0.091
-0.084
-0.163
-0.122
0.062
-0.001
-0.158
-0.083
-0.022
-0.031
-0.047
-0.086
-0.004
0.017
0.039
0.103
-0.104
-0.074
-0.082
0.002
0.002
0.082
0.048
-0.020
0.037
0.025
0.040
-0.029
0.203
-0.009
0.015
0.089
0.013
-0.032
0.085
0.020
-0.071
0.060
0.040
-0.000
0.095
0.028
-0.088
0.030
0.055
0.172
0.047
-0.085
0.016
0.033
0.007
0.120
0.024
0.003
-0.087
0.047
0.051
-0.102
0.046
0.060
-0.037
0.085
0.099
0.024
-0.069
0.018
-0.031
0.155
0.041
0.031
-0.026
-0.038
-0.114
0.028
0.052
-0.043
-0.033
0.050
0.027
0.003
-0.109
0.063
-0.076
-0.134
-0.043
0.063
0.160
0.052
0.034
-0.053
0.037
-0.085
-0.006
0.023
0.026
0.101
0.115
0.036
-0.045
0.200
-0.054
-0.103
-0.003
-0.069
0.014
0.043
0.037
-0.037
-0.082
-0.096
-0.003
-0.098
0.044
-0.015
0.029
0.051
-0.078
-0.039
0.087
-0.014
0.085
-0.062
0.105
0.049
-0.030
-0.095
0.012
0.020
-0.042
0.113
-0.088
0.013
-0.018
-0.124
0.089
0.081
-0.085
0.011
-0.003
0.057
-0.024
-0.112
-0.077
0.014
0.112
0.113
-0.007
0.042
-0.081
-0.096
-0.010
0.144
0.128
0.063
-0.041
-0.047
0.087
-0.034
0.023
0.043
0.050
-0.016
0.110
0.124
0.036
0.199
0.015
0.057
0.031
0.065
0.030
0.124
-0.035
-0.019
-0.145
-0.128
0.029
0.105
0.057
-0.125
-0.013
-0.042
0.011
0.036
0.020
0.106
-0.020
-0.011
0.001
0.087
0.044
0.118
0.059
0.026
0.058
-0.045
0.024
0.032
-0.026
-0.009
0.048
0.007
-0.028
0.013
-0.035
-0.112
0.016
-0.049
0.080
0.051
-0.026
0.109
-0.009
-0.045
-0.060
-0.062
-0.014
-0.314
-0.736
-1.092
-0.416
-0.150
-0.448
-1.169
-1.071
-0.616
-0.277
0.015
0.036
0.215
-0.274
-0.488
-0.209
0.244
0.415
0.539
0.303
0.227
0.902
0.971
0.747
0.238
-0.190
-0.298
-0.208
-0.201
-0.154
-0.205
-0.065
-0.229
-0.130
-0.335
-0.230
-0.281
-0.336
-0.385
-0.434
-0.103
0.157
0.044
-0.204
-0.398
-0.190
-0.192
-0.299
-0.280
-0.194
-0.215
-0.194
-0.128
0.048
-0.238
-0.147
-0.093
-0.010
-0.071
0.015
0.064
0.064
0.233
0.305
0.071
-0.008
0.317
0.090
0.122
0.162
0.119
0.156
0.063
0.253
0.096
0.250
0.102
0.146
0.182
0.078
0.115
0.267
0.178
0.065
-0.041
0.261
0.100
0.128
0.068
0.051
0.177
0.181
0.104
-0.012
0.039
0.023
0.151
0.038
0.059
0.134
0.079
0.000
-0.070
-0.058
-0.282
0.017
0.206
0.140
-0.001
-0.155
-0.111
-0.115
-0.223
-0.003
0.297
0.240
0.164
0.147
0.036
-0.026
-0.012
0.103
0.151
0.028
0.111
0.176
0.100
0.011
-0.080
-0.106
-0.190
-0.101
-0.044
-0.013
0.068
0.153
0.016
0.036
0.040
-0.135
-0.177
-0.053
0.250
0.224
0.130
0.247
0.176
0.099
0.175
0.208
-0.032
0.490
0.723
0.659
0.421
0.390
0.226
0.317
0.495
0.386
-0.266
0.145
0.348
0.098
0.251
0.154
-3.152
-4.060
-2.048
2.130
-0.254
2.809
4.162
1.329
-2.762
-3.951
-3.869
0.928
3.771
4.543
4.654
4.566
4.383
4.196
4.038
3.433
0.828
-2.131
-4.349
-4.960
-5.018
-4.850
-4.473
-3.549
-2.461
-1.095
-0.121
0.830
1.343
1.489
1.614
1.528
1.115
0.940
0.784
0.454
0.277
0.182
0.264
-0.034
0.056
0.093
0.299
0.238
0.239
-1.468
-0.301
0.984
1.236
0.755
0.104
-0.076
-0.293
-0.380
-0.265
-0.091
-0.099
-2.514
-4.011
0.224
3.222
4.036
2.538
-2.061
-4.162
-4.660
-3.735
-1.167
1.689
3.502
4.037
4.028
3.815
2.985
1.892
0.534
-0.323
-1.366
-2.016
-2.172
-2.290
-2.310
-1.994
-1.556
-1.097
-0.758
-0.572
-0.407
-0.124
-0.071
0.004
0.144
0.164
0.257
0.325
0.221
0.136
0.214
0.385
0.395
0.283
0.408
0.550
0.483
0.598
0.448
0.611
0.688
0.566
0.554
0.619
0.541
0.545
0.545
0.626
0.476
0.459
0.412
0.538
0.332
0.339
0.424
0.287
0.279
0.215
0.226
0.317
0.030
0.022
0.085
0.001
0.054
-0.039
0.012
-0.173
-0.049
-0.065
-0.132
-0.190
-0.038
-0.119
-0.212
-0.271
-0.286
-0.274
-0.152
-0.126
-0.223
-0.284
-0.284
-0.376
-0.207
-0.124
-0.305
-0.179
-0.146
-0.017
-0.269
-0.195
-0.091
-0.073
-0.028
-0.011
-0.057
-0.168
-0.039
-0.125
-0.120
-0.170
-0.019
0.055
0.091
-0.084
0.056
-0.076
0.032
-0.022
0.043
0.109
0.048
-0.056
-0.082
0.165
0.034
0.023
0.094
-0.044
0.015
-0.048
0.111
0.064
0.037
-0.003
0.034
0.080
-0.010
-0.123
0.078
0.019
-0.063
0.106
0.044
-0.137
0.028
0.106
-0.082
0.008
-0.028
-0.045
0.076
0.022
0.030
-0.195
-0.067
0.111
0.132
-0.027
-0.012
-0.034
0.009
-0.075
0.053
0.129
0.062
0.165
0.096
-0.007
-0.004
0.057
0.062
0.247
0.230
-0.015
0.182
0.105
0.034
0.055
0.155
-0.000
0.115
0.043
-0.001
0.141
0.109
0.078
0.026
0.014
0.037
0.145
0.024
-0.048
-0.014
0.043
0.069
0.098
0.065
-0.102
-0.060
-0.088
0.067
-0.034
0.062
0.021
-0.023
-0.093
-0.049
-0.105
-0.087
-0.035
-0.098
0.026
-0.120
-0.132
-0.114
0.012
-0.136
-0.000
-0.032
-0.030
-0.195
-0.122
-0.036
-0.049
0.017
-0.113
0.045
-0.095
-0.017
-0.038
-0.079
0.017
-0.005
-0.117
-0.056
0.097
0.174
-0.035
-0.010
-0.039
0.137
0.187
0.027
0.061
0.106
-0.001
0.021
0.206
0.012
0.093
-0.015
0.210
0.017
0.089
0.132
0.123
0.150
0.091
-0.020
0.251
0.161
0.071
0.002
0.143
-0.004
0.130
0.102
0.057
0.101
0.008
-0.040
0.013
0.081
0.093
-0.115
0.186
-0.038
0.067
0.091
-0.000
0.112
0.081
-0.121
0.024
0.054
0.038
-0.106
0.008
-0.042
0.012
0.013
-0.182
0.052
0.088
-0.027
0.008
-0.162
0.003
-0.010
0.051
0.039
-0.015
-0.191
0.015
-0.100
-0.091
0.099
0.048
0.019
-0.151
-0.029
-0.025
-0.004
-0.064
0.034
0.109
-0.101
-0.133
0.110
0.198
0.055
-0.016
-0.075
0.167
0.043
-0.018
0.074
-0.020
0.016
0.082
0.191
-0.016
-0.077
0.117
0.122
0.033
0.085
-0.024
0.027
0.036
-0.004
0.021
0.181
0.103
-0.071
0.038
0.048
0.145
0.024
0.044
0.073
-0.065
-0.021
0.033
0.030
0.006
-0.031
0.015
0.098
-0.130
0.096
0.038
0.077
0.022
0.083
0.015
-0.101
-0.116
0.072
0.070
-0.035
0.090
-0.108
0.041
0.020
0.033
0.067
-0.041
-0.048
-0.026
0.140
0.010
0.047
0.025
-0.115
-0.053
0.075
-0.021
0.100
0.112
-0.048
0.001
0.006
-0.049
0.098
0.068
0.071
-0.087
-0.038
0.033
0.031
-0.130
0.066
0.095
0.084
-0.043
0.016
-0.063
0.019
-0.009
-0.036
-0.009
0.014
-0.056
-0.055
0.027
-0.002
0.131
0.014
0.081
-0.053
0.091
-0.017
0.045
-0.108
0.051
0.005
0.034
0.060
-0.061
0.025
0.026
-0.015
0.058
0.054
0.188
0.003
0.059
0.047
-0.117
0.055
0.040
0.096
0.008
-0.066
0.007
0.096
0.041
0.070
0.065
-0.048
-0.039
0.143
-0.027
0.116
-0.040
0.021
0.035
-0.002
0.058
0.119
0.075
-0.048
0.082
0.048
-0.061
-0.108
-0.026
0.091
0.058
-0.090
0.023
-0.034
0.113
0.044
0.060
-0.007
-0.033
-0.017
0.015
0.060
0.157
0.068
-0.010
-0.092
0.180
-0.242
0.006
0.054
-0.066
0.096
0.013
0.110
0.063
-0.078
-0.113
-0.011
0.142
-0.015
-0.008
0.078
-0.063
-0.030
0.015
-0.032
0.057
0.117
0.037
0.032
0.029
0.017
0.016
-0.058
0.020
0.036
0.071
-0.032
0.045
-0.002
0.074
0.052
-0.047
-0.140
0.087
0.080
0.012
0.031
-0.032
0.028
-0.016
0.020
0.029
0.002
0.188
0.006
-0.031
0.068
0.146
0.035
0.080
-0.088
-0.006
-0.003
0.090
0.003
0.075
0.085
0.011
0.084
-0.175
0.036
0.186
-0.001
-0.166
0.006
-0.050
0.126
0.086
0.063
-0.004
0.042
0.086
0.063
0.020
-0.006
0.066
0.090
-0.083
0.002
0.156
0.103
-0.044
-0.067
0.003
0.094
0.035
0.016
0.071
0.002
-0.063
0.012
0.141
0.063
0.036
0.029
0.033
-0.036
0.081
0.008
0.029
0.085
0.019
-0.007
-0.036
0.078
0.083
-0.003
-0.045
0.049
-0.013
0.122
-0.068
-0.073
0.065
0.034
-0.055
-0.112
0.068
0.137
-0.034
-0.070
-0.081
-0.026
0.047
0.133
0.137
0.062
-0.068
-0.000
0.033
0.092
-0.102
-0.030
0.067
-0.029
0.017
-0.063
-0.047
0.100
-0.005
0.009
0.050
0.012
-0.020
-0.011
0.027
0.027
-0.042
0.022
-0.054
0.060
0.073
-0.072
-0.048
-0.067
0.034
-0.020
0.160
0.006
-0.097
0.033
-0.022
-0.079
0.183
-0.008
0.027
0.001
-0.062
0.024
0.070
0.062
-0.050
-0.127
0.097
0.094
-0.001
0.024
0.059
-0.005
-0.020
0.001
0.010
0.059
0.028
0.054
0.015
-0.107
-0.023
0.009
0.064
-0.003
0.038
0.069
-0.095
0.037
0.019
0.023
0.084
0.102
0.002
-0.028
-0.052
-0.024
0.097
0.218
-0.083
0.043
-0.059
-0.088
-0.064
0.037
-0.017
0.016
-0.098
0.073
0.067
-0.005
-0.072
0.141
-0.034
-0.057
0.039
-0.011
0.173
0.063
-0.049
0.035
0.078
-0.070
0.052
0.078
-0.007
0.179
0.011
0.066
-0.045
-0.011
0.028
0.087
0.022
-0.027
-0.094
-0.059
0.072
-0.089
0.004
0.010
0.126
-0.072
-0.026
-0.033
-0.017
-0.051
0.123
0.054
-0.004
-0.023
0.065
0.043
0.039
0.149
-0.005
-0.027
-0.016
0.010
-0.037
-0.019
0.071
0.139
0.004
-0.189
-0.054
-0.064
0.123
0.057
-0.023
0.117
0.048
-0.064
0.068
0.124
-0.012
-0.093
0.006
-0.005
-0.115
0.198
0.081
-0.211
-0.004
0.021
-0.005
0.198
-0.070
-0.085
0.055
0.138
0.163
-0.014
-0.059
0.040
0.036
0.095
0.068
-0.051
0.035
0.080
0.004
0.120
0.028
-0.089
-0.083
-0.042
-0.011
0.055
0.020
0.094
0.068
0.028
0.040
-0.017
0.094
0.029
0.007
0.066
-0.032
-0.107
-0.093
0.104
0.079
0.044
-0.009
-0.092
-0.034
0.137
-0.010
-0.058
-0.068
-0.072
0.084
-0.042
0.061
-0.023
0.046
-0.074
0.003
0.087
0.079
-0.093
-0.017
-0.070
0.056
0.004
0.032
0.024
-0.100
-0.047
0.058
-0.025
0.015
0.011
-0.027
0.169
0.020
0.003
0.150
-0.019
0.051
-0.020
-0.024
0.065
0.100
-0.011
-0.042
0.018
0.013
-0.016
0.066
-0.058
-0.067
0.035
-0.046
0.045
0.024
0.023
0.038
0.058
-0.043
-0.037
0.050
0.123
-0.086
0.011
0.154
0.080
-0.025
0.140
-0.031
-0.038
-0.013
-0.003
-0.033
0.115
0.010
0.078
0.017
0.008
-0.023
0.094
0.026
-0.093
0.040
0.021
0.064
-0.030
0.089
-0.003
0.033
-0.021
0.083
-0.025
-0.030
0.209
0.057
0.001
0.063
0.125
0.072
-0.040
-0.019
0.108
0.041
-0.326
-1.093
-1.261
-1.054
-0.137
0.974
1.166
0.797
0.238
-0.178
-0.387
-0.188
0.112
0.242
0.497
0.304
0.752
0.958
0.667
0.435
-0.027
-0.153
-0.214
-0.240
-0.229
-0.336
-0.176
-0.184
-0.109
0.002
-0.082
-0.050
-0.212
-0.082
-0.028
-0.034
0.086
0.031
-0.040
-0.013
-0.102
-0.034
-0.094
-0.105
0.058
0.049
0.116
0.003
0.080
-0.072
0.001
0.009
0.218
0.175
0.105
0.144
0.043
0.169
0.028
0.014
0.101
0.305
0.103
0.146
0.043
0.085
0.168
0.085
-0.046
0.058
0.038
0.073
0.089
0.146
0.117
-0.049
0.104
-0.097
-0.023
0.118
0.062
0.019
-0.089
0.025
-0.066
0.011
-0.019
0.034
0.020
0.028
0.115
-0.048
-0.164
-0.061
0.106
-0.025
-0.042
0.056
0.069
-0.008
-0.117
-0.073
-0.049
0.079
0.015
-0.010
-0.042
-0.066
0.040
-0.027
0.043
-0.053
-0.076
-0.025
-0.051
-0.005
0.002
0.081
-0.062
0.090
0.060
-0.101
0.066
0.099
0.104
-0.039
-0.003
-0.073
0.053
-0.222
-0.267
0.176
0.238
0.203
-0.055
-0.003
-1.440
-0.376
-1.726
-3.537
-3.041
-3.372
-0.883
3.339
4.547
4.777
-0.864
-3.386
-4.080
-4.159
-3.453
2.537
4.322
4.678
4.638
2.476
1.098
2.149
3.419
3.725
3.695
3.538
3.371
3.197
3.026
2.889
2.750
2.639
0.503
-2.190
-3.709
-4.794
-5.376
-5.382
-5.134
-4.888
-3.791
-1.989
-1.093
-0.095
0.363
3.323
4.600
3.384
0.297
3.724
3.667
-0.068
2.825
4.355
3.391
0.963
-0.002
0.585
0.757
-0.017
1.171
3.797
3.133
1.617
0.358
-0.221
-0.112
0.276
0.740
1.122
0.664
0.301
1.631
1.427
-1.881
-1.656
-0.050
-1.355
0.957
1.305
-1.304
1.733
3.641
2.100
0.327
-0.756
-0.067
1.220
2.115
2.694
2.921
2.414
2.070
2.075
1.318
0.445
-0.461
-1.056
-1.602
-1.686
-1.602
-1.642
-1.477
-1.193
-0.994
-0.731
-0.530
-0.449
-0.125
-0.261
-0.142
0.041
0.040
-0.126
-0.024
-0.083
0.074
0.122
0.068
0.064
0.127
0.291
0.414
0.319
0.218
0.332
0.461
0.506
0.186
0.362
0.333
0.296
0.407
-0.721
-0.116
0.665
0.541
0.143
-0.295
-0.347
-2.158
1.438
1.327
1.039
1.491
0.935
0.009
-0.585
-0.509
-0.304
0.173
0.623
0.747
0.468
0.640
0.597
0.512
-0.973
-2.978
-4.303
-3.587
2.064
3.749
-1.857
0.212
3.099
3.908
3.709
-1.237
-3.653
0.198
0.216
2.901
3.704
3.869
3.818
3.698
3.594
3.450
3.326
1.711
-0.632
-2.317
-3.254
-3.378
-2.753
-2.051
-1.541
-0.861
-0.390
-0.115
0.328
0.446
0.726
0.583
0.625
0.691
0.639
0.688
0.689
0.605
0.773
0.926
0.928
1.034
1.068
1.047
1.126
1.106
1.196
1.115
1.115
1.092
0.797
0.949
0.880
0.744
0.657
0.825
0.531
0.483
0.505
0.258
0.263
0.178
0.196
0.044
-0.055
-0.154
-0.137
-0.090
-0.188
-0.394
-0.402
-0.478
-0.476
-0.486
-0.513
-0.489
-0.533
-0.557
-0.632
-0.719
-0.673
-0.557
-0.592
-0.615
-0.592
-0.572
-0.532
-0.457
-0.722
-0.463
-0.539
-0.477
-0.335
-0.404
-0.363
-0.310
-0.286
-0.326
-0.251
-0.156
-0.077
-0.019
-0.165
-0.124
-0.030
0.065
0.138
-0.037
0.118
0.014
0.142
0.130
0.101
0.119
0.149
0.195
0.156
0.189
0.111
0.261
0.180
0.130
0.013
0.146
0.176
0.142
-0.056
-0.042
0.006
-0.036
-0.028
0.022
0.081
-0.009
0.003
0.077
-0.083
-0.016
-0.189
-0.039
-0.006
0.011
-0.073
-0.039
-0.060
0.029
-0.050
-0.135
-0.107
0.028
0.003
-0.094
-0.134
-0.213
-0.099
-0.000
0.114
0.076
-0.038
-0.055
0.015
0.071
0.082
0.139
0.112
0.131
0.084
0.093
-0.083
0.078
0.120
0.126
-0.020
0.039
0.086
0.135
0.008
-0.037
-0.101
0.016
0.112
-0.092
0.027
-0.029
-0.113
-0.015
0.072
-0.011
0.128
-0.012
-0.110
-0.021
0.019
0.110
-0.085
-0.032
0.007
-0.054
-0.010
-0.124
-0.168
-0.143
0.091
-0.096
-0.085
-0.124
-0.057
-0.012
-0.105
-0.113
-0.090
-0.025
-0.165
-0.459
-0.424
-0.174
-0.025
0.178
-0.044
-0.175
0.191
-0.072
-0.059
0.018
0.277
0.167
0.164
0.079
0.222
0.195
0.231
0.361
0.167
0.144
0.330
0.014
0.061
0.045
0.070
-0.122
-0.094
-0.105
0.246
0.208
0.071
-0.085
-0.026
0.009
0.035
0.134
0.173
0.164
0.197
0.166
0.079
0.059
0.086
0.185
0.107
0.155
0.219
0.048
0.202
0.177
0.280
-0.000
0.147
0.072
0.154
0.144
0.070
-0.026
-0.037
0.032
0.012
0.088
0.008
-0.010
0.013
0.051
-0.231
-0.155
0.104
-0.063
0.029
-0.175
-0.094
0.030
-0.260
-0.080
-0.015
-0.186
0.003
-0.043
-0.188
-0.093
0.027
-0.157
-0.103
-0.107
-0.105
-0.288
-0.184
-0.347
-0.300
-0.224
-0.130
-0.139
-0.267
-0.115
-0.048
0.098
-0.205
-0.156
-0.046
-0.060
-0.102
0.124
0.016
0.265
-0.022
0.033
0.129
0.111
0.149
0.089
0.176
0.004
0.005
0.063
0.016
-0.002
0.090
0.056
0.094
0.066
0.096
0.042
0.076
-0.120
-0.048
0.008
0.131
-0.094
-0.155
-0.045
-0.030
-0.052
-0.099
0.039
-0.129
-0.174
0.010
-0.044
-0.012
-0.125
-0.056
-0.520
-0.596
-0.406
-0.143
-0.196
-0.070
0.031
0.297
0.207
0.046
-0.499
-0.507
-0.051
0.202
0.500
0.439
-0.003
-0.111
-0.186
0.054
0.095
0.135
0.058
-0.049
-0.098
-0.060
0.104
-0.181
-0.012
-0.102
-0.021
-0.091
0.076
0.242
0.090
0.073
0.374
0.280
-0.071
-0.407
-0.559
-0.232
0.376
0.879
0.784
0.356
-0.269
-0.379
-0.422
-0.163
-0.041
-0.112
-0.275
-0.374
-0.086
0.120
0.105
-0.226
-0.618
-0.826
-0.558
-0.405
-0.173
-0.223
-0.492
-0.363
-0.213
-0.188
0.006
0.121
0.068
0.204
0.238
-0.291
-0.119
-0.053
-0.016
0.213
0.297
0.266
0.187
0.153
0.348
0.177
-0.031
0.052
0.010
-0.212
-0.177
-0.213
-0.138
0.076
0.212
0.641
0.212
-0.610
-0.774
-0.397
-0.287
-0.014
0.121
0.335
0.325
0.423
0.424
0.118
-0.043
0.191
0.612
0.566
0.627
0.444
0.383
0.349
0.248
0.224
0.209
0.250
0.150
0.011
-0.074
-0.069
-0.157
-0.217
-0.255
-0.090
-0.246
-0.120
-0.192
-0.237
-0.184
0.007
0.167
0.090
0.292
0.292
0.531
0.305
0.260
0.288
0.336
0.358
0.353
0.435
0.387
0.444
0.314
0.313
-0.418
-1.411
-3.223
-3.689
-3.737
-3.617
2.279
4.599
5.180
3.586
-0.685
-2.845
-1.026
-3.146
1.396
3.923
4.553
4.560
4.401
4.161
3.919
3.702
3.474
3.246
2.547
0.607
-2.671
-5.185
-5.811
-2.818
0.492
0.394
-1.648
-3.383
-4.151
-4.041
-2.974
-1.618
0.183
1.478
2.555
3.232
3.276
2.983
2.529
1.681
1.196
0.831
0.310
-0.171
-0.363
-0.432
-0.395
-0.234
0.093
0.278
0.547
0.708
0.737
0.787
0.828
0.825
0.914
0.777
0.637
0.790
0.904
0.798
0.770
0.619
0.710
0.646
0.615
0.554
0.587
0.548
0.427
0.405
0.459
0.380
0.319
0.301
0.055
0.087
0.182
0.201
0.215
-0.092
-0.051
-0.034
-0.129
-0.054
0.038
-0.171
-0.162
-0.257
-0.251
-0.167
-0.256
-0.198
-0.346
-0.374
-0.230
-0.219
-0.244
-0.243
-0.223
-0.364
-0.339
-0.202
-0.176
-0.105
-0.299
-0.306
-0.133
-0.162
-0.151
-0.124
-0.069
-0.160
-0.087
-0.085
0.067
0.013
0.001
-0.012
-0.001
0.091
0.158
0.021
0.038
0.043
0.065
0.033
0.087
0.193
0.168
-0.038
-0.078
-0.015
0.134
0.167
0.119
-0.064
-0.013
0.137
0.047
0.024
-0.002
-0.063
0.023
0.031
0.088
0.019
0.083
-0.026
-0.011
0.014
0.069
0.071
0.477
1.302
-0.523
-1.003
-0.576
-0.076
0.762
1.532
1.368
0.776
0.193
-0.089
-0.123
0.081
0.183
0.446
0.527
0.390
0.463
0.139
0.086
-0.064
-0.144
-0.098
-0.213
-0.300
-0.175
-0.177
-0.070
-0.070
0.041
0.154
0.103
0.196
0.248
0.119
0.214
0.397
0.409
0.315
0.154
0.325
0.127
0.265
0.216
0.279
0.213
0.197
0.128
0.199
0.100
0.314
0.225
0.011
0.185
0.073
0.169
0.042
0.047
0.064
0.041
0.134
-0.011
-0.141
0.003
-0.068
-0.126
-0.070
-0.143
-0.027
-0.125
-0.149
-0.144
-0.288
-0.224
-0.128
-0.289
-0.314
-0.058
-0.184
-0.194
-0.312
-0.210
-0.080
-0.233
-0.054
-0.218
-0.216
-0.101
-0.197
-0.094
-0.060
-0.140
0.014
-0.016
-0.104
0.088
-0.025
0.022
0.027
-0.003
0.007
-0.003
0.040
0.071
0.017
0.151
0.125
0.164
0.057
0.095
0.149
0.205
0.124
0.070
0.204
0.118
0.066
0.015
0.020
0.152
0.085
0.207
0.196
-0.044
0.032
0.146
0.035
0.189
0.168
0.028
0.049
-0.052
0.073
0.154
-0.047
0.051
0.002
0.048
-0.039
0.069
-0.071
-0.080
-0.120
0.016
-0.076
-0.062
-0.113
0.065
-0.201
-0.220
-1.055
-1.705
-1.299
-0.527
-0.314
-0.062
-0.310
-0.043
-0.006
-0.233
-0.846
-0.396
0.022
0.105
0.366
0.629
0.575
0.775
0.564
0.541
0.406
0.334
0.406
0.108
-0.038
-0.034
-0.274
-0.202
-0.269
-0.331
-0.272
-0.267
-0.212
-0.194
-0.205
-0.216
-0.102
-0.295
-0.299
-0.400
-0.405
-0.223
-0.175
-0.308
-0.457
-0.270
-0.232
-0.265
-0.079
0.016
-0.226
-0.479
0.119
0.557
0.324
0.117
0.178
0.813
1.414
0.451
0.001
-0.223
-0.219
0.403
0.349
0.414
0.338
0.142
-0.801
-3.126
-1.694
-0.768
-0.001
-0.276
0.271
0.647
0.992
0.277
-0.184
-0.206
0.175
0.633
1.207
1.464
1.407
1.277
1.046
0.878
0.735
0.453
0.278
-0.034
-0.029
-0.327
-0.529
-0.452
-0.348
-0.377
-0.315
-0.301
-0.222
-0.296
-0.118
0.033
0.076
-0.104
-0.226
0.011
-0.056
0.012
0.111
0.094
0.193
0.088
0.066
0.140
0.104
0.080
-0.120
-0.103
0.205
0.242
0.124
0.234
0.073
-0.017
0.511
0.433
0.490
0.791
0.301
-0.102
0.229
-1.388
0.032
1.433
1.596
1.069
0.311
-0.709
-0.194
0.014
-2.982
0.841
3.428
4.151
2.255
-0.657
-2.374
-2.922
-2.138
-0.810
0.739
1.420
0.875
2.812
3.001
2.204
1.509
0.429
-0.548
-0.828
-1.148
-1.232
-0.838
-1.232
-3.611
-4.232
0.651
3.592
4.304
1.650
-1.084
-2.531
-2.503
-1.176
0.342
1.581
2.636
2.936
3.082
2.769
2.190
1.308
0.723
0.344
-0.148
-0.468
-0.767
-0.545
-0.488
-0.393
-0.216
-0.018
0.052
0.322
0.063
0.107
0.466
0.528
0.591
0.387
0.271
-1.598
-3.474
-0.986
3.192
4.398
4.627
2.955
-1.253
-3.642
-4.275
-4.085
-2.359
-2.123
2.858
4.383
4.710
4.666
4.503
2.739
-2.451
1.070
3.125
2.139
-0.257
-1.741
-2.233
-4.121
-2.735
-1.248
-1.227
2.303
2.867
1.504
-2.000
-3.907
-2.436
0.645
1.670
1.465
0.896
0.288
0.887
0.695
0.109
-0.022
0.457
1.090
1.341
1.625
1.736
1.406
1.216
0.964
0.512
0.107
-0.106
-0.580
-0.634
-0.608
-0.589
-0.412
-0.487
-0.312
-0.247
-0.357
-2.565
0.084
1.989
1.825
0.994
0.036
-0.380
-0.411
0.061
0.297
0.354
0.231
0.506
0.815
0.703
-0.712
-3.212
-3.846
-3.278
-0.359
1.483
-1.624
1.263
3.053
1.890
-0.376
-1.381
-1.656
-1.683
1.304
2.919
3.517
3.972
3.321
2.063
1.058
0.131
-0.340
-0.781
-0.723
-0.990
-0.933
-1.177
-1.251
-1.198
-1.049
-0.934
-0.846
-0.586
-0.264
0.798
0.043
-1.795
-1.619
-0.682
0.060
0.486
0.365
1.482
1.497
0.764
0.228
-0.378
-1.658
-1.785
-1.164
0.146
2.367
1.146
-0.411
-0.641
-0.348
0.158
0.154
-0.085
-0.048
0.271
0.507
0.586
0.691
0.781
0.901
0.918
0.829
1.001
0.801
0.675
0.473
0.355
0.290
0.181
0.192
0.053
-0.006
0.064
-0.096
-0.064
-0.011
-0.002
-0.131
0.010
-0.077
-0.106
-0.116
-0.146
0.073
-0.117
-0.230
-0.103
-0.137
-0.119
-0.142
-0.205
-0.326
-0.128
-0.193
-0.123
-0.117
0.073
-0.127
-0.146
-0.167
-0.161
-0.043
-0.086
-0.009
0.106
-0.045
0.036
0.116
0.058
0.020
-0.123
0.055
0.105
0.060
0.069
0.091
0.066
0.165
0.213
0.008
-0.023
0.053
0.052
0.106
0.147
0.127
0.051
-0.008
0.105
-0.004
0.059
0.064
0.143
0.040
-0.103
0.038
0.019
-0.010
0.110
-0.048
-0.054
-0.006
0.025
-0.105
-0.030
0.009
-0.071
0.015
0.009
0.024
-0.016
-0.103
-0.023
-0.154
-0.087
-0.003
-0.018
-0.139
0.066
0.010
0.010
-0.074
-0.043
-0.005
0.004
0.111
0.014
0.017
-0.039
-0.035
-0.029
0.112
0.127
-0.028
-0.008
0.067
0.035
0.098
0.124
0.243
0.195
-0.025
0.027
0.015
0.244
0.067
0.158
0.189
0.123
0.020
0.137
-0.003
0.032
0.212
0.037
0.072
0.032
-0.061
0.067
0.016
0.121
-0.013
-0.058
-0.042
-0.024
0.043
-0.075
-0.028
-0.109
0.135
-0.088
0.007
-0.004
-0.040
-0.077
-0.090
-0.090
0.017
-0.098
-0.147
0.025
-0.036
-0.060
-0.158
-0.111
-0.043
-0.044
0.010
-0.030
-0.011
-0.064
0.136
-0.070
-0.021
-0.075
-0.003
0.056
0.056
-0.033
0.010
0.058
-0.091
0.014
-0.001
-0.034
0.027
0.092
0.115
-0.057
0.090
0.045
0.060
-0.095
0.030
0.161
0.207
-0.038
-0.004
0.131
-0.044
0.162
0.191
0.141
0.049
0.053
0.124
0.030
0.091
0.052
0.111
0.095
0.099
0.049
0.161
-0.015
0.029
0.093
0.111
0.023
0.013
0.061
0.052
-0.099
-0.016
0.043
0.080
0.070
-0.033
-0.083
0.068
-0.143
0.079
0.056
0.104
-0.003
-0.081
0.016
0.002
0.006
0.034
-0.117
-0.026
0.113
0.122
-0.071
0.001
0.094
-0.082
-0.017
-0.047
0.010
-0.101
-0.045
-0.099
0.094
0.043
-0.013
-0.142
-0.092
0.083
0.141
0.159
-0.119
0.083
0.034
-0.099
-0.019
0.074
0.034
0.066
0.077
0.077
0.075
-0.032
0.076
-0.055
0.082
0.128
-0.026
0.069
-0.043
0.043
-0.058
0.049
0.158
0.114
-0.033
0.056
0.071
0.030
-0.061
0.017
0.024
0.082
0.036
0.084
0.040
0.014
-0.022
0.077
-0.069
-0.023
0.085
0.071
0.017
-0.129
-0.063
-0.042
0.037
0.125
0.068
0.001
0.018
0.023
0.040
-0.052
0.045
0.018
-0.109
-0.088
0.106
0.167
-0.062
0.112
0.045
0.008
-0.118
-0.014
0.079
0.066
-0.005
0.078
0.024
0.023
-0.034
0.132
-0.061
-0.005
-0.025
0.067
0.076
0.036
-0.016
0.083
0.051
-0.067
0.068
0.012
-0.048
0.104
-0.106
0.015
0.017
-0.016
-0.020
-0.038
0.083
0.051
-0.011
0.123
0.036
-0.023
0.098
-0.076
0.001
-0.055
-0.019
0.062
0.013
0.124
0.044
-0.061
-0.012
0.095
-0.143
-0.007
0.205
0.051
0.062
-0.103
0.033
0.059
0.093
-0.012
0.098
-0.079
0.103
0.073
0.077
0.042
-0.010
-0.118
0.106
0.005
0.034
-0.025
0.186
-0.006
0.015
0.057
-0.023
0.011
0.038
0.038
0.079
-0.038
-0.079
-0.010
0.094
0.043
0.023
-0.001
-0.021
-0.093
0.096
0.037
0.062
0.008
0.061
-0.012
-0.035
0.046
0.076
0.073
0.052
0.058
0.030
-0.004
-0.010
0.025
-0.039
0.087
-0.041
0.026
-0.004
0.047
0.063
-0.079
-0.052
0.025
0.012
0.032
0.031
0.003
0.000
0.011
0.007
-0.053
0.120
-0.045
-0.150
0.037
0.087
-0.028
0.098
-0.062
0.125
-0.095
0.015
0.195
-0.064
0.070
-0.018
0.117
-0.027
-0.217
0.101
0.016
0.097
-0.035
0.103
-0.009
-0.034
0.024
0.051
-0.019
0.121
-0.058
0.007
-0.016
0.013
0.050
0.109
0.034
0.055
-0.013
-0.074
0.128
0.083
-0.036
-0.042
0.006
-0.019
0.042
0.029
0.014
-0.054
0.029
0.202
0.015
-0.131
-0.159
-0.131
0.062
0.158
-0.015
-0.021
0.152
0.046
0.060
-0.065
-0.009
0.033
0.105
0.057
-0.044
-0.046
0.058
0.039
0.078
0.148
0.049
0.137
-0.142
-0.089
-0.139
-0.077
0.113
0.070
0.011
0.149
0.096
-0.028
0.075
-0.096
0.049
0.042
-0.014
0.022
0.036
0.040
0.017
0.023
0.065
-0.064
0.143
0.105
0.017
-0.104
0.060
0.172
0.086
0.028
-0.086
-0.049
0.059
0.001
0.035
0.054
0.004
-0.049
-0.007
-0.001
0.059
-0.023
0.152
-0.055
0.090
0.016
-0.032
0.111
-0.018
0.082
0.086
0.137
0.037
-0.004
0.084
-0.003
0.015
0.023
0.085
-0.021
-0.049
0.134
-0.099
0.131
0.023
-0.085
-0.018
0.130
-0.016
0.067
0.110
-0.051
-0.004
0.091
0.033
-0.024
0.004
0.050
0.086
-0.019
-0.023
0.106
0.083
-0.089
0.011
0.036
0.008
0.052
-0.002
-0.008
-0.022
0.133
0.055
-0.041
-0.023
0.121
0.009
-0.028
0.082
0.038
-0.026
-0.043
0.054
0.044
0.016
0.086
0.124
0.012
-0.146
0.081
0.016
0.030
0.076
0.106
-0.085
0.093
-0.011
0.191
0.100
0.160
0.039
-0.070
0.807
0.715
-0.898
-0.878
-0.028
0.572
-0.008
0.267
0.725
1.169
0.108
0.155
0.189
0.160
-1.089
-3.147
-1.394
1.767
2.166
2.003
0.273
-0.028
-0.252
-0.502
-0.388
-0.173
0.023
0.319
0.643
0.567
0.615
0.468
0.267
0.122
-0.018
-0.081
-0.255
-0.317
-0.371
-0.305
-0.174
-0.233
-0.092
0.105
0.022
-0.046
0.102
0.018
0.126
0.088
0.056
0.252
0.073
0.080
0.075
0.146
-0.109
0.057
-0.002
0.087
0.018
0.006
0.058
0.095
0.027
-0.039
-0.067
-0.104
-0.224
0.154
-0.032
-0.173
-0.114
-0.058
-0.043
-0.350
0.128
-0.001
0.149
-0.015
-0.032
-0.107
0.010
-0.026
0.034
0.145
0.001
-0.002
-0.124
-0.210
-0.142
-0.170
-0.205
-0.331
-0.186
-0.221
-0.203
-0.332
-0.326
-0.060
-0.168
-0.221
-0.190
-0.121
0.071
-0.025
-0.021
-0.035
-0.003
-0.037
-0.051
0.014
-0.131
0.087
0.113
-0.009
0.000
0.084
0.206
0.057
0.067
0.097
0.201
0.101
0.009
0.108
0.151
0.160
0.089
0.232
0.184
0.018
-0.008
-0.020
-0.049
-0.008
0.022
0.005
-0.103
-0.108
0.021
0.211
0.223
0.161
0.030
-0.012
-0.092
0.038
-0.022
0.194
-0.065
0.039
-0.060
-0.008
0.268
0.123
-0.078
-0.122
0.128
0.152
0.106
0.094
0.094
0.064
0.190
0.030
-0.029
-0.069
0.149
-0.246
-0.256
0.013
0.811
0.890
-0.279
-2.047
-3.724
-2.737
0.179
2.061
2.201
1.272
0.236
-0.387
-0.697
-0.375
0.157
0.609
1.073
1.483
1.618
1.526
1.381
1.101
0.820
0.454
0.130
-0.345
-0.503
-0.634
-0.752
-0.975
-0.538
-0.653
-1.035
-0.701
-0.492
-0.212
-0.243
-0.105
-0.049
-0.094
0.008
0.045
0.324
0.554
0.452
0.251
0.293
0.239
0.300
0.254
0.315
0.241
0.149
0.241
0.131
0.148
-0.038
-0.192
0.103
-0.090
-0.296
-0.273
0.265
0.350
0.558
0.613
0.527
0.291
0.130
0.038
0.076
0.261
0.397
0.421
0.365
0.283
0.323
0.222
0.039
-0.090
-0.132
-0.209
-0.340
-0.182
0.000
0.096
-0.060
0.166
-0.104
-0.230
-0.139
-0.077
-0.104
0.154
0.005
-0.126
-0.247
-0.116
-0.070
-0.161
-0.021
-0.323
-1.153
-0.901
-0.085
0.227
-1.321
-2.199
-3.777
-2.598
0.245
2.101
2.159
1.418
2.101
1.226
-0.054
-0.343
0.212
0.891
1.609
2.144
2.390
2.152
1.647
1.233
0.632
-0.257
-0.637
-0.985
-2.026
-1.712
-3.331
-3.927
1.650
3.517
1.941
0.245
-1.444
-1.819
-2.166
-1.430
0.736
1.823
1.914
1.182
1.198
1.529
1.486
0.990
0.667
0.144
-0.140
-0.108
-0.089
-0.068
-0.114
-0.136
-0.083
0.135
0.308
0.228
0.400
0.361
0.462
0.417
0.360
0.581
0.609
0.505
0.506
0.530
-1.666
-3.331
2.023
4.191
4.696
1.132
-2.624
-3.812
-3.070
-1.035
0.223
2.773
1.728
-1.090
3.021
4.202
4.375
2.560
-1.255
-3.757
-2.878
0.378
1.967
1.536
0.561
0.030
-0.296
-0.166
-0.185
0.044
0.278
0.574
0.425
0.189
-0.394
-0.635
-0.431
-0.333
-0.290
-0.629
-1.993
-0.593
-0.267
-3.282
0.105
0.944
0.107
2.350
1.914
0.601
-0.266
-0.767
-0.453
0.088
0.670
1.219
1.590
1.463
1.376
1.081
0.912
0.501
0.248
0.033
-0.247
-0.321
-0.312
-0.420
-0.231
-0.101
-0.007
-0.024
0.110
0.112
0.274
0.352
0.185
0.192
0.319
0.217
0.182
0.213
0.192
0.175
0.108
-1.664
-1.321
1.389
2.278
1.552
0.491
-0.220
-0.550
-0.504
-0.350
0.185
0.429
0.653
0.609
0.512
0.421
0.437
0.210
0.011
0.047
-0.139
-0.494
-2.481
-3.928
-2.329
2.654
4.081
2.629
0.040
-1.688
-1.903
-1.232
-0.555
0.444
1.378
1.808
1.861
1.589
-1.410
-3.712
-3.203
-0.619
0.230
-0.503
-0.853
-1.240
-2.622
-1.283
0.593
1.297
1.138
1.366
1.906
2.301
2.776
2.724
2.736
2.411
2.131
1.697
0.983
0.221
-0.224
-0.724
-1.316
-1.400
-1.631
-1.513
-1.519
-1.028
-0.982
-0.666
-0.446
-0.273
-0.234
-0.152
-0.005
0.084
0.121
0.072
0.061
0.233
0.254
0.063
0.226
0.203
0.431
0.344
0.372
0.423
0.482
0.452
0.522
0.495
0.474
0.605
0.664
0.492
0.428
0.472
0.611
0.571
0.406
0.510
0.433
0.449
0.368
0.369
0.261
0.337
0.335
0.184
0.157
0.069
0.101
0.092
0.085
0.124
0.055
-0.103
0.039
0.046
-0.132
-0.120
-0.158
-0.239
-0.108
-0.163
-0.157
-0.222
-0.299
-0.344
-0.117
-0.212
-0.269
-0.317
-0.289
-0.141
-0.257
-0.233
-0.267
-0.103
-0.217
-0.224
-0.192
-0.288
-0.180
-0.069
-0.149
-0.035
-0.118
-0.197
-0.185
-0.063
-0.059
-0.079
-0.048
-0.063
0.021
-0.179
0.025
-0.014
-0.114
0.108
0.072
-0.030
-0.017
-0.040
0.056
0.104
-0.064
0.172
0.072
0.077
-0.057
0.072
0.114
0.047
0.001
0.123
0.142
0.104
0.052
0.118
0.021
-0.010
0.032
0.138
0.014
-0.034
0.036
0.021
0.108
0.101
0.006
0.104
-0.018
0.152
0.037
0.054
-0.004
0.104
0.145
-0.003
0.053
0.099
-0.061
0.079
0.158
-0.053
-0.089
0.107
0.061
-0.086
0.125
0.068
0.067
-0.119
-0.009
0.045
0.143
0.108
-0.029
-0.006
-0.053
0.032
0.025
0.079
0.159
0.011
0.095
-0.005
0.155
-0.076
-0.027
-0.020
-0.016
0.076
-0.017
-0.050
0.060
0.044
-0.133
0.044
0.032
-0.046
-0.097
-0.028
-0.121
-0.033
-0.047
-0.110
-0.056
-0.022
-0.030
0.027
-0.034
0.024
0.002
0.052
0.005
-0.059
-0.043
0.073
-0.008
-0.053
-0.138
0.070
0.029
-0.053
-0.107
-0.046
0.035
-0.051
0.046
0.016
0.005
-0.134
0.022
0.078
0.065
0.046
0.109
0.037
0.006
0.123
0.036
0.138
-0.081
0.072
0.004
0.071
0.009
0.134
0.031
-0.055
0.051
0.146
0.087
0.105
-0.009
0.024
0.050
0.144
0.166
0.031
0.145
0.023
0.111
-0.018
-0.048
0.152
0.024
0.068
0.119
0.071
-0.019
0.110
-0.088
0.060
0.086
-0.053
0.063
0.043
-0.036
0.071
-0.012
0.068
-0.054
0.005
-0.014
-0.051
-0.042
-0.083
-0.022
-0.108
0.043
-0.063
-0.104
-0.043
0.111
-0.096
0.087
-0.033
-0.062
0.087
-0.159
-0.118
-0.042
0.008
0.048
0.010
-0.171
0.135
-0.011
-0.019
-0.043
-0.036
-0.044
-0.042
0.011
0.048
0.042
0.132
0.099
0.035
0.023
0.109
0.077
0.001
-0.024
0.121
0.031
0.116
0.063
0.098
0.080
0.146
-0.000
-0.171
-0.096
0.024
-0.035
0.049
0.083
0.072
0.029
0.115
-0.078
0.029
0.044
0.069
0.100
0.065
0.192
0.089
0.015
0.059
-0.016
0.015
-0.005
0.137
-0.048
0.124
-0.038
0.005
0.002
-0.054
0.069
0.033
-0.023
0.050
0.105
-0.011
-0.016
0.121
0.050
0.017
-0.040
0.005
0.097
0.045
0.009
0.069
0.084
-0.039
-0.084
0.023
-0.046
0.011
0.123
-0.040
-0.124
0.011
0.048
-0.098
0.008
0.005
0.079
-0.031
0.071
0.000
0.043
0.171
-0.110
0.023
0.028
-0.033
-0.017
-0.074
0.069
-0.046
0.063
-0.115
0.069
-0.042
-0.020
-0.022
-0.049
0.018
0.076
-0.003
0.017
0.096
0.020
-0.024
-0.023
0.162
0.131
-0.078
-0.011
0.086
0.021
-0.048
-0.037
0.067
0.022
-0.001
0.055
-0.014
-0.026
-0.071
0.143
0.102
-0.020
0.034
-0.043
-0.037
0.100
-0.065
0.074
0.029
-0.023
-0.021
0.138
0.000
0.106
-0.030
-0.019
0.004
0.007
-0.006
0.020
0.032
0.015
-0.070
0.004
0.081
0.081
-0.042
0.001
0.030
0.038
0.059
-0.012
-0.005
-0.031
0.009
-0.008
-0.008
0.099
-0.015
0.036
0.040
0.057
0.131
-0.095
-0.084
0.006
0.006
0.090
-0.025
0.134
0.109
-0.046
-0.096
-0.034
0.046
-0.008
-0.070
0.009
-0.013
0.094
-0.076
-0.360
-0.110
0.017
0.001
0.118
0.125
0.034
0.174
0.010
-0.013
0.010
0.055
0.000
0.100
0.120
0.015
0.157
0.230
0.071
0.080
-1.143
-3.518
-4.156
-4.202
-4.117
-2.276
2.788
4.361
-0.516
-2.988
-3.677
1.071
3.963
4.727
4.779
4.630
4.450
3.807
3.856
3.737
3.536
3.355
3.171
2.256
-0.035
-2.831
-4.591
-5.108
-5.333
-4.913
-4.466
-4.496
-3.596
-2.501
-1.371
-1.667
-3.315
-3.623
-1.072
1.983
2.912
2.364
1.170
-0.091
-0.453
-0.343
0.002
0.939
1.733
2.792
3.873
4.339
4.366
4.124
3.561
2.848
2.227
1.654
0.964
0.348
0.012
-0.092
-0.352
-0.562
-0.574
-0.480
-0.515
-0.334
-0.290
-0.315
-0.372
-0.227
-0.229
-0.243
-0.185
-0.201
-0.165
-0.170
-0.203
-0.079
-0.178
0.121
0.138
0.101
0.178
0.048
0.224
0.307
0.342
0.367
0.420
0.457
0.428
0.534
0.520
0.598
0.548
0.611
0.545
0.516
0.541
0.568
0.586
0.702
0.532
0.556
0.411
0.618
0.552
0.397
0.400
0.380
0.498
0.409
0.357
0.332
0.226
0.163
0.250
0.119
0.196
0.119
0.023
-0.009
0.050
-0.099
0.068
0.019
-0.211
-0.133
-0.315
-0.172
-0.046
-0.183
-0.248
-0.190
-0.250
-0.199
-0.280
-0.245
-0.350
-0.246
-0.176
-0.266
-0.099
-0.290
-0.182
-0.297
-0.156
-0.110
0.087
0.143
0.063
0.158
1.002
0.778
-1.054
-1.947
-0.724
1.305
2.046
0.660
0.567
0.296
0.078
-0.172
-0.092
0.091
0.273
0.215
0.145
0.304
0.432
0.327
0.124
-0.022
-0.050
-0.133
-0.084
-0.112
-0.066
-0.017
-0.080
0.170
0.154
0.157
0.167
0.089
0.285
0.193
0.245
0.105
0.363
0.152
0.190
0.213
0.137
0.020
-0.066
-0.700
-3.107
-3.171
-1.270
-2.456
-2.782
-3.453
0.586
3.546
3.318
1.434
-0.309
-1.006
-0.647
0.294
1.639
2.761
3.683
3.883
3.678
3.147
2.375
1.441
0.502
-0.349
-1.010
-1.549
-1.726
-1.645
-1.750
-1.620
-1.365
-1.245
-0.876
-0.735
-0.501
-0.374
-0.336
-0.229
-0.265
-0.263
-0.180
-0.106
-0.102
-0.155
-0.075
-0.006
0.059
0.041
0.104
0.198
0.394
0.247
0.335
0.284
0.515
0.435
0.370
0.555
0.421
0.582
0.484
0.385
0.461
0.494
0.546
0.590
0.544
0.460
0.565
0.322
0.344
0.403
0.375
0.291
0.352
0.283
0.098
0.216
0.228
0.185
0.043
0.018
0.068
0.054
0.064
0.017
-0.055
-0.104
-0.273
0.021
-0.090
-0.099
-0.065
-0.207
-0.137
-0.251
-0.203
-0.150
-0.084
-0.176
-0.184
-0.194
-0.183
-0.127
-0.106
-0.081
-0.068
-0.083
-0.098
-0.092
-0.052
-0.051
-0.121
0.003
-0.010
-0.004
0.024
-0.057
-0.041
-0.018
0.010
0.046
0.119
0.113
-0.094
0.042
0.051
0.055
0.021
0.063
0.008
-0.046
0.020
0.023
0.068
0.075
0.078
-0.040
0.083
0.055
0.006
0.020
0.174
-0.097
-0.056
0.058
-0.005
0.034
0.011
0.108
0.058
-0.022
-0.011
0.033
0.070
0.122
0.051
0.021
0.047
0.089
0.045
0.151
0.173
0.015
-0.068
-0.210
-0.330
-0.366
-0.116
-0.184
-0.081
-0.075
-0.162
-0.235
-0.055
-0.038
-0.124
-0.147
-0.025
0.055
0.088
0.125
0.159
0.228
0.220
0.119
0.203
0.248
0.210
0.230
0.160
0.175
0.139
0.115
0.107
0.130
0.284
-0.011
0.110
0.053
0.146
0.070
0.066
0.054
0.053
-0.004
-0.170
0.133
0.024
-0.146
0.017
0.029
-0.051
-0.085
-0.036
-0.117
0.005
-0.083
0.025
-0.044
-0.058
-0.192
-0.014
-0.026
-0.107
-0.228
-0.175
-0.089
-0.017
-0.144
-0.064
-0.069
-0.269
-0.027
-0.049
-0.145
0.099
0.070
0.200
0.756
0.983
0.513
0.418
-0.512
0.255
0.091
0.353
0.725
0.477
0.373
0.141
0.109
-0.137
-0.075
-0.192
-0.096
-0.181
-0.107
0.004
-0.071
0.001
-0.069
-0.039
0.020
-1.439
-0.009
0.698
0.912
0.698
0.131
0.067
-0.093
0.071
-1.178
-3.244
-2.250
-0.024
0.933
0.963
-0.089
-0.694
-1.296
-0.853
-0.204
-0.086
0.092
0.755
1.171
1.259
1.274
1.508
1.238
0.870
0.570
0.836
1.084
1.987
1.698
0.803
0.093
-0.373
-0.489
-0.587
-0.600
-1.250
-1.656
-3.794
-4.166
-0.401
1.984
1.801
0.401
-1.037
-1.871
-1.944
-1.643
-0.855
0.049
0.705
1.284
1.424
1.568
1.241
0.921
0.721
0.296
0.172
-0.278
-0.282
-0.167
-0.291
-0.415
-0.464
-0.303
-0.051
0.055
0.378
0.364
0.039
-0.003
0.068
0.363
0.507
0.405
0.369
0.438
0.329
0.136
0.158
0.162
0.191
0.217
0.247
0.328
0.423
0.484
0.460
0.211
0.000
0.283
0.218
0.150
-0.059
0.188
0.297
0.051
0.368
0.264
0.146
0.082
0.195
0.377
-0.014
-0.399
-0.636
-0.484
0.158
0.307
0.051
-0.280
-0.487
-1.139
-0.586
-0.073
0.302
0.313
0.170
-0.035
0.311
0.416
-0.235
0.379
1.051
1.030
0.499
0.367
0.329
-0.767
-3.163
0.121
2.731
1.253
0.570
0.259
-0.435
-1.364
-2.605
-1.200
-0.040
0.573
0.622
0.752
0.866
0.911
0.631
0.190
-0.046
-0.108
-0.045
0.191
0.229
-0.025
0.183
0.041
-1.011
-2.771
-0.446
1.794
1.799
0.765
-0.124
-0.567
-0.650
-0.337
-0.068
0.356
0.661
0.782
0.861
0.909
0.651
0.502
0.242
0.001
-0.009
-0.161
-0.138
-0.231
-0.228
-0.101
-0.041
-0.156
-0.064
0.139
0.131
0.107
0.126
0.139
0.107
0.109
0.146
0.153
0.150
0.121
-0.065
0.096
0.197
0.216
0.157
0.096
0.141
0.072
0.048
0.177
0.088
0.093
0.140
0.025
0.034
0.011
0.184
0.042
0.044
0.086
0.011
0.001
0.014
-0.045
0.018
-0.025
-0.051
-0.045
-0.009
0.097
0.004
-0.001
0.022
-0.210
-0.158
-0.064
0.022
-0.080
-0.087
-0.122
-0.110
-0.160
-0.031
-0.004
-0.022
-0.010
-0.086
-0.226
-0.013
-0.048
-0.075
-0.144
-0.065
0.008
-0.062
0.067
-0.152
-0.126
0.003
0.067
-0.012
-0.186
-0.174
-0.037
0.053
0.102
0.045
-0.092
-0.158
-0.033
0.021
0.004
0.009
0.059
0.057
0.051
0.128
-0.029
0.000
0.100
0.065
0.088
0.109
-0.028
0.031
0.107
0.103
0.112
0.017
0.025
0.119
0.111
-0.102
-0.128
0.088
0.060
0.001
0.122
-0.016
0.069
-0.007
0.072
0.008
0.120
0.001
-0.016
0.081
0.115
0.068
0.008
-0.039
0.091
-0.024
0.036
-0.072
-0.116
0.131
-0.051
-0.043
0.099
0.005
-0.046
0.004
-0.027
-0.012
-0.028
0.016
-0.009
0.029
0.025
0.045
-0.038
-0.053
-0.072
-0.002
-0.004
-0.002
-0.054
-0.053
-0.025
0.018
-0.047
-0.131
-0.002
-0.164
-0.002
-0.014
-0.019
0.003
0.053
0.109
-0.032
-0.081
-0.028
-0.010
0.036
0.032
0.069
-0.032
-0.016
0.038
-0.063
0.057
0.004
-0.005
0.085
0.076
-0.041
0.012
0.031
-0.074
0.096
-0.058
0.117
0.041
-0.022
-0.018
0.115
0.059
0.109
-0.009
-0.036
0.012
0.009
-0.016
0.079
0.122
0.028
0.024
-0.062
0.046
-0.060
0.127
-0.041
-0.010
0.107
0.137
0.036
0.032
-0.006
-0.017
0.129
0.145
-0.057
0.077
-0.073
0.039
0.017
-0.056
0.013
-0.079
0.100
-0.093
0.017
-0.002
0.031
0.075
0.124
-0.031
-0.132
0.126
0.043
-0.055
0.023
0.051
0.006
-0.006
0.060
0.002
-0.044
0.029
-0.041
0.035
0.037
0.026
-0.107
0.064
-0.062
-0.049
-0.005
0.027
0.107
0.066
-0.117
-0.040
0.065
0.033
0.023
0.047
-0.014
-0.051
-0.040
-0.011
0.136
0.089
-0.055
0.031
-0.152
-0.020
0.135
0.021
0.005
0.036
0.154
-0.054
-0.021
0.014
0.134
0.038
-0.101
-0.133
0.129
0.047
0.053
-0.024
0.043
0.041
0.047
-0.077
-0.023
0.041
0.023
0.119
0.086
-0.087
0.028
0.052
-0.014
-0.079
0.133
0.022
0.043
0.065
-0.109
0.072
0.051
-0.040
0.026
0.098
0.084
0.041
0.003
-0.096
-0.004
0.064
0.032
-0.036
-0.049
0.053
0.076
-0.003
-0.006
-0.000
-0.003
0.022
0.097
-0.006
0.124
-0.211
0.080
-0.019
-0.003
-0.052
0.066
-0.006
0.035
0.023
0.065
-0.016
0.046
-0.006
-0.133
0.114
0.010
-0.042
0.078
0.006
-0.042
-0.006
0.025
0.054
0.103
0.025
-0.026
-0.040
-0.003
0.067
0.009
-0.004
0.026
0.182
0.014
-0.033
-0.019
-0.027
-0.016
0.064
0.077
-0.007
-0.040
0.069
0.066
0.045
0.100
-0.016
0.024
-0.075
-0.030
0.043
0.047
0.092
0.083
-0.086
-0.117
0.067
0.066
-0.002
0.020
-0.053
0.101
0.072
-0.003
0.016
0.009
0.035
-0.023
-0.086
0.036
0.197
-0.034
-0.020
-0.119
0.186
0.112
0.007
-0.002
-0.012
0.069
0.085
0.044
0.026
-0.038
0.123
0.088
-0.156
0.060
0.001
-0.111
0.065
0.029
-0.024
0.020
-0.006
0.143
0.058
-0.031
-0.085
0.109
0.017
-0.010
0.067
-0.066
0.097
0.001
0.015
-0.040
0.021
-0.031
0.047
0.019
-0.098
0.021
-0.007
0.014
0.012
0.118
-0.137
0.165
0.050
-0.041
0.081
0.040
-0.006
-0.057
-0.088
-0.060
0.015
0.124
-0.002
0.042
-0.047
0.087
0.087
0.045
-0.105
-0.091
0.133
0.195
-0.002
0.040
0.103
-0.017
-0.052
0.049
-0.007
-0.062
-0.034
-0.076
0.058
0.060
-0.051
0.130
0.078
-0.011
-0.002
0.051
0.068
-0.017
-0.047
0.048
-0.149
-0.064
-0.051
0.066
0.147
0.141
0.081
0.036
-0.071
-0.077
-0.117
0.080
0.148
0.041
0.037
0.046
-0.015
0.015
-0.027
-0.030
-0.149
-0.034
-0.047
-0.042
-0.597
-3.249
-3.610
-4.056
-4.065
2.212
4.275
4.780
2.431
-2.342
-3.785
-4.128
-2.415
1.670
4.001
4.594
4.611
4.472
4.252
4.032
3.326
1.407
-0.462
-2.148
-3.212
-3.564
-3.631
-3.281
-2.748
-2.042
-1.386
-0.614
-0.205
0.208
0.315
0.384
0.324
0.459
0.264
0.230
0.212
0.033
0.066
0.073
0.025
-0.072
0.103
0.169
0.176
0.215
0.274
0.417
0.438
0.322
0.333
0.272
0.464
0.253
0.264
0.235
0.192
0.232
0.271
0.371
0.171
0.193
0.087
0.186
0.098
0.081
0.116
0.078
0.201
0.143
-0.086
-0.030
-0.122
-0.070
-0.007
-0.072
-0.080
0.019
-0.103
-0.132
-0.077
-0.109
-0.181
-0.080
-0.083
-0.198
-0.155
-0.104
-0.117
-0.127
-0.182
-0.188
-0.119
-0.139
-0.116
-0.106
-0.096
-0.131
-0.142
-0.071
-0.117
-0.005
-0.017
0.047
-0.069
-0.016
-0.110
0.010
-0.057
0.039
0.028
0.002
0.055
0.139
-0.090
0.033
0.005
-0.001
0.132
0.070
-0.006
0.221
-0.029
-0.084
-0.074
0.104
0.201
-0.020
-0.007
-0.018
-0.063
0.096
0.074
0.003
0.027
0.021
-0.022
0.017
0.006
-0.138
-0.023
-0.044
-0.207
-0.508
-0.237
0.024
0.027
-0.059
-0.403
-0.145
-0.080
-0.351
-0.457
-1.921
-0.935
1.134
1.319
0.700
-0.060
-0.998
-0.889
-0.302
0.238
0.398
0.609
0.386
0.280
0.395
0.430
0.137
0.110
0.183
-0.062
-0.151
0.163
0.018
0.145
0.320
0.563
0.538
0.157
-0.010
-0.104
-0.330
-0.116
-0.054
0.089
0.070
0.073
-0.007
-0.165
-0.144
-0.123
-0.202
-0.296
-0.314
-0.238
-0.147
-0.164
-0.212
-0.129
-0.001
0.081
-0.072
0.106
0.118
0.167
-0.015
-0.134
0.102
0.159
0.112
0.191
0.218
0.276
0.183
0.129
0.125
0.265
0.151
0.196
0.272
0.132
0.180
0.078
0.174
0.263
0.033
-0.037
0.032
-0.119
-0.070
0.180
0.124
0.115
0.089
-0.186
-0.092
0.068
0.022
0.146
0.050
0.062
0.083
-0.008
0.148
-0.004
-0.060
-0.047
-0.057
-0.006
-0.074
-0.271
-0.259
-0.244
-0.085
-0.124
-0.072
-0.075
-0.133
-0.148
-0.170
-0.141
-0.028
-0.099
-0.065
-0.068
-0.029
0.047
-0.013
0.002
0.032
-0.013
0.023
-0.006
0.077
-0.008
0.035
-0.348
-0.356
-0.117
-0.016
0.110
0.349
0.168
0.055
-0.022
0.174
0.051
0.123
0.143
0.092
0.030
-0.517
-2.624
-3.634
-0.771
-3.170
-3.190
2.597
4.306
4.695
-0.384
-3.242
-4.051
-4.073
-0.118
3.423
4.443
4.596
4.502
4.302
4.087
3.874
2.452
-2.490
-4.680
-5.240
-5.244
-0.505
2.725
3.660
1.379
-2.980
-4.478
-4.796
-4.685
-1.246
2.845
4.152
4.451
4.443
4.327
4.167
4.039
3.892
3.701
2.209
0.650
-0.422
-1.805
-2.658
-2.881
-2.456
-2.211
-1.755
-0.990
-0.050
0.766
1.039
1.197
2.752
3.074
2.309
1.469
0.927
0.987
1.084
1.163
1.302
1.467
1.417
1.259
1.010
0.699
0.507
0.204
0.385
0.205
0.217
0.259
0.231
0.320
0.400
0.504
0.657
0.668
0.591
0.640
0.629
0.576
0.546
0.508
0.396
0.403
0.278
0.419
0.283
0.182
0.118
0.153
0.108
0.023
0.090
-0.046
-0.184
-0.191
-0.115
-0.058
-0.041
-0.191
-0.299
-0.177
-0.204
-0.247
-0.326
-0.424
-0.354
-0.430
-0.459
-0.225
-0.330
-0.424
-0.456
-0.492
-0.421
-0.291
-0.415
-0.283
-0.263
-0.367
-0.383
-0.465
-0.219
-0.197
-0.343
-0.197
-0.353
-0.219
-0.294
-0.213
-0.076
-0.213
-0.116
-0.206
-0.032
-0.014
0.007
-0.152
-0.075
-0.108
0.090
-0.024
0.078
0.183
-0.043
-0.005
0.012
-0.019
0.018
0.032
0.074
0.134
0.151
0.018
0.057
0.066
-0.055
0.163
0.045
-3.023
-3.382
2.380
4.105
4.502
0.952
-2.908
-4.073
-4.297
-4.258
1.352
3.926
4.605
4.235
-1.360
-3.607
-4.185
-0.062
3.354
4.301
4.471
4.397
4.211
4.026
2.923
2.271
3.109
3.167
1.856
-0.144
-1.766
-2.786
-2.965
-2.870
-2.570
-2.052
-1.307
-0.737
-0.254
-0.015
0.242
0.354
0.340
0.440
0.428
0.489
0.313
0.364
0.364
0.496
0.476
0.638
0.548
0.638
0.711
0.893
0.748
1.042
0.930
0.718
0.926
-0.887
0.689
1.786
1.437
1.099
-1.331
2.498
4.345
4.767
4.718
1.243
-2.058
-3.891
-1.620
-2.802
1.809
3.699
4.135
3.929
-2.200
0.645
2.913
3.497
2.544
-0.877
-3.475
-4.512
-2.348
-0.107
1.256
2.104
2.514
2.481
2.286
1.637
0.890
0.237
-0.463
-0.906
-1.121
-1.337
-1.399
-1.188
-0.974
-0.756
-0.257
-0.260
0.195
0.426
0.561
0.622
0.807
0.859
0.770
0.770
0.773
0.968
0.826
0.938
0.877
0.857
0.899
0.857
1.037
0.879
0.855
0.902
0.769
0.770
0.839
0.715
0.730
0.498
0.623
0.397
0.277
0.409
0.209
0.284
0.282
0.091
-0.042
-0.023
-0.200
-0.258
-0.182
-0.202
-0.279
-0.542
-0.587
-0.566
-0.440
-0.683
-0.833
-0.687
-0.642
-0.534
-0.429
-0.545
-0.591
-0.669
-0.313
-0.116
-0.322
-3.100
-1.392
1.459
1.819
0.859
0.111
-0.512
-0.558
-0.484
-0.300
-0.104
-0.342
-2.016
1.223
2.071
1.420
0.509
-0.455
-0.868
-0.785
-0.531
-0.548
0.015
0.405
0.424
0.387
0.291
0.319
0.280
0.152
0.337
0.089
0.065
0.039
-0.003
0.125
-0.021
0.194
0.163
0.113
0.105
0.215
0.152
0.182
0.130
0.209
0.225
0.143
0.225
0.196
0.118
0.296
0.121
0.173
0.110
0.185
0.104
0.154
0.108
0.091
0.131
0.159
0.039
0.098
0.143
0.032
0.033
0.022
0.112
-0.006
0.048
-0.064
0.067
-0.028
0.096
0.021
-0.019
0.114
0.012
-0.036
0.026
0.025
-0.008
-0.059
0.051
-0.017
0.069
0.128
-0.069
-0.031
0.023
0.038
-0.018
-0.060
0.017
-0.017
0.111
-0.010
-0.067
-0.059
0.103
0.006
-0.026
0.045
-0.138
-0.159
-0.074
-0.070
0.080
-0.155
-0.079
-0.030
-0.115
-0.011
-0.113
-0.144
-0.017
-0.090
-0.051
-0.099
-0.055
-0.120
-0.002
-0.053
-0.020
-0.103
0.033
-0.099
-0.067
-0.086
-0.148
-0.202
-0.025
0.058
-0.182
-0.085
0.061
-0.012
-0.045
-0.057
0.085
-0.019
-0.079
0.024
0.099
-0.071
0.014
0.081
0.004
0.052
0.012
0.119
0.023
0.063
0.003
0.033
0.048
0.116
0.154
0.140
0.071
0.124
0.242
0.139
0.015
0.106
0.252
0.078
0.144
0.150
0.234
0.107
0.024
0.084
0.084
0.065
0.102
0.126
0.068
-0.035
-0.022
0.054
0.160
-0.019
0.009
0.054
-0.031
-0.048
0.015
0.012
0.069
0.162
0.017
-0.100
-0.139
-0.100
0.013
0.021
0.008
-0.079
0.034
0.017
-0.122
-0.017
0.082
-0.160
0.041
-0.172
-0.033
-0.154
-0.018
0.038
-0.252
0.001
-0.019
-0.020
-0.023
-0.164
-0.075
-0.014
-0.044
-0.026
-0.061
-0.045
-0.069
0.007
-0.014
-0.081
-0.029
0.090
-0.063
0.064
0.068
0.089
-0.064
0.010
0.040
0.128
-0.071
0.130
0.123
0.001
0.107
0.086
0.021
0.062
0.095
0.069
0.019
-0.010
0.029
0.060
0.105
0.044
0.108
-0.043
-0.009
-0.030
0.166
0.051
0.035
0.070
0.082
0.020
0.204
-0.071
0.064
-0.016
0.015
0.102
-0.123
0.001
0.077
-0.033
0.029
0.080
0.016
0.107
-0.115
-0.087
-0.016
-0.046
0.050
0.096
0.018
0.099
0.043
-0.054
-0.108
-0.029
-0.029
0.056
-0.065
0.019
0.005
0.021
0.087
0.017
-0.195
0.038
-0.078
-0.027
-0.040
-0.033
-0.097
-0.009
-0.014
-0.009
-0.037
-0.025
-0.053
0.034
-0.052
0.062
-0.051
0.022
0.014
0.098
-0.006
-0.104
0.067
0.006
-0.027
0.064
0.050
-0.025
-0.127
-0.078
-0.003
0.101
0.018
0.039
-0.015
-0.018
0.000
0.044
-0.012
0.108
0.052
-0.087
0.007
0.045
0.023
0.051
0.132
0.006
-0.140
0.163
0.034
0.044
0.012
0.034
-0.059
-0.007
-0.019
0.108
0.082
-0.036
-0.126
0.004
0.059
-0.029
-0.165
-0.030
0.132
0.003
0.134
-0.007
-0.038
0.011
-0.073
0.024
-0.022
0.002
0.027
0.001
-0.095
0.041
0.151
0.003
-0.019
0.053
-0.038
-0.022
0.061
-0.058
0.010
0.066
0.033
0.060
-0.038
0.108
0.131
-0.012
-0.048
-0.081
-0.062
0.054
0.050
0.010
0.013
0.029
-0.038
-0.012
0.020
0.005
0.058
-0.098
0.000
-0.016
0.032
-0.017
0.034
0.077
0.146
-0.013
-0.109
-0.012
0.008
0.096
0.066
-0.060
-0.034
-0.029
0.033
-0.148
0.051
0.052
0.014
-0.044
0.026
0.028
0.049
-0.107
0.028
-0.011
0.094
0.042
0.037
0.035
0.043
-0.012
-0.043
-0.007
0.082
-0.006
0.162
-0.047
0.022
-0.033
0.028
0.023
-0.040
0.062
-0.072
-0.031
0.089
0.019
0.004
-0.038
0.010
0.021
0.032
0.052
-0.059
-0.022
0.012
0.011
0.211
-0.115
-0.065
0.002
0.072
-0.002
0.020
-0.063
0.198
0.090
-0.081
-0.090
0.002
0.006
0.067
0.059
0.076
0.003
0.012
0.027
-0.055
0.176
-0.068
-0.110
0.034
0.020
-0.014
-0.078
0.045
0.077
-0.035
0.013
0.037
0.019
-0.042
0.068
-0.037
-0.021
-0.006
-0.013
-0.029
0.033
-0.015
0.164
-0.051
0.004
0.016
-0.012
0.081
0.020
0.020
0.098
-0.044
0.052
0.033
0.008
-0.037
0.061
0.020
0.011
0.065
-0.046
0.062
-0.162
0.048
0.035
0.002
0.074
-0.089
0.036
0.009
0.043
-0.031
0.098
-0.082
0.034
0.061
0.022
0.091
0.001
-0.004
-0.073
0.101
0.057
-0.126
0.042
0.097
0.038
-0.102
0.010
0.015
-0.007
-0.002
0.046
0.043
0.038
0.054
0.005
0.020
-0.188
0.117
-0.000
0.064
0.029
-0.047
-0.028
-0.070
0.122
-0.036
0.072
-0.109
-0.004
0.046
-0.148
-0.119
-0.059
-0.133
-0.299
-0.394
-0.429
-0.290
-0.228
-0.180
-0.335
-0.467
-0.405
-0.145
-0.058
-0.140
-0.352
-0.023
-0.002
0.005
-0.030
0.152
0.186
0.245
0.148
0.102
0.147
0.114
0.084
0.039
0.141
0.132
-0.022
-0.048
0.067
-0.167
-0.007
0.193
0.226
-0.071
-0.311
-0.191
-0.155
-0.186
-0.074
-0.242
-0.225
-0.137
-0.119
0.331
0.071
-0.170
-0.202
-0.130
-0.228
-0.060
-0.078
-0.010
0.200
0.261
0.089
0.090
0.114
-0.092
-0.086
-0.094
-0.115
0.064
-0.065
0.011
0.154
0.027
-0.149
0.116
0.060
0.134
0.001
-0.008
0.092
0.226
0.245
0.211
0.061
-0.035
0.316
0.305
0.132
0.276
0.253
0.334
0.246
0.266
0.133
0.112
0.125
0.137
0.308
0.161
0.101
0.064
-0.003
-0.014
0.011
0.064
0.170
0.032
-0.069
-0.009
-0.009
-0.078
-0.016
-0.025
-0.049
0.159
-0.050
-0.121
-0.038
0.134
0.069
-0.063
0.011
-0.092
0.025
0.106
-0.105
-0.004
-0.020
0.058
0.051
-0.009
-0.187
-0.076
-0.137
-0.236
-0.084
0.430
0.562
0.836
0.560
0.243
-0.270
-0.230
-0.189
-0.531
-0.342
-0.672
1.013
1.401
0.898
0.225
-0.296
-0.403
-0.281
-0.258
-0.074
0.216
0.283
0.435
0.362
0.217
0.241
-0.020
-0.007
-0.129
-0.103
-0.201
-0.411
-2.515
-3.223
-1.656
-0.267
0.822
0.397
-0.206
-0.295
-0.769
-1.143
-1.193
-0.539
0.434
0.686
2.122
3.182
2.684
1.652
1.000
0.544
0.649
0.861
0.928
0.984
0.842
0.577
0.206
-0.022
-0.309
-0.478
-0.782
-0.920
-0.933
-0.827
-0.788
-0.712
-0.479
-0.460
-0.415
-0.186
-0.219
-0.290
-0.033
0.000
-0.007
-0.022
0.059
0.082
0.030
0.041
0.167
0.110
0.168
0.148
0.208
0.207
0.260
0.343
0.251
0.238
0.243
0.171
0.322
0.306
0.355
0.428
0.133
0.367
0.371
0.087
0.216
0.179
0.169
0.309
0.235
0.118
0.253
0.105
0.246
0.000
0.064
0.029
0.085
0.091
0.081
-0.080
-0.085
0.009
-0.169
-0.044
-0.116
-0.027
-0.157
-0.185
-0.041
-0.065
-0.204
-0.059
-0.167
-0.099
-0.111
-0.085
-0.095
-0.245
-0.166
-0.086
-0.121
-0.029
-0.097
-0.180
0.052
-0.091
0.070
-0.006
-0.045
-0.040
-0.060
-0.096
-0.109
0.088
-0.100
-0.001
-0.033
0.030
0.012
0.142
0.052
-0.017
0.062
-0.009
0.043
0.004
0.085
0.113
0.030
0.047
0.051
0.089
0.087
0.170
0.014
0.070
0.036
-0.015
0.111
0.149
0.021
0.041
0.072
0.058
-0.057
-0.140
0.053
0.119
0.064
0.011
-0.001
-0.044
0.111
-0.080
-0.096
0.070
0.164
-0.025
-0.189
0.041
0.016
-0.027
0.010
0.030
0.020
-0.163
-0.119
0.118
0.104
-0.068
0.029
-0.062
0.033
-0.004
-0.037
0.054
-0.004
-0.014
0.111
0.015
-0.170
0.061
0.087
0.144
0.030
-0.052
0.071
0.089
0.067
0.071
0.030
0.008
0.058
0.105
0.028
0.021
0.071
0.079
0.030
0.037
-0.026
-0.119
0.029
0.095
0.017
0.079
0.044
-0.125
-0.070
0.021
0.077
0.027
-0.044
0.047
-0.046
-0.133
0.041
0.036
0.029
-0.052
-0.027
-0.084
-0.041
-0.044
-0.085
0.118
0.060
0.075
-0.069
-0.062
-0.005
-0.084
-0.129
-0.047
0.084
-0.136
-0.015
0.047
-0.032
0.036
-0.064
0.067
0.072
0.054
0.050
-0.042
-0.049
0.093
0.018
-0.021
0.033
0.093
0.064
0.042
0.034
-0.002
0.061
-0.100
0.064
0.074
0.114
0.022
-0.076
0.176
-0.162
-0.778
-1.828
1.114
2.122
1.480
3.589
2.910
-2.485
-4.082
-0.441
3.013
4.031
3.389
-2.320
-4.107
-4.558
-2.484
2.325
3.932
4.365
4.343
4.218
4.070
3.899
3.120
0.328
-2.549
-4.485
-5.018
-4.997
-4.791
-4.531
-3.801
-2.523
-1.256
-0.151
0.498
1.086
1.527
1.527
1.481
1.256
1.102
0.766
0.582
0.445
0.329
0.268
0.136
0.163
0.197
0.013
0.091
-0.532
-0.661
0.422
-1.452
0.915
3.698
4.437
4.459
0.922
-3.063
-4.404
-0.243
2.867
3.704
3.240
-2.401
-4.498
-5.047
-5.093
0.677
3.108
3.751
3.833
3.718
2.495
0.863
-0.132
-0.629
-0.720
-0.540
-0.659
-0.484
-0.581
-0.589
-0.722
-0.882
-0.935
-1.255
-1.018
-1.030
-0.803
-0.687
-0.563
-0.408
-0.307
-0.386
0.044
0.160
0.445
0.650
0.595
0.567
0.728
0.631
0.753
0.776
0.834
0.792
1.051
1.004
1.003
0.867
0.801
0.801
0.866
0.682
0.766
0.543
0.524
0.396
0.555
0.441
0.321
0.215
0.206
0.191
0.114
0.092
0.019
-0.119
-0.211
-0.239
-0.053
-0.218
-0.032
0.024
-0.031
-0.310
-0.391
-0.360
-0.537
-0.379
-0.291
-0.222
-0.456
-2.814
-0.117
2.852
3.691
3.833
-0.131
-3.758
-4.812
-0.882
2.601
3.611
3.850
2.896
0.133
-1.069
-0.908
0.549
2.117
3.161
3.594
3.388
1.245
-3.456
1.211
3.038
3.567
3.549
-1.513
-4.160
-4.777
-4.584
-2.120
1.742
3.987
4.647
4.817
4.772
4.697
4.478
2.906
0.579
-2.006
-3.622
-4.011
-2.447
-0.416
-0.165
-2.242
-1.756
0.228
0.178
-1.966
-1.611
1.205
3.479
3.826
3.244
2.901
2.325
1.863
1.830
1.708
1.958
2.034
2.309
2.398
2.034
1.843
1.566
1.059
0.584
0.280
-0.053
-0.335
-0.291
-0.241
-0.570
-0.478
-0.627
-0.487
-0.504
-0.476
-0.425
-0.463
-0.463
-0.466
-0.515
-0.510
-0.467
-0.444
-0.576
-0.346
-0.648
-0.282
-0.459
-0.350
-0.275
-0.277
-0.248
-0.203
-0.251
-0.099
-0.034
-0.074
-0.133
-0.161
-0.045
0.106
0.022
0.010
0.085
0.126
0.122
0.093
-0.005
-0.020
0.038
0.193
0.194
0.307
0.172
0.151
0.194
0.159
0.180
0.213
0.007
0.075
0.278
0.151
0.083
-0.002
0.019
-0.028
-0.021
-0.003
0.044
0.044
-0.067
0.034
-0.218
-0.174
-0.027
0.012
-0.015
-0.057
-0.120
0.033
0.002
-0.056
0.032
-0.022
0.036
-0.040
-0.011
0.047
-0.096
-0.022
0.084
0.106
0.112
0.136
0.124
0.171
0.154
0.103
0.118
0.145
0.156
0.143
0.222
0.127
0.170
0.174
0.165
0.167
0.215
0.209
0.140
0.140
0.158
0.240
0.146
0.109
0.187
0.214
0.045
0.087
0.120
0.058
0.155
0.107
0.112
0.035
0.021
-0.175
-0.034
-0.075
-0.018
-0.029
-0.007
-0.076
-0.106
-0.200
-0.015
-0.053
-0.089
-0.104
-0.164
-0.264
-0.110
-0.144
-0.173
-0.275
-0.189
-0.238
-0.285
-0.154
-0.149
-0.119
-0.241
-0.283
-0.109
-0.106
-0.188
-0.086
-0.156
-0.098
-0.028
-0.094
-0.015
-0.086
-0.014
0.007
0.008
0.046
0.025
0.153
0.083
0.130
0.112
0.057
0.095
0.103
0.168
0.202
0.139
0.081
0.244
0.183
0.280
0.162
0.076
0.196
0.129
0.067
0.257
0.230
0.173
0.153
0.148
0.134
0.114
0.140
0.200
0.192
0.130
0.046
-0.037
0.056
0.101
0.169
0.048
-0.016
-0.063
0.101
0.076
-0.020
-0.075
-0.020
-0.041
-0.107
0.006
-0.050
-0.113
-0.004
0.018
-0.171
-0.055
-0.028
-0.112
0.002
-0.034
-0.072
0.043
-0.136
-0.252
-0.152
-0.077
-0.095
-0.007
0.006
-0.044
0.009
-0.079
-0.039
-0.073
-0.008
-0.156
0.015
0.005
-0.030
-0.035
0.127
0.083
-0.007
-0.074
0.064
0.108
0.087
-0.046
0.044
0.144
0.048
0.026
0.135
0.073
-0.031
0.009
-0.010
0.062
0.143
0.092
0.064
0.093
-0.028
-0.019
0.293
0.017
0.137
0.085
-0.007
0.113
0.117
0.164
-0.070
0.006
0.116
0.155
-0.005
0.001
0.079
0.035
0.072
0.086
-0.002
0.040
-0.019
0.005
0.144
0.054
-0.029
-0.021
-0.104
0.015
0.118
0.006
-0.019
0.052
0.101
-0.115
-0.046
0.050
0.044
-0.014
-0.076
-0.022
0.110
-0.097
0.052
-0.110
0.022
-0.007
-0.014
0.002
-0.000
0.045
0.000
-0.106
-0.044
0.052
0.163
0.121
-0.064
0.027
-0.096
0.052
0.051
-0.002
0.066
-0.001
-0.134
0.069
0.096
-0.019
-0.129
0.026
-0.023
0.051
0.045
-0.008
0.059
0.011
-0.087
-0.085
0.070
0.027
-0.034
0.035
0.017
0.064
-0.046
-0.029
0.061
0.114
-0.075
-0.020
0.068
-0.032
0.036
-0.012
0.086
0.005
-0.014
0.070
0.139
0.051
-0.016
0.125
-0.022
-0.021
0.051
0.148
0.095
-0.094
0.026
-0.006
0.067
0.117
0.032
0.000
0.022
0.001
0.039
0.023
0.000
-0.022
0.024
0.121
-0.058
0.101
-0.075
0.092
-0.085
-0.080
0.046
0.163
0.092
0.037
-0.035
0.050
-0.012
0.041
0.063
-0.030
0.094
0.155
0.112
-0.048
-0.105
-0.086
0.023
-0.011
-0.041
0.128
0.107
-0.029
0.079
-0.077
-0.008
-0.001
0.030
0.021
-0.013
0.054
-0.036
-0.052
0.084
0.016
0.014
0.004
0.058
-0.055
0.059
-0.046
-0.072
-0.029
0.030
0.146
0.020
-0.041
-0.088
-0.022
0.078
0.029
-0.082
0.115
0.099
0.061
-0.020
-0.054
0.005
0.007
0.010
0.082
0.038
-0.043
0.037
-0.090
-0.023
0.078
0.045
0.026
0.146
-0.118
-0.035
0.069
0.003
0.101
-0.030
0.023
0.088
-0.012
-0.004
-0.016
0.050
0.037
0.096
0.070
0.048
0.043
0.088
-0.087
0.033
0.044
0.046
0.047
-0.022
0.062
-0.034
-0.097
-0.012
0.012
0.066
0.035
0.079
-0.068
0.135
-0.017
-0.165
0.067
0.066
-0.067
0.136
-0.025
0.061
0.006
0.045
0.114
-0.033
-0.012
0.049
0.018
0.141
-0.044
0.021
-0.005
0.186
-0.015
-0.015
-0.070
-0.098
0.069
-0.038
0.004
0.066
0.092
-0.098
-0.148
0.035
0.052
0.052
0.186
0.000
0.057
0.078
0.076
0.127
0.123
0.036
0.021
0.098
0.027
0.112
-0.007
0.045
0.016
0.049
0.154
-0.044
-0.099
0.018
-0.076
0.108
-0.040
-0.041
0.068
0.124
-0.097
0.016
0.066
0.069
0.001
-0.023
0.079
-0.034
0.106
-0.003
-0.065
-0.003
-0.031
0.061
0.039
-0.018
0.086
0.098
0.069
-0.060
-0.019
0.003
0.191
0.073
0.055
0.050
-0.089
0.059
0.114
0.112
-0.037
0.104
0.088
0.057
-0.070
-0.012
-0.042
-0.026
0.057
0.054
0.032
0.090
-0.000
0.033
0.006
-0.011
-0.024
0.105
-0.001
0.248
-0.069
-0.017
-0.028
-0.065
0.075
0.095
-0.003
0.088
-0.038
-0.066
0.042
-0.051
0.019
0.029
0.072
0.072
0.074
0.045
0.069
-0.093
-0.020
0.077
0.037
0.015
-0.060
0.078
0.119
-0.045
-0.011
0.113
-0.001
0.011
-0.003
0.066
0.114
-0.060
-0.069
-0.081
-0.027
0.234
0.039
0.023
0.012
0.017
0.018
0.141
0.957
1.104
0.541
0.054
-0.036
-0.064
0.265
0.369
0.322
0.185
0.131
-0.070
-0.318
-1.416
-3.436
-1.850
0.830
2.614
1.814
0.517
-0.767
-0.880
-0.706
-0.161
0.389
0.853
0.945
1.205
0.988
0.947
0.634
0.267
0.096
-0.013
-0.239
-0.433
-0.651
-0.677
-0.482
-0.373
-0.281
0.008
0.233
0.119
-0.102
-0.117
0.122
0.517
0.182
0.073
0.111
0.118
-0.022
0.220
0.327
0.210
0.202
-0.005
0.092
0.059
-0.005
0.081
0.038
0.084
-0.074
-0.007
0.135
0.052
0.027
-0.023
-0.160
0.076
0.069
-0.099
-0.050
-0.102
0.100
-0.020
-0.046
-0.018
-0.094
-0.098
-0.046
-0.003
-0.061
-0.090
-0.098
-0.024
-0.147
0.016
-0.054
0.031
-0.033
-0.207
-0.122
-0.014
-0.002
0.006
-0.107
-0.052
-0.068
-0.032
0.067
0.091
0.002
-0.069
0.012
-0.023
-0.148
-0.050
-0.060
0.085
0.059
-0.063
-0.070
-0.066
-0.035
0.145
-0.055
-0.023
-0.105
-0.179
-0.064
0.041
0.025
-0.020
0.002
-0.041
0.017
-0.031
0.091
0.106
-0.187
-0.050
0.072
0.056
0.041
0.078
-0.034
0.101
-0.034
0.044
-0.098
0.001
-0.097
-0.010
0.101
0.050
-0.076
0.001
-0.121
0.034
-0.014
0.020
0.023
-0.043
-0.022
0.007
0.165
0.114
0.161
0.041
-0.099
-0.019
0.359
0.304
0.404
0.428
0.161
0.132
0.200
0.197
0.153
0.090
0.202
0.146
0.216
0.215
-0.003
-0.059
-0.045
-0.077
-0.203
-0.181
-0.088
0.023
-0.102
0.051
-0.129
-0.119
-0.059
0.119
0.136
0.203
0.123
0.063
0.148
0.102
0.150
0.067
0.094
0.112
0.164
0.151
0.086
0.074
0.121
0.068
0.095
0.106
-0.020
0.137
0.154
-0.099
0.027
-0.066
0.136
0.084
0.146
0.009
-0.064
0.019
0.022
0.091
-0.019
0.098
-0.086
-0.011
0.036
0.048
-0.089
-0.031
0.119
-0.021
-0.027
0.054
0.008
0.004
-0.164
-0.073
-0.005
-0.002
0.055
-0.091
0.029
-0.064
-0.123
0.104
0.037
-0.031
-0.058
-0.022
-0.023
-0.129
0.004
0.099
-0.041
0.053
-0.023
-0.041
-0.007
0.061
0.014
0.049
0.002
-0.042
-0.076
0.041
-0.027
0.049
0.023
-0.064
0.112
0.070
-0.198
-0.036
0.053
0.024
-0.113
0.086
0.078
-0.085
-0.037
0.042
0.073
0.113
-0.029
0.046
0.067
-0.070
0.088
-0.010
0.076
0.047
0.016
0.073
-0.018
0.047
0.011
0.107
-0.021
-0.053
-0.022
0.039
0.062
-0.032
-0.025
-0.016
0.073
-0.018
-3.049
-2.037
2.676
4.087
4.386
1.247
-2.508
1.440
0.535
3.029
3.808
3.953
3.615
3.665
-1.179
2.112
3.092
3.318
3.313
1.295
-1.385
-2.029
-2.285
-2.119
-1.739
-1.316
-0.487
-0.175
0.295
0.412
0.437
0.677
0.478
0.297
0.261
0.067
0.380
0.343
0.337
0.504
0.589
0.669
0.874
0.933
1.132
1.133
1.184
1.214
1.246
1.347
1.236
1.099
1.065
1.004
1.165
-1.212
-2.085
0.528
1.459
4.345
5.092
5.128
4.731
1.743
-1.954
-3.469
-2.575
-0.188
0.985
0.463
3.217
3.911
3.980
3.438
2.935
1.461
-0.460
-3.158
-2.838
-2.448
-1.795
-1.394
-1.310
-1.257
-1.173
-0.956
-0.500
-0.578
-0.855
0.237
-3.221
-0.238
3.050
3.983
3.922
1.038
-1.774
-3.182
-2.679
-1.694
0.471
2.015
3.342
3.718
3.541
3.155
2.389
1.504
0.857
0.101
-0.351
-0.820
-1.061
-0.902
-0.621
-0.510
-0.209
0.171
0.304
0.279
0.537
0.642
0.667
0.785
0.635
0.677
0.452
0.496
0.550
0.352
0.314
0.421
0.463
0.334
0.447
0.241
0.266
0.283
0.177
0.264
0.140
-0.060
-2.029
-3.584
-2.982
-1.001
-2.350
-1.053
3.288
4.533
4.252
-0.567
-3.313
-4.105
-1.923
1.630
3.756
4.270
3.459
2.812
3.559
3.043
2.057
1.015
0.363
0.185
0.476
-0.714
-4.243
-2.738
0.806
1.823
0.859
-0.403
-2.011
-3.649
-2.949
-1.700
-0.712
0.931
1.607
1.386
0.802
-0.874
1.165
-2.084
-0.337
2.000
2.767
2.438
1.267
0.229
-0.538
-1.104
-2.264
0.022
1.941
1.243
-2.135
-0.727
2.680
3.758
2.566
0.935
0.038
-0.232
-0.214
0.076
0.633
0.996
1.255
1.336
1.225
1.045
0.673
0.307
0.065
-0.026
-0.186
-0.268
-0.281
-0.252
-0.190
-0.354
-0.277
-0.148
-0.158
-0.078
0.045
-0.023
-0.040
0.024
-0.015
-0.018
-0.202
-0.303
-0.249
-0.134
-0.098
-0.037
-0.140
0.012
-0.267
-0.076
-0.034
-0.162
0.016
-0.089
-0.049
-0.087
0.089
0.004
-0.110
-0.046
-0.067
0.022
0.093
-0.097
-0.072
0.110
0.043
-0.021
-0.134
-0.220
-0.083
0.001
0.069
-0.040
-0.094
0.036
0.017
-0.181
-0.141
-0.134
-0.007
-0.133
-0.059
-0.211
-0.261
-0.264
0.083
-0.186
-0.305
-0.126
-0.089
-0.113
-0.122
-0.099
-0.121
-0.226
-0.081
-0.073
-0.027
-0.075
-0.017
-0.052
-0.104
0.038
-0.011
0.074
0.055
0.067
0.133
0.019
-0.055
0.012
0.196
0.248
0.168
0.182
0.097
0.101
-0.033
0.098
0.169
0.258
0.188
0.104
0.098
0.198
0.119
0.175
0.109
0.105
0.228
0.237
0.148
0.075
0.258
0.112
0.118
0.080
0.210
0.154
-0.012
0.040
0.026
0.142
0.050
0.128
0.142
0.080
-0.027
0.040
0.220
0.017
0.076
-0.034
0.018
-0.009
0.030
-0.070
0.009
0.106
-0.003
-0.051
-0.161
-0.265
-0.185
-0.049
-0.040
-0.088
0.010
-0.107
-0.196
0.018
-0.120
-0.089
-0.070
-0.132
-0.218
-0.073
-0.147
-0.096
-0.109
-0.159
-0.115
0.101
-0.181
-0.137
-0.134
-0.199
-0.010
-0.054
-0.021
-0.004
-0.092
-0.054
-0.019
-0.017
-0.125
0.034
0.156
0.084
0.048
-0.011
0.062
0.084
-0.053
0.108
0.124
-0.035
0.088
0.025
-0.084
0.057
0.066
0.168
-0.017
0.192
0.253
0.204
0.004
0.125
0.183
0.149
0.319
0.164
0.099
0.183
0.073
0.172
0.063
0.082
0.143
-0.093
-0.028
0.091
0.037
-0.095
-0.087
0.137
-0.076
-0.019
-0.115
-0.030
0.108
0.085
0.147
0.052
-0.211
-0.155
-0.074
0.027
0.002
0.130
0.092
0.027
-0.043
-0.074
-0.081
0.041
0.087
-0.067
-0.080
-0.095
0.099
0.110
-0.141
-0.033
-0.021
0.078
-0.060
-0.004
-0.066
-0.113
-0.060
-0.031
-0.090
-0.046
0.081
0.098
0.066
-0.134
-0.217
-0.036
0.106
0.035
-0.098
-0.034
0.075
0.036
0.128
-0.034
-0.058
0.055
0.125
0.197
-0.068
0.021
-0.107
0.001
0.001
0.067
0.019
0.028
0.093
0.120
0.005
-0.019
-0.027
0.118
0.011
0.082
0.054
0.188
0.012
0.065
0.010
0.080
0.092
0.129
0.216
0.086
-0.036
-0.055
0.082
0.034
-0.040
0.049
0.127
0.050
-0.020
0.040
0.013
0.098
-0.002
0.164
-0.035
-0.037
-0.071
-0.069
0.073
-0.100
-0.040
-0.028
0.059
-0.044
0.076
-0.022
-0.065
-0.110
-0.046
0.007
-0.043
-0.034
0.032
0.078
0.053
0.050
-0.025
-0.063
0.122
0.077
-0.001
0.126
0.154
0.008
0.019
0.063
0.075
0.072
0.015
0.108
-0.057
-0.040
0.049
0.065
-0.054
0.028
-0.036
-0.082
-0.143
-0.078
-0.081
-0.071
-0.107
-0.041
-0.003
0.057
0.031
-0.067
0.013
0.049
-0.070
0.070
-0.011
0.035
0.131
0.169
-0.013
0.064
0.020
0.038
0.163
-0.001
0.088
0.049
0.012
-0.076
-0.053
0.031
0.022
0.142
-0.069
-0.097
0.174
0.029
-0.040
-0.025
-0.004
-0.033
0.080
0.144
0.100
0.119
0.107
0.002
0.061
0.034
-0.008
0.012
-0.029
0.051
0.057
0.014
-0.010
0.102
0.025
-0.031
-0.108
-0.042
-0.078
0.068
-0.065
0.133
-0.134
-0.112
0.065
0.099
-0.027
-0.179
-0.086
0.147
-0.012
-0.063
0.087
-0.003
-0.042
0.160
0.003
0.036
-0.006
0.028
0.147
-0.034
0.037
-0.032
-0.098
0.001
0.040
0.065
0.037
-0.003
-0.019
-0.106
-0.055
0.033
0.113
0.028
0.043
-0.006
0.036
0.014
-0.007
0.090
0.073
0.153
-0.144
-0.042
0.073
-0.067
0.088
-0.019
-0.036
0.036
0.028
0.067
-0.022
0.016
0.054
-0.041
0.029
0.093
0.016
0.099
0.103
-0.059
-0.008
0.057
-0.090
0.018
0.090
-0.011
0.040
0.087
-0.092
0.035
0.068
0.037
-0.011
-0.017
0.079
-0.120
0.067
0.067
0.104
-0.028
0.018
0.059
0.047
-0.011
0.039
-0.010
-0.076
0.015
0.104
0.001
0.146
0.130
0.060
0.008
0.021
-0.005
0.024
0.098
0.061
-0.064
0.023
-0.059
0.130
-0.036
0.022
0.048
-0.102
0.042
-0.012
-0.015
-0.045
-0.070
0.046
0.051
0.023
-0.036
0.069
-0.068
0.032
-0.013
0.171
0.005
-0.029
0.051
-0.021
-0.057
0.092
-0.117
0.010
0.128
0.030
0.049
0.167
-0.031
-0.064
0.156
0.005
0.037
-0.019
0.082
0.070
-0.084
0.048
-0.088
0.013
0.023
0.151
-0.112
-0.064
0.056
-0.002
0.036
0.115
-0.122
0.052
0.035
0.107
-0.052
0.073
-0.025
-0.047
0.016
-0.095
-0.045
0.007
0.093
-0.029
-0.000
0.025
0.083
-0.091
-0.087
-0.020
0.074
0.170
-0.010
0.120
0.025
-0.004
-0.077
0.024
0.114
0.074
0.073
-0.145
-0.056
0.083
-0.009
0.028
0.213
0.066
-0.041
0.044
-0.109
0.070
0.061
0.011
-0.092
0.034
-0.132
0.083
0.076
0.084
0.097
-0.053
0.007
-0.089
0.092
0.106
-0.082
0.059
0.125
0.058
0.011
0.025
-0.272
-0.070
-0.105
-0.100
-0.041
-0.157
-0.277
-0.175
-0.014
-0.005
-0.363
-0.508
-0.214
-0.089
0.121
0.307
0.092
0.192
0.659
0.826
1.016
0.934
0.581
0.471
0.281
0.533
0.471
0.480
0.553
0.493
0.276
0.158
-0.237
-1.717
-3.806
-2.615
1.306
-0.151
-1.969
-1.148
-1.799
1.064
1.663
1.021
0.234
0.228
0.324
0.835
1.179
1.335
1.628
1.636
1.389
1.181
0.752
0.396
-0.088
-0.280
-0.484
-1.088
-1.195
-0.867
-0.683
-0.542
-0.133
-0.348
-0.581
-1.824
-3.574
-3.400
-1.965
0.084
0.963
0.949
0.221
-0.280
-0.534
-0.217
0.037
0.504
0.748
1.168
1.302
1.646
1.741
1.643
1.633
1.178
0.686
0.398
0.121
-0.055
-0.219
-0.298
-0.425
-0.605
-0.372
-0.527
-0.661
-0.661
-0.531
-0.345
-0.058
-0.022
-0.013
-0.392
-0.598
-0.431
-0.500
-0.254
-0.155
-0.160
-0.131
-0.266
-0.118
0.002
-0.000
0.026
0.018
0.021
-0.054
0.176
0.089
0.214
0.188
0.141
0.034
0.303
0.246
0.264
0.320
0.268
0.216
0.212
0.366
0.205
0.354
0.266
0.166
0.393
0.258
0.243
0.243
0.295
0.179
0.257
0.273
0.168
0.151
0.151
0.095
0.351
0.275
-0.021
0.033
0.142
0.142
0.088
-0.163
-0.116
-0.084
0.004
-0.024
-0.031
0.044
0.120
-0.109
-0.040
-0.085
-0.089
-0.020
-0.112
0.046
0.019
0.133
0.008
-0.161
-0.209
-0.151
-0.079
-0.028
-0.136
-0.075
0.048
-0.051
-0.094
-0.156
-0.159
-0.076
0.001
-0.057
0.005
0.080
0.007
0.046
-0.053
0.084
0.116
0.064
-0.054
0.007
-0.027
0.003
0.044
0.089
0.045
0.839
1.162
0.781
0.519
0.010
-0.073
-2.534
-1.978
0.975
2.569
0.621
-2.011
-0.771
0.864
0.590
0.428
-0.301
-0.560
-0.400
-0.220
0.085
0.369
0.228
0.457
0.263
0.054
0.023
-0.020
-0.008
-0.130
-0.471
-1.342
-0.962
-0.230
0.349
0.376
0.319
0.056
0.016
0.248
0.279
0.382
0.612
0.523
0.417
0.362
0.370
0.211
0.108
0.172
0.055
0.034
0.018
-0.175
-0.178
-0.089
-0.095
-0.084
-0.039
-0.019
-0.068
-0.110
-0.208
0.018
0.054
0.016
-0.018
0.014
-0.022
0.112
-0.095
-0.117
-0.053
0.008
-0.030
-0.003
0.048
0.062
0.038
-0.073
0.146
0.036
-0.130
0.109
0.034
0.037
-0.014
0.020
0.150
-0.141
0.165
-0.081
-0.005
0.147
0.027
0.079
-0.053
0.022
0.041
0.053
0.046
0.030
-0.065
0.021
0.046
0.069
0.116
0.259
0.102
-0.250
0.135
0.929
0.882
0.675
0.173
0.063
0.032
0.029
0.360
-1.307
-1.545
-1.079
2.181
2.809
2.157
1.057
-0.456
-1.265
-1.835
-2.286
-1.057
1.939
3.020
2.678
1.145
0.637
0.733
0.761
0.466
0.261
-0.013
-0.037
-0.036
-0.023
-0.288
0.070
0.154
0.098
0.118
-0.091
-0.013
0.085
-0.033
0.105
0.180
0.147
0.203
0.314
0.236
0.350
0.292
0.189
0.345
0.315
0.332
-0.255
0.050
-0.254
0.418
0.921
0.770
0.078
-1.633
2.915
4.279
3.192
1.017
-2.234
-1.317
1.301
-2.017
1.189
3.509
1.584
-2.310
1.067
3.331
3.737
1.469
-1.736
-1.832
-0.131
0.454
0.842
-2.769
-0.225
2.849
3.769
3.295
1.491
-0.268
-1.197
-1.682
-1.212
-0.570
-0.007
0.460
0.611
0.673
0.657
0.626
0.475
0.318
0.053
0.049
-0.016
0.034
-0.052
0.031
0.109
0.358
0.370
0.377
0.614
0.631
0.596
0.666
0.678
0.722
0.789
0.797
0.619
0.653
0.606
0.632
0.680
0.663
0.459
0.545
0.536
0.461
0.422
0.330
0.416
0.418
0.293
0.223
0.101
0.267
0.102
0.082
-0.018
0.028
0.035
-0.187
-0.070
-0.217
-0.347
-0.408
-0.393
-0.452
-0.466
-0.337
0.094
-0.132
-0.234
-0.354
-0.320
-0.289
-0.426
-0.368
-0.090
-0.845
-0.622
-2.165
-3.951
-0.624
3.006
3.937
-1.959
-1.069
2.757
3.867
2.646
-1.175
-3.848
-1.424
2.561
3.739
3.592
3.717
3.595
2.681
1.810
-2.176
-2.189
1.680
2.994
2.432
0.810
-0.579
-1.413
-1.771
-1.847
-1.380
-0.869
-0.400
0.257
1.331
1.405
1.356
1.194
0.877
0.754
0.742
-2.066
-1.818
0.701
1.685
1.716
1.646
0.734
-0.137
0.757
1.206
1.109
1.002
1.271
1.502
1.944
2.037
2.154
2.144
1.823
1.422
1.106
0.816
0.521
0.195
0.048
-0.235
-0.258
-0.132
-0.053
0.006
0.079
0.093
0.264
0.124
0.180
-0.014
-0.025
0.076
0.049
-0.055
0.071
-0.114
0.004
0.078
-0.190
-0.217
-0.082
-0.266
-0.008
-0.053
-0.242
-0.205
-0.166
-0.351
-0.269
-0.228
-0.248
-0.341
-0.279
-0.305
-0.305
-0.256
-0.333
-0.305
-0.478
-0.368
-0.390
-0.316
-0.265
-0.351
-0.355
-0.312
-0.174
-0.311
-0.329
-0.258
-0.382
-0.167
-0.394
-0.228
-0.333
-0.421
-0.234
0.050
-0.123
-0.508
-0.330
-0.143
0.011
-0.000
0.070
0.087
0.023
0.077
0.117
0.015
0.164
0.072
0.156
0.127
0.132
-0.033
-0.004
0.046
0.021
0.099
0.039
-0.224
-0.105
-0.116
-0.166
-0.081
-0.074
-0.054
0.190
0.194
0.022
-0.321
-0.315
0.010
0.511
0.486
0.311
0.224
-0.035
0.010
0.159
0.258
0.417
0.363
0.227
0.181
0.225
0.082
0.247
0.320
0.283
0.239
-0.036
-0.057
0.120
0.146
0.075
0.033
0.035
-0.220
0.052
0.049
0.049
-0.257
-0.096
0.015
-0.085
-0.147
-0.207
-0.328
-0.141
-0.159
-0.046
-0.039
-0.014
-0.139
-0.114
-0.140
-0.080
-0.109
-0.041
0.015
-0.017
0.120
-0.016
0.317
0.042
-0.144
-0.056
0.106
-0.042
0.216
0.090
-0.078
-0.004
-0.071
-0.042
-0.010
0.013
0.048
-0.676
-0.912
-0.261
0.180
0.141
0.119
-0.025
-0.190
-0.115
-0.150
-0.344
-0.280
0.069
0.284
0.338
0.295
0.306
0.297
0.188
0.168
0.114
0.043
