0.095
0.001
0.023
0.047
0.038
-0.072
0.110
0.068
-0.003
0.008
0.006
0.071
-0.023
-0.020
-0.023
-0.041
0.107
0.034
0.008
-0.044
0.036
0.047
0.027
-0.005
0.016
0.070
-0.045
-0.024
0.098
-0.016
0.101
-0.036
0.067
0.049
-0.145
0.046
-0.043
-0.024
0.072
0.050
-0.004
0.086
0.007
-0.030
0.140
0.017
0.019
-0.001
-0.016
0.059
0.029
0.038
0.039
-0.026
0.062
0.151
0.109
-0.023
0.017
-0.059
0.055
0.058
0.093
0.028
0.010
-0.016
0.014
0.033
0.023
0.005
-0.015
0.064
0.068
0.056
-0.007
0.014
-0.021
-0.032
0.066
0.084
0.012
0.084
-0.013
-0.004
-0.042
-0.001
0.021
-0.051
-0.080
0.149
0.078
-0.001
0.049
0.033
0.031
-0.046
-0.004
0.067
0.023
-0.023
-0.034
0.096
0.096
0.019
0.059
-0.039
0.095
0.014
0.065
0.042
0.027
0.067
-0.034
-0.014
0.031
0.084
-0.017
0.050
-0.100
-0.000
0.040
0.052
-0.035
0.065
0.089
0.032
0.007
-0.026
0.002
0.016
0.044
0.045
-0.034
0.075
0.065
-0.050
-0.015
0.154
0.059
0.026
0.031
-0.017
-0.019
-0.022
0.009
0.141
0.012
0.113
0.094
-0.055
-0.015
-0.061
0.122
0.032
-0.009
0.012
0.061
0.116
-0.091
-0.013
0.055
0.029
0.037
-0.003
0.001
-0.017
0.041
-0.004
-0.034
0.074
0.053
0.086
-0.016
-0.036
-0.024
0.065
-0.017
0.087
0.112
-0.059
0.013
0.032
0.036
0.045
0.013
0.030
-0.024
0.040
0.035
-0.051
0.100
0.053
0.121
-0.044
0.001
0.131
-0.022
-0.014
-0.037
-0.035
-0.009
0.051
0.109
-0.041
-0.032
0.175
0.049
-0.062
-0.029
0.094
-0.090
-0.020
0.010
-0.015
0.000
0.062
0.051
0.021
-0.039
0.073
0.084
-0.014
-0.007
0.015
-0.006
0.073
-0.055
0.009
0.075
-0.001
0.031
-0.010
-0.008
0.109
0.037
-0.065
-0.055
0.072
0.009
0.012
0.129
-0.037
0.072
0.021
-0.030
-0.049
0.052
0.057
0.023
-0.032
-0.071
-0.019
0.082
-0.019
0.034
0.055
-0.007
0.051
0.020
-0.027
-0.035
0.039
0.029
0.126
-0.026
0.009
0.040
0.004
-0.037
0.077
0.013
0.022
0.014
-0.031
0.059
0.055
0.026
0.017
-0.053
0.044
0.033
-0.036
0.053
0.009
0.005
-0.006
-0.068
-0.005
0.048
0.059
-0.101
0.040
-0.114
-0.042
-0.011
0.152
0.013
-0.007
-0.096
0.139
0.015
0.027
0.075
0.118
-0.020
0.016
0.021
0.012
0.001
0.056
0.034
0.043
-0.020
0.015
-0.009
-0.104
0.062
0.032
0.028
-0.064
0.036
0.042
0.016
0.015
0.079
0.072
0.042
0.028
-0.104
0.050
0.015
0.108
-0.056
0.005
-0.032
0.005
0.025
-0.046
0.030
0.035
0.042
0.006
0.064
-0.010
0.092
-0.077
0.036
0.063
0.083
-0.038
0.069
0.049
0.055
-0.045
-0.001
0.011
0.049
0.069
-0.021
0.016
0.057
0.004
-0.064
0.110
-0.016
-0.059
0.031
-0.006
0.079
0.025
-0.014
-0.064
0.035
0.087
0.066
0.016
0.004
-0.058
0.046
-0.003
0.031
0.040
-0.011
-0.007
-0.025
0.069
0.080
-0.036
-0.032
-0.050
0.036
-0.020
0.056
0.078
-0.006
0.140
-0.003
-0.031
0.030
-0.003
-0.059
-0.028
0.040
0.015
0.104
-0.021
-0.062
0.038
-0.050
0.020
0.099
0.030
0.015
-0.034
-0.091
0.061
0.057
0.011
-0.084
0.042
-0.003
0.027
0.069
0.041
0.008
-0.036
0.065
0.029
0.059
0.045
-0.058
0.019
-0.045
-0.070
0.069
0.075
0.076
-0.061
-0.015
0.034
-0.009
0.027
0.012
0.022
-0.006
0.079
0.020
0.015
-0.046
-0.040
0.092
0.027
-0.040
0.039
-0.041
0.048
0.028
0.033
0.043
-0.028
0.065
0.105
0.019
-0.110
0.014
0.081
0.080
0.033
0.041
0.026
0.001
-0.016
-0.007
0.112
0.070
0.001
-0.118
0.071
-0.005
0.112
-0.045
-0.103
0.033
-0.037
0.093
0.022
0.056
0.105
0.007
-0.058
-0.004
0.107
0.007
0.060
0.032
-0.066
0.046
-0.013
0.032
-0.115
0.031
0.113
0.053
0.055
-0.025
0.008
-0.033
0.053
0.017
0.063
-0.030
-0.024
0.122
-0.022
0.031
-0.006
-0.005
0.136
0.006
-0.098
0.095
-0.020
-0.051
0.091
0.019
-0.002
-0.061
0.029
0.141
0.019
-0.024
0.076
-0.012
0.029
0.095
0.050
-0.071
0.050
-0.039
0.010
-0.015
-0.042
0.007
-0.034
0.063
0.080
-0.040
-0.015
0.045
-0.047
0.007
0.056
0.074
-0.018
-0.040
-0.050
0.046
0.043
0.062
0.100
-0.005
0.008
0.050
0.049
0.003
0.085
-0.048
-0.066
0.142
0.064
0.088
0.012
-0.026
-0.073
0.038
-0.002
0.085
-0.033
-0.074
-0.008
0.145
0.023
-0.069
0.044
-0.079
0.044
0.076
0.083
-0.019
-0.025
-0.007
0.098
0.048
0.053
0.001
0.005
0.015
-0.008
0.067
0.051
-0.027
-0.085
0.108
0.055
-0.003
0.017
0.065
-0.009
0.006
-0.055
-0.027
0.044
0.058
0.128
-0.027
0.001
-0.001
0.119
0.071
0.083
-0.019
-0.019
-0.118
-0.005
0.077
0.080
0.039
-0.004
0.064
0.086
-0.015
-0.037
0.027
0.050
-0.030
0.064
-0.005
-0.059
0.038
0.043
-0.032
0.031
0.050
0.066
0.039
0.099
-0.057
-0.036
0.055
-0.034
0.069
0.052
0.002
0.012
0.008
0.074
-0.030
0.027
0.073
0.070
-0.045
-0.027
-0.016
-0.007
0.047
0.056
-0.009
0.004
-0.056
0.034
0.019
0.069
0.060
-0.018
-0.020
0.060
-0.018
0.012
0.033
-0.066
0.099
0.029
-0.129
0.053
0.031
-0.031
0.073
-0.053
0.055
0.050
0.037
0.024
-0.020
0.016
0.096
0.032
-0.042
0.041
0.034
-0.048
0.021
0.066
-0.005
-0.071
0.092
-0.060
-0.029
0.058
0.015
-0.062
0.040
0.003
0.094
0.002
-0.031
0.057
-0.034
0.097
0.025
-0.097
0.055
0.023
-0.025
0.013
-0.009
0.052
0.087
0.028
0.004
-0.066
0.009
0.043
0.076
-0.084
0.002
0.069
-0.003
0.013
0.104
-0.101
-0.001
0.019
-0.072
0.056
0.042
0.023
0.016
0.034
0.042
-0.018
-0.041
0.044
-0.040
0.088
0.116
0.039
0.070
-0.043
0.019
-0.021
0.037
0.028
0.081
0.017
-0.013
-0.090
-0.027
0.001
0.029
0.068
0.065
0.054
0.004
0.031
-0.025
0.053
-0.001
-0.033
0.095
0.035
-0.026
0.026
0.049
0.011
0.087
0.043
0.001
0.018
0.051
0.047
-0.045
-0.020
0.053
0.008
0.069
0.006
-0.033
-0.025
0.019
0.015
0.018
0.030
0.060
0.024
0.024
0.021
-0.020
-0.023
0.058
0.079
0.003
0.072
0.007
0.053
-0.012
0.008
0.120
-0.056
0.033
0.010
0.093
-0.035
-0.016
0.066
0.010
0.042
-0.011
0.038
0.001
0.048
0.024
0.026
0.022
0.059
0.019
0.015
0.002
-0.010
0.039
0.005
0.078
-0.002
0.133
0.031
-0.043
0.050
-0.021
0.031
0.017
0.047
0.059
0.046
0.027
-0.036
0.011
-0.052
-0.010
0.068
0.042
0.014
0.048
-0.095
0.034
0.033
0.044
0.008
0.021
0.009
0.087
-0.020
0.024
0.069
0.066
0.084
0.014
-0.077
0.033
0.078
0.020
0.013
0.018
-0.038
-0.019
-0.011
0.049
0.043
-0.022
0.005
0.016
0.025
0.036
0.038
0.083
-0.065
0.006
0.035
0.050
-0.037
-0.043
-0.006
0.058
0.165
0.067
-0.045
0.037
-0.018
-0.036
0.069
0.030
-0.058
0.005
-0.009
0.075
0.069
0.068
0.033
-0.024
-0.078
0.067
0.039
-0.008
-0.025
-0.045
-0.011
0.111
0.012
-0.080
0.057
0.092
-0.032
-0.046
-0.024
0.057
0.079
-0.057
0.040
0.063
0.023
0.020
-0.015
0.001
0.060
-0.004
0.061
-0.025
0.046
0.014
-0.018
-0.052
0.002
0.113
0.091
-0.021
0.011
0.012
-0.001
-0.046
0.030
0.023
0.155
0.088
0.034
0.038
0.028
0.007
-0.029
-0.034
-0.054
0.004
-0.014
0.054
0.094
-0.041
0.033
0.017
0.030
0.050
0.040
-0.022
-0.026
0.098
-0.021
-0.089
0.048
-0.002
0.093
-0.023
0.079
0.040
-0.019
0.007
0.100
-0.031
-0.030
0.052
0.059
-0.023
0.169
0.090
-0.012
-0.070
-0.033
0.084
-0.013
0.018
0.048
0.031
0.039
0.035
-0.007
0.075
-0.093
-0.022
0.061
0.055
0.030
-0.082
0.052
0.118
0.002
-0.045
-0.006
0.044
0.001
-0.096
-0.021
0.131
0.005
-0.061
0.035
-0.022
0.060
-0.014
0.122
0.008
-0.006
0.047
0.073
-0.023
0.065
-0.029
0.010
-0.044
-0.006
0.065
0.074
-0.019
-0.086
0.139
-0.025
-0.045
-0.061
0.103
-0.048
0.069
0.011
-0.007
0.039
-0.033
-0.005
0.017
-0.003
0.038
-0.003
0.056
0.016
0.030
0.061
0.004
0.026
0.011
-0.002
0.074
-0.068
0.071
0.054
0.126
-0.030
0.023
-0.065
-0.008
0.080
-0.033
-0.037
-0.017
0.021
0.033
0.057
-0.012
-0.009
0.132
0.045
-0.003
0.031
0.029
0.007
0.002
0.003
0.039
0.033
-0.093
0.051
-0.003
-0.010
0.124
-0.019
-0.075
0.022
0.021
0.139
0.012
0.051
-0.040
0.008
0.181
0.001
0.067
0.024
-0.042
-0.015
0.010
0.164
0.043
0.000
0.048
-0.056
-0.101
0.109
0.153
-0.018
0.043
0.051
-0.013
0.018
0.084
0.098
0.001
0.079
0.013
0.022
-0.081
0.052
0.067
-0.095
0.025
0.036
-0.036
-0.004
0.110
0.040
-0.076
-0.021
0.045
-0.061
-0.051
0.071
-0.018
0.022
-0.032
0.030
0.052
0.077
0.077
-0.070
-0.037
-0.013
0.050
0.036
0.015
0.072
0.009
0.058
0.042
0.016
-0.059
0.101
0.044
-0.071
0.034
0.108
0.012
0.037
0.016
0.008
0.004
0.065
-0.042
0.070
0.023
-0.158
0.090
-0.003
0.094
0.050
0.011
0.031
-0.040
-0.071
0.064
-0.023
0.082
0.068
-0.046
-0.004
0.020
-0.002
0.035
0.023
0.026
-0.031
-0.045
0.041
-0.051
0.022
0.005
-0.004
0.120
0.074
-0.057
0.007
-0.060
0.075
0.059
-0.030
0.170
0.068
-0.051
-0.020
0.075
0.006
-0.042
-0.022
0.063
-0.037
0.033
0.118
0.099
0.011
-0.014
0.016
-0.039
0.035
0.005
0.038
0.010
0.023
-0.000
-0.034
0.070
0.061
0.008
-0.011
0.086
-0.024
0.085
0.029
-0.035
0.060
0.080
0.051
0.019
-0.045
0.005
-0.021
0.044
0.101
0.082
-0.077
-0.051
0.074
-0.008
0.011
-0.031
0.036
0.093
-0.058
0.053
0.127
0.034
-0.018
-0.086
0.030
0.077
0.026
0.000
0.042
0.041
-0.099
0.117
-0.032
0.000
0.007
0.076
0.025
0.033
-0.035
0.058
0.061
-0.017
-0.013
0.044
0.034
0.076
0.044
-0.024
0.060
-0.001
0.002
0.064
-0.028
-0.009
0.026
0.014
0.041
0.077
0.079
-0.040
-0.047
0.054
0.037
0.014
0.027
0.024
-0.008
0.123
0.034
0.064
-0.064
0.043
-0.071
0.085
0.074
-0.060
-0.037
-0.049
-0.003
-0.012
0.115
0.061
-0.002
-0.102
0.079
0.119
-0.050
0.023
-0.018
0.069
0.010
-0.007
0.011
-0.015
0.027
-0.004
0.065
-0.141
0.001
0.041
0.061
-0.024
-0.026
0.067
-0.056
-0.021
0.085
0.000
0.043
0.017
0.017
0.002
0.080
0.014
0.040
0.049
-0.052
0.070
0.080
-0.049
0.023
0.056
0.049
0.047
0.033
0.017
-0.037
-0.030
-0.003
-0.011
0.053
0.014
-0.039
0.018
0.074
0.096
-0.025
-0.050
0.015
-0.009
0.028
0.048
-0.003
0.011
0.077
0.031
0.005
0.034
-0.035
0.070
-0.031
0.136
0.067
-0.039
-0.075
0.082
0.017
0.066
0.007
0.025
0.066
-0.018
0.023
-0.047
0.040
-0.038
0.175
0.044
0.034
-0.054
0.043
0.016
0.054
-0.005
-0.044
0.107
0.027
0.034
0.094
0.054
-0.051
-0.097
0.044
0.094
0.101
-0.022
0.026
0.073
0.001
-0.079
0.003
0.040
0.043
-0.028
-0.024
0.025
-0.033
0.043
0.022
0.024
0.024
-0.009
0.020
0.038
0.006
0.018
0.068
0.025
-0.040
0.031
-0.141
0.121
0.121
-0.022
0.024
-0.033
-0.027
0.027
0.086
0.036
-0.141
0.055
-0.063
0.072
0.088
0.063
-0.010
0.024
0.020
0.007
-0.048
0.069
0.101
-0.021
-0.056
0.064
0.052
0.056
-0.102
0.083
0.070
0.031
-0.018
-0.072
0.039
0.056
0.017
-0.040
0.020
-0.046
0.024
0.021
0.055
0.046
-0.066
0.054
0.036
0.001
-0.073
0.107
0.001
0.058
0.018
0.024
0.060
-0.033
0.081
0.020
-0.014
0.004
-0.012
0.063
-0.011
0.004
0.098
-0.045
-0.022
0.075
0.134
-0.009
-0.005
0.058
-0.054
0.008
0.040
0.006
-0.039
0.050
0.058
0.037
0.028
0.047
0.137
-0.038
-0.020
-0.091
0.013
0.056
0.132
0.028
-0.038
0.035
-0.016
-0.020
0.083
0.013
-0.044
0.001
0.046
0.027
0.005
-0.057
0.002
0.029
-0.019
-0.054
0.085
-0.089
0.031
0.013
0.180
0.033
-0.076
-0.103
0.036
0.103
0.042
0.004
0.061
0.079
0.114
-0.006
-0.024
-0.024
-0.044
0.073
0.041
0.031
0.028
0.004
0.078
-0.025
0.060
-0.066
0.069
-0.009
0.038
0.002
0.021
0.113
0.062
-0.065
-0.030
-0.046
0.015
0.061
0.136
0.037
-0.104
-0.030
0.047
0.064
0.049
0.028
-0.023
0.027
0.001
-0.038
0.007
0.156
-0.002
0.043
-0.027
-0.015
-0.001
0.086
0.004
-0.074
0.045
-0.000
-0.037
-0.007
0.145
0.035
0.020
-0.049
0.021
0.090
0.094
0.023
-0.056
-0.028
0.008
0.159
0.001
-0.011
-0.064
0.071
0.015
0.045
-0.025
0.052
0.040
0.066
-0.056
0.019
0.017
0.044
0.090
0.076
0.008
-0.038
-0.041
0.005
0.034
0.004
0.090
0.051
-0.057
-0.005
-0.034
0.070
0.030
0.016
-0.053
0.017
0.023
0.048
0.088
0.103
0.015
-0.054
-0.040
0.023
-0.016
-0.005
0.081
-0.032
0.080
-0.116
-0.029
0.062
0.043
0.047
0.035
0.030
0.025
0.034
0.058
-0.000
0.056
0.046
0.044
-0.000
0.045
0.006
0.024
0.047
0.006
-0.008
0.040
0.001
-0.004
0.010
-0.008
0.045
-0.024
0.003
0.045
0.036
-0.030
0.057
0.023
-0.079
0.055
0.036
0.033
-0.016
0.126
-0.010
0.040
-0.008
0.032
-0.035
0.024
0.085
0.034
-0.035
0.051
-0.058
0.031
0.077
0.064
0.033
-0.072
0.019
0.031
0.059
0.010
-0.045
-0.015
0.007
0.074
-0.001
-0.007
0.065
0.005
-0.128
0.023
0.057
0.068
0.049
0.048
-0.020
0.042
-0.038
0.041
0.070
0.020
0.007
0.069
-0.027
-0.049
0.028
-0.011
0.075
0.032
-0.063
0.028
0.027
-0.022
-0.020
0.049
0.168
-0.033
0.030
-0.038
0.045
0.021
-0.082
-0.003
0.115
0.073
-0.065
0.098
0.052
-0.013
0.001
0.025
0.070
0.019
0.030
-0.037
0.024
0.020
0.039
0.049
-0.001
-0.032
0.035
0.032
0.031
-0.017
-0.171
0.006
0.016
0.103
0.019
-0.066
0.020
0.043
0.102
0.013
-0.077
0.092
-0.007
0.012
-0.039
0.088
0.030
0.015
0.049
0.025
-0.033
0.013
0.104
-0.013
-0.003
-0.098
-0.029
0.125
0.132
-0.017
-0.036
0.132
0.024
0.070
0.045
-0.026
-0.100
0.085
0.003
0.043
0.010
0.022
0.045
0.009
-0.040
0.006
0.052
-0.013
0.028
0.074
-0.067
-0.058
0.049
0.087
-0.041
0.011
0.077
-0.023
-0.024
0.024
0.076
0.091
-0.058
0.036
0.080
0.032
-0.097
0.075
0.061
0.018
0.050
0.118
0.007
-0.000
-0.048
0.099
0.044
0.060
0.110
-0.112
-0.037
-0.016
-0.046
-0.003
-0.035
0.137
0.005
-0.027
0.019
0.009
0.004
-0.084
0.061
0.110
0.095
0.005
0.054
-0.065
0.011
0.005
0.102
0.002
-0.009
-0.028
0.007
0.009
0.066
-0.033
0.071
0.038
-0.014
0.053
0.028
-0.003
-0.032
0.022
0.040
-0.019
-0.043
0.039
0.035
0.024
-0.021
0.049
0.011
-0.033
0.047
-0.078
0.089
0.005
0.042
-0.067
0.059
0.002
0.000
-0.037
-0.016
0.081
0.033
0.024
0.116
-0.041
-0.015
0.085
0.079
-0.018
0.024
-0.058
0.117
0.027
-0.018
0.023
0.005
-0.043
-0.033
0.079
-0.071
0.065
0.067
-0.072
-0.016
0.095
0.068
-0.010
-0.068
0.067
-0.005
0.061
0.066
0.031
-0.065
-0.013
0.029
0.090
0.009
0.068
0.016
-0.029
-0.030
0.116
0.009
-0.029
-0.006
0.053
0.019
0.041
0.030
-0.067
0.032
0.007
0.030
0.112
-0.045
0.075
0.132
0.000
0.014
0.003
-0.052
0.025
-0.099
0.055
0.038
0.000
-0.016
0.017
0.036
-0.066
0.014
0.035
0.049
-0.044
0.048
0.067
0.045
-0.004
-0.022
-0.028
-0.013
0.087
-0.032
0.160
-0.008
-0.026
-0.005
-0.005
0.068
0.032
0.013
0.001
0.054
-0.045
-0.013
0.032
0.111
-0.014
-0.068
0.025
0.073
-0.039
0.039
-0.051
-0.027
0.016
0.005
0.052
-0.033
0.056
-0.023
0.007
0.049
0.026
-0.009
-0.013
-0.005
-0.077
0.206
0.120
-0.101
-0.019
-0.083
0.124
0.087
0.020
-0.009
0.017
-0.043
0.012
0.021
0.022
0.068
-0.047
-0.055
-0.069
0.102
0.076
0.016
-0.040
-0.072
0.053
-0.033
0.007
0.061
-0.026
0.051
0.012
-0.001
-0.053
0.012
0.080
0.148
0.006
-0.089
0.065
-0.094
0.024
0.091
0.020
0.018
0.078
0.050
-0.003
-0.012
0.031
0.003
-0.040
-0.053
0.019
0.093
-0.024
-0.004
0.049
0.033
-0.009
0.042
-0.015
-0.068
0.024
0.027
-0.051
-0.012
0.042
0.009
0.098
-0.017
0.086
-0.025
0.053
-0.011
0.065
0.074
-0.070
0.021
0.024
-0.021
0.010
-0.073
0.083
0.110
-0.000
0.047
0.008
0.011
-0.025
0.034
0.040
0.097
0.080
-0.068
0.003
0.019
-0.047
-0.077
0.070
0.102
0.044
0.058
0.017
-0.027
0.018
0.046
-0.034
0.102
0.104
-0.002
-0.007
0.042
-0.066
0.019
-0.014
0.051
0.002
0.064
0.103
-0.018
-0.029
-0.020
-0.022
0.051
0.078
-0.036
0.149
-0.038
0.023
-0.048
0.032
0.038
-0.072
-0.011
-0.006
0.223
0.069
-0.134
-0.053
-0.043
0.072
0.009
0.034
0.036
0.088
-0.081
0.047
0.021
0.072
0.018
-0.011
-0.005
0.061
-0.004
0.098
0.076
-0.076
0.031
0.074
-0.022
-0.055
0.110
-0.013
0.048
-0.026
-0.077
-0.060
0.047
0.130
-0.065
-0.050
0.066
0.041
0.026
-0.115
0.082
0.029
0.068
0.018
0.108
-0.092
0.062
0.004
0.001
0.076
0.014
0.106
-0.073
0.010
0.017
0.046
-0.121
0.029
0.038
0.031
0.001
0.065
0.027
-0.133
0.130
-0.073
0.006
0.008
0.139
-0.015
0.036
0.026
-0.025
0.046
-0.022
0.049
0.022
0.013
-0.062
-0.001
0.149
0.006
-0.012
0.031
-0.003
0.050
0.020
-0.086
0.009
0.070
0.072
0.056
-0.069
0.006
0.008
0.048
0.032
-0.053
0.034
0.068
0.067
0.003
0.029
0.013
0.006
0.113
-0.004
-0.068
0.090
-0.018
0.012
0.052
0.132
-0.064
-0.004
-0.021
0.026
0.012
0.004
0.007
0.074
-0.049
0.034
-0.067
0.032
0.033
0.011
-0.075
0.077
0.073
-0.004
-0.023
-0.024
0.005
0.062
0.018
-0.029
0.035
-0.079
-0.020
0.029
0.079
0.049
0.059
-0.036
0.006
0.065
0.038
0.107
0.044
-0.015
-0.016
0.040
0.100
0.050
0.088
0.012
-0.005
0.038
0.044
0.054
-0.050
-0.078
0.017
0.091
-0.004
-0.009
0.019
-0.021
-0.017
-0.031
0.039
-0.023
0.003
-0.001
0.019
0.082
0.034
-0.017
0.006
0.055
-0.043
-0.023
-0.002
0.024
0.102
-0.104
-0.027
-0.042
0.004
0.174
0.043
0.088
0.061
-0.019
0.018
0.014
-0.011
0.000
0.130
-0.002
-0.010
-0.098
0.108
-0.023
0.005
0.090
-0.088
0.049
0.030
0.017
0.083
0.068
-0.021
-0.038
-0.062
0.062
0.045
0.033
-0.068
0.057
-0.003
0.031
0.141
-0.032
-0.026
-0.163
0.055
0.109
0.053
0.023
0.005
-0.008
0.027
0.058
-0.087
0.009
-0.095
0.018
-0.004
0.165
0.044
-0.041
-0.001
-0.021
0.000
0.149
0.037
-0.045
-0.009
0.095
0.067
-0.040
0.031
-0.057
-0.058
0.161
0.000
0.023
0.073
0.008
-0.007
0.049
0.004
-0.028
0.048
0.023
0.056
-0.015
0.114
-0.049
0.064
0.003
0.090
0.017
-0.055
-0.031
-0.073
0.066
0.030
0.040
0.055
-0.013
0.059
-0.066
0.020
0.081
0.033
0.030
-0.044
-0.044
0.052
0.045
0.052
0.026
0.070
-0.041
-0.035
0.032
0.073
0.008
0.021
0.056
0.052
-0.020
-0.024
-0.010
0.084
0.028
0.084
0.047
-0.026
0.005
-0.005
-0.028
-0.058
0.018
-0.036
0.002
-0.003
-0.025
0.103
0.058
-0.051
0.062
0.090
-0.120
0.140
-0.021
-0.009
0.072
0.044
-0.058
0.046
-0.015
0.004
0.057
-0.021
-0.002
0.073
-0.018
-0.012
0.118
0.019
-0.032
-0.078
0.030
0.030
0.066
-0.035
-0.001
0.086
0.065
0.015
-0.040
0.006
-0.017
0.076
0.060
0.014
-0.008
-0.036
-0.025
0.082
0.033
0.004
-0.025
-0.023
-0.025
0.067
0.060
0.036
-0.003
-0.096
0.066
0.017
-0.018
0.060
0.074
-0.045
0.134
-0.069
0.035
0.048
0.023
0.004
0.113
0.014
-0.056
0.063
-0.057
-0.066
0.050
0.167
0.002
-0.045
0.045
-0.027
-0.073
-0.023
0.003
0.233
0.064
0.000
-0.069
0.046
-0.038
0.015
0.040
0.046
0.008
0.043
0.078
0.008
0.097
0.024
-0.129
-0.042
0.048
0.068
0.010
0.068
0.023
-0.020
-0.026
0.009
-0.037
-0.002
0.108
0.019
-0.007
-0.057
0.020
0.109
0.010
0.003
0.002
0.092
0.044
0.018
0.094
-0.018
0.066
0.002
0.073
0.099
-0.003
-0.024
-0.014
0.033
0.055
0.024
-0.006
-0.060
0.003
0.004
0.026
0.127
0.005
-0.006
0.024
0.083
0.039
0.054
-0.057
0.074
0.001
-0.114
0.101
0.128
-0.010
0.104
-0.005
-0.011
0.007
0.069
0.046
0.036
0.023
0.013
-0.002
-0.069
0.009
0.036
0.008
-0.013
0.045
-0.003
-0.048
-0.002
-0.016
0.167
0.058
-0.041
-0.001
0.044
0.059
-0.008
0.024
0.001
-0.011
0.111
0.057
0.040
-0.082
-0.013
0.027
-0.037
0.014
0.021
0.118
-0.001
-0.070
0.010
0.050
0.005
0.074
0.083
-0.062
0.027
-0.028
-0.096
0.040
0.056
-0.067
0.072
-0.010
-0.031
-0.045
0.091
0.037
0.091
-0.014
-0.077
0.032
-0.026
0.035
0.095
0.055
0.087
0.015
-0.108
0.101
0.040
0.053
-0.083
-0.024
0.030
0.108
-0.029
-0.008
0.066
-0.050
0.085
-0.054
-0.007
-0.069
0.119
0.139
-0.019
-0.037
-0.050
0.068
0.035
0.015
0.089
-0.010
0.100
-0.008
0.044
0.068
-0.012
0.088
0.024
-0.064
0.068
0.045
0.063
-0.002
-0.046
0.091
0.023
0.031
0.014
0.063
0.031
0.073
0.024
-0.007
0.073
-0.062
0.047
-0.020
0.035
-0.006
-0.007
-0.060
0.050
0.047
0.098
-0.057
0.057
-0.028
0.002
0.116
0.023
-0.052
0.066
0.026
-0.010
0.011
0.117
0.032
0.013
-0.050
0.057
0.037
0.007
-0.031
0.055
-0.007
0.014
0.027
-0.012
-0.027
0.098
0.017
0.041
-0.000
0.053
0.069
-0.081
-0.135
0.145
-0.014
-0.032
-0.000
-0.024
-0.012
0.043
-0.028
0.058
-0.029
0.047
0.074
0.018
-0.055
0.020
0.066
-0.061
0.057
-0.037
0.064
-0.024
0.017
-0.059
0.073
0.029
0.018
0.006
0.103
-0.047
-0.035
0.101
0.094
-0.041
-0.036
0.096
-0.002
0.085
0.049
0.026
-0.059
-0.001
0.035
0.024
0.020
-0.016
-0.010
0.053
0.009
-0.080
0.128
0.009
0.008
-0.033
0.093
0.115
-0.036
-0.023
-0.075
0.047
0.080
0.106
0.029
0.030
0.007
0.103
-0.051
0.001
0.053
0.008
0.039
0.054
0.052
-0.038
-0.058
0.052
0.100
0.016
0.045
-0.030
0.004
-0.015
-0.020
-0.017
0.027
0.062
-0.039
0.053
-0.007
0.061
0.043
0.042
0.076
-0.156
0.069
0.036
0.024
0.014
0.037
0.025
0.077
-0.005
-0.055
0.075
0.058
-0.048
0.073
0.080
0.014
0.020
0.059
-0.037
-0.017
0.038
-0.022
0.066
0.018
-0.019
0.039
-0.050
-0.017
0.064
0.054
0.049
0.004
-0.085
0.014
0.042
-0.069
0.087
-0.006
0.041
-0.031
0.039
0.002
0.070
0.014
0.110
-0.034
0.014
0.022
0.072
-0.030
-0.078
0.100
-0.041
0.074
-0.036
0.017
0.055
0.038
-0.030
-0.015
0.037
0.024
-0.016
0.053
0.003
0.068
-0.041
-0.035
0.048
0.108
-0.072
-0.101
0.008
0.104
0.053
0.021
0.066
-0.004
-0.023
-0.012
0.096
0.044
0.016
0.015
-0.028
0.063
0.007
-0.042
0.019
0.066
-0.003
0.129
0.045
0.039
0.010
-0.011
-0.009
0.035
-0.003
-0.015
-0.026
-0.035
-0.021
0.042
0.015
0.079
-0.043
-0.029
-0.036
0.067
-0.017
0.085
0.037
-0.046
-0.083
0.076
0.074
0.004
0.027
-0.009
-0.042
0.042
0.058
0.039
-0.056
0.038
0.024
0.006
-0.061
0.078
-0.009
0.102
-0.013
0.031
-0.085
-0.063
0.099
0.100
0.080
-0.010
0.083
-0.002
0.005
-0.011
0.026
-0.061
0.051
0.081
0.023
0.067
0.014
0.005
-0.041
0.121
-0.071
0.054
0.019
-0.042
0.008
0.023
-0.040
0.053
0.035
0.024
-0.015
0.037
0.060
0.027
-0.028
-0.003
0.009
0.040
0.069
-0.062
0.023
0.010
0.050
0.060
-0.052
0.133
0.074
-0.034
0.054
0.023
0.083
-0.067
-0.000
-0.080
0.029
0.066
0.089
-0.087
-0.034
0.041
0.018
0.038
0.020
0.055
0.056
0.001
0.025
-0.073
0.026
0.018
-0.016
0.046
-0.018
0.092
0.025
0.052
0.002
-0.002
0.013
0.084
0.098
-0.013
0.023
0.014
0.029
-0.001
-0.056
0.112
-0.000
-0.035
-0.088
0.173
-0.021
0.012
0.011
-0.005
0.026
-0.007
0.027
-0.008
0.035
-0.038
-0.012
-0.022
0.043
0.038
0.056
0.071
0.046
-0.083
-0.005
0.076
0.054
-0.033
0.058
-0.082
0.047
0.096
0.017
0.014
-0.056
0.104
0.017
0.059
0.006
0.127
-0.016
-0.055
0.037
0.033
0.011
0.059
0.019
0.044
-0.034
0.044
0.012
-0.032
-0.003
0.043
-0.010
0.015
0.041
0.039
0.002
0.017
-0.024
0.044
-0.008
0.002
0.105
0.058
0.019
-0.012
0.064
-0.027
0.001
0.048
0.177
-0.068
-0.049
0.051
-0.075
0.082
0.005
-0.009
0.039
0.003
0.004
0.038
-0.002
0.025
0.054
-0.002
0.015
0.061
-0.051
0.006
-0.063
0.056
0.093
-0.014
0.030
-0.002
-0.041
0.027
0.085
0.027
-0.040
-0.030
0.093
-0.006
0.039
-0.031
0.154
-0.045
-0.023
0.045
0.018
0.069
-0.014
0.057
0.030
-0.078
-0.027
-0.002
0.015
-0.001
-0.023
0.040
0.091
0.081
-0.046
0.008
0.012
0.095
0.029
-0.047
-0.062
0.002
0.126
0.065
0.050
0.025
0.014
-0.031
0.101
0.021
0.048
0.024
-0.050
-0.012
-0.024
0.088
-0.009
0.006
0.043
0.014
-0.012
0.090
-0.019
-0.033
0.064
0.039
0.036
-0.000
0.091
0.036
0.043
-0.095
0.029
0.167
-0.097
0.024
0.027
0.031
0.106
0.018
0.049
0.044
-0.016
0.004
-0.027
0.021
0.082
-0.017
0.088
0.028
0.068
0.006
-0.063
-0.067
-0.043
0.075
0.090
0.004
0.055
-0.059
-0.024
0.163
0.006
0.006
0.007
0.015
-0.028
0.054
0.148
0.015
0.020
-0.090
-0.029
0.068
0.080
0.037
-0.074
0.045
-0.007
-0.022
0.057
-0.028
-0.113
0.092
0.046
0.053
-0.010
-0.078
-0.020
0.099
-0.033
0.045
-0.070
-0.007
0.046
0.111
0.098
0.015
-0.014
-0.025
0.030
0.079
0.113
-0.035
-0.025
-0.032
0.018
0.013
-0.070
0.073
0.058
0.033
0.011
-0.013
0.101
-0.059
0.058
0.020
0.027
-0.020
-0.020
-0.046
0.012
-0.036
-0.025
-0.014
0.106
0.076
-0.039
0.041
0.047
-0.014
0.038
-0.028
0.091
0.011
-0.022
-0.015
0.056
0.041
-0.043
-0.019
0.044
0.134
0.087
-0.082
0.065
-0.024
0.138
-0.046
0.059
0.000
-0.005
0.052
-0.065
0.093
0.083
-0.003
0.026
-0.020
0.008
0.034
-0.047
0.065
0.053
0.081
0.084
-0.130
0.023
0.012
0.049
0.110
-0.028
0.020
-0.014
0.044
-0.063
0.093
0.111
0.042
-0.038
0.165
0.031
-0.014
-0.013
0.006
-0.035
0.037
0.049
-0.024
-0.022
0.104
-0.115
0.010
0.011
0.093
0.049
0.055
0.026
0.014
-0.009
0.033
0.052
0.047
0.018
0.053
0.061
0.025
-0.045
0.017
0.062
0.063
0.019
0.089
0.001
-0.109
0.006
0.005
0.039
0.112
0.042
0.001
-0.083
0.010
0.009
0.068
0.055
-0.014
0.007
0.050
-0.013
0.018
-0.039
0.096
-0.001
0.054
0.065
-0.057
0.009
0.041
0.056
0.132
-0.026
0.008
0.011
-0.035
0.046
0.053
-0.025
0.053
-0.024
-0.051
0.027
0.013
0.034
0.029
-0.022
0.053
0.025
-0.024
0.023
0.003
0.016
0.073
-0.033
0.025
-0.030
-0.023
0.114
-0.003
0.057
0.030
0.067
-0.016
-0.025
0.049
-0.017
0.057
0.036
0.032
-0.006
-0.050
-0.035
0.043
0.038
0.050
0.097
0.038
0.074
-0.124
0.069
-0.018
0.000
0.041
0.036
0.064
0.016
0.011
0.022
0.049
-0.021
-0.044
0.036
0.161
-0.053
0.109
0.048
-0.013
0.009
0.034
-0.090
0.029
0.018
0.087
0.072
0.011
-0.022
0.015
-0.037
0.063
0.015
0.033
-0.011
-0.018
0.062
0.013
0.090
-0.003
0.003
0.036
0.030
0.035
0.017
0.061
0.013
-0.002
0.056
0.082
-0.024
-0.009
-0.076
0.108
0.013
0.017
0.022
0.024
-0.114
0.057
-0.032
0.104
-0.046
0.137
0.009
0.080
-0.072
0.010
0.042
0.122
0.054
-0.021
0.012
-0.055
0.000
-0.012
0.009
0.060
-0.054
0.012
-0.026
0.119
0.103
0.000
0.003
0.024
-0.009
-0.021
0.028
-0.028
0.111
0.023
0.003
0.021
0.056
-0.057
-0.006
-0.003
-0.020
0.012
-0.020
0.050
0.035
-0.006
0.026
0.053
-0.001
0.012
-0.018
0.113
0.006
-0.122
0.102
0.013
-0.038
0.024
-0.014
0.078
-0.038
0.065
0.048
-0.005
0.014
-0.034
0.008
0.077
0.007
-0.008
-0.011
0.032
0.022
0.059
0.127
-0.047
0.012
0.044
0.049
0.044
0.067
-0.024
0.020
0.082
0.024
0.072
-0.023
-0.018
-0.043
0.020
-0.019
0.026
-0.073
0.130
-0.016
0.004
0.032
0.015
0.068
-0.000
0.027
0.025
0.032
-0.070
0.056
0.080
-0.054
0.006
0.065
0.136
0.129
-0.013
-0.093
-0.035
0.003
0.038
0.104
0.001
0.111
0.030
0.044
-0.012
0.009
0.015
0.016
0.027
0.048
-0.008
0.051
0.107
-0.007
-0.030
0.038
0.047
0.064
0.069
-0.045
-0.048
0.046
0.016
-0.010
0.028
0.123
-0.006
-0.053
0.080
0.038
-0.008
0.005
-0.005
0.001
0.080
0.060
0.019
0.166
-0.030
-0.075
0.060
0.056
-0.004
0.138
0.044
0.044
-0.116
0.074
-0.063
0.006
0.078
0.048
0.012
0.011
-0.027
0.027
0.001
0.047
0.057
-0.025
0.015
0.047
0.019
-0.012
-0.001
-0.053
0.124
0.021
0.027
-0.025
0.077
0.002
0.027
-0.003
0.073
0.069
-0.018
0.033
0.113
0.039
-0.014
0.063
-0.083
0.049
0.040
0.030
0.022
0.003
-0.008
-0.005
-0.030
0.034
-0.028
-0.025
0.059
0.111
-0.087
-0.008
0.000
0.014
0.018
-0.029
0.033
0.060
-0.082
0.021
0.090
0.047
0.041
0.007
0.028
0.058
0.005
0.005
-0.013
0.047
-0.030
0.093
-0.028
0.024
0.030
-0.017
-0.008
0.076
-0.048
0.059
-0.025
0.003
-0.043
0.047
0.089
-0.001
-0.033
0.052
0.039
0.019
-0.004
0.050
0.049
-0.056
0.029
0.062
0.025
-0.079
0.069
0.015
-0.030
0.098
0.028
-0.076
-0.024
0.091
0.089
0.049
-0.039
-0.004
-0.024
0.014
0.001
0.035
0.014
-0.009
0.103
0.055
0.001
-0.090
0.055
0.060
0.007
-0.068
0.032
-0.049
0.082
0.071
0.010
0.024
0.014
-0.038
0.080
0.094
-0.068
0.009
-0.026
0.067
0.045
0.006
-0.029
0.035
-0.034
0.086
0.046
-0.001
-0.040
0.046
0.030
0.050
0.073
-0.022
0.035
-0.073
0.056
-0.036
0.039
-0.001
-0.007
0.049
0.070
-0.069
0.042
0.022
0.082
0.047
-0.083
0.000
0.036
0.096
-0.010
-0.039
0.112
0.050
-0.021
-0.014
0.067
0.014
-0.009
0.070
-0.000
-0.032
-0.036
0.085
-0.033
0.056
0.066
0.007
0.002
-0.001
-0.052
-0.003
-0.016
0.133
0.038
0.004
-0.040
0.024
0.120
0.021
-0.044
0.058
-0.028
0.053
-0.002
0.055
0.053
0.084
-0.006
-0.057
0.057
0.076
0.005
-0.012
-0.069
0.088
0.083
-0.051
-0.043
-0.003
-0.018
0.132
0.056
-0.018
0.059
0.043
-0.047
0.083
0.064
0.001
0.105
-0.013
-0.078
-0.034
0.047
0.096
0.009
-0.021
0.040
0.046
-0.069
-0.075
0.054
-0.045
0.122
0.169
-0.028
0.036
0.001
-0.024
-0.008
-0.033
0.096
0.073
-0.056
0.080
-0.043
0.091
0.033
0.069
0.029
-0.121
-0.044
-0.068
0.038
0.013
0.059
-0.026
0.041
0.001
0.112
0.004
-0.128
0.038
0.092
0.067
-0.037
0.080
-0.042
0.018
0.059
0.056
0.011
0.047
-0.090
0.013
0.054
0.042
-0.030
-0.023
0.009
0.091
-0.074
0.059
0.017
-0.017
-0.022
-0.011
0.062
0.125
0.034
-0.024
-0.016
-0.071
0.005
0.039
0.112
0.014
0.064
-0.034
0.000
-0.043
0.068
0.082
-0.083
0.010
0.023
-0.042
0.037
0.054
-0.032
0.055
0.082
-0.113
-0.039
0.050
0.027
0.057
0.020
0.091
-0.003
0.005
-0.063
0.018
0.036
0.067
0.092
0.062
0.090
-0.051
-0.076
0.011
-0.018
0.078
-0.003
-0.056
-0.073
0.066
0.110
0.075
0.064
0.052
-0.001
-0.062
0.125
-0.005
0.048
0.062
-0.005
-0.095
-0.000
-0.083
0.099
0.098
0.015
0.028
0.011
0.051
-0.046
0.120
-0.008
-0.017
0.030
0.096
-0.014
0.019
0.021
-0.003
-0.003
0.101
0.099
0.032
0.034
0.058
-0.045
-0.009
0.046
-0.042
0.081
-0.022
0.074
0.081
-0.072
0.009
0.020
0.103
-0.054
-0.005
0.003
0.039
0.039
0.070
0.050
0.030
-0.004
0.069
-0.100
-0.005
0.049
0.111
-0.035
0.004
0.083
0.006
-0.006
0.042
0.094
-0.065
-0.003
-0.165
-0.004
0.112
0.183
-0.009
-0.076
0.023
0.110
0.071
-0.061
-0.019
0.067
0.058
-0.050
0.103
0.036
0.103
-0.022
0.011
-0.003
0.042
-0.065
-0.026
0.052
-0.016
0.060
0.013
-0.015
0.043
-0.015
0.036
0.031
-0.015
-0.115
0.003
0.017
0.023
0.066
0.017
0.060
0.007
0.014
-0.089
0.080
0.038
0.071
0.036
-0.015
-0.006
0.075
0.010
0.038
0.111
-0.054
0.007
-0.045
-0.024
-0.052
0.037
0.051
-0.003
0.006
-0.026
-0.017
0.081
0.058
0.055
-0.010
-0.064
-0.036
0.021
-0.009
0.030
0.008
0.023
0.037
0.051
-0.007
0.085
0.020
-0.058
0.016
0.077
-0.054
-0.005
0.025
-0.029
0.093
0.052
0.006
-0.031
-0.061
0.090
0.098
-0.011
-0.024
0.046
-0.056
-0.000
0.012
0.053
-0.007
-0.026
-0.043
0.043
-0.053
0.035
0.074
0.120
0.060
-0.047
-0.002
0.064
-0.032
-0.086
0.029
0.047
0.073
-0.051
-0.031
0.106
-0.017
0.000
0.065
-0.088
0.083
0.076
-0.004
0.016
0.010
-0.009
0.078
0.023
0.021
-0.005
0.035
0.067
0.073
-0.025
-0.019
-0.155
0.002
0.097
0.070
0.070
0.030
0.016
0.040
-0.021
0.011
0.097
-0.024
-0.036
-0.058
0.047
0.095
0.104
-0.038
0.010
0.000
0.070
0.030
-0.063
-0.008
0.041
0.043
0.017
0.058
0.076
0.048
-0.002
0.042
-0.003
0.048
0.085
0.066
-0.029
-0.062
0.029
0.010
-0.025
0.039
0.105
0.012
0.051
0.033
-0.014
-0.018
-0.022
0.026
-0.022
0.065
0.064
0.029
-0.025
0.002
0.098
-0.025
-0.027
-0.000
-0.079
-0.007
0.085
0.128
0.015
0.034
-0.049
-0.011
-0.060
0.076
-0.001
0.027
0.184
-0.045
-0.024
-0.003
0.023
-0.021
0.059
0.040
0.066
-0.048
-0.091
-0.048
0.108
0.097
0.073
-0.049
-0.007
0.069
0.024
-0.038
-0.010
-0.040
0.100
0.160
0.015
0.006
-0.044
0.030
0.040
0.039
-0.061
0.025
0.018
-0.029
0.151
-0.055
-0.057
-0.021
0.068
-0.021
0.075
0.005
-0.057
0.069
0.068
-0.010
0.044
-0.042
-0.053
0.071
-0.036
-0.019
0.047
0.015
-0.061
0.049
-0.030
0.090
-0.038
0.109
-0.016
0.005
0.014
0.026
0.038
0.087
-0.000
0.098
-0.084
0.010
-0.034
0.092
0.013
0.009
0.049
-0.057
0.033
0.010
0.119
0.023
0.085
-0.034
-0.089
0.024
0.019
-0.028
-0.016
0.066
0.031
0.007
-0.036
0.016
-0.001
0.090
0.001
0.022
-0.004
0.039
0.002
0.042
-0.048
-0.028
-0.002
0.000
0.056
-0.017
0.067
-0.039
0.044
0.049
-0.026
-0.012
0.094
0.054
0.009
-0.020
0.041
-0.016
-0.008
0.020
0.012
-0.004
0.018
-0.024
0.068
0.073
0.023
0.020
-0.006
0.125
0.060
-0.057
-0.027
-0.059
0.009
0.077
-0.039
0.041
0.079
0.041
-0.011
0.001
-0.057
-0.043
0.079
0.019
-0.086
0.020
0.049
0.005
0.014
0.134
0.068
-0.054
0.109
-0.023
0.011
0.014
0.083
0.064
-0.024
0.005
0.083
-0.034
0.005
0.027
-0.040
0.089
0.057
-0.103
0.063
-0.011
-0.070
0.137
0.130
0.016
-0.025
0.022
0.099
0.015
-0.019
0.014
-0.020
0.028
0.054
-0.050
0.151
-0.011
0.056
-0.101
0.005
-0.010
0.002
0.019
0.071
-0.106
-0.039
0.121
-0.051
0.135
0.086
-0.005
0.045
0.004
-0.071
0.010
0.135
-0.011
0.056
0.085
-0.043
0.014
0.025
-0.004
0.174
0.001
-0.038
-0.024
0.093
-0.002
-0.042
0.002
0.015
0.093
0.005
-0.077
0.079
-0.003
-0.004
0.011
-0.007
0.016
0.093
0.026
0.001
-0.020
-0.065
0.025
-0.031
-0.066
-0.010
0.153
0.081
0.071
-0.064
0.012
0.003
0.050
0.016
-0.021
-0.062
0.073
0.033
0.084
0.014
-0.007
0.020
0.046
0.016
-0.017
0.026
-0.013
0.005
0.056
0.044
0.042
0.012
0.069
0.023
-0.026
-0.009
0.035
0.046
0.081
-0.027
-0.078
-0.058
0.088
0.061
-0.024
-0.135
0.065
0.023
0.059
0.004
-0.068
0.037
0.008
0.033
0.074
0.034
-0.003
0.047
0.018
-0.016
0.036
0.047
-0.024
-0.035
0.058
0.057
0.031
0.047
0.010
0.048
0.058
-0.052
0.038
-0.114
0.010
0.050
0.046
0.000
0.128
-0.038
0.017
0.034
-0.056
0.070
-0.020
0.008
-0.021
0.060
-0.069
0.084
0.083
-0.060
0.013
0.041
-0.055
0.050
0.112
-0.114
0.060
0.011
0.028
0.032
0.043
0.044
-0.055
-0.073
0.099
0.087
-0.032
0.015
0.051
0.001
0.016
0.066
0.017
0.023
-0.006
-0.005
0.067
0.032
-0.035
-0.002
0.036
0.062
0.045
0.017
-0.025
0.083
0.071
-0.051
-0.067
-0.017
0.081
0.087
0.036
0.017
0.047
-0.027
-0.051
0.012
0.060
-0.049
0.093
0.066
-0.005
0.011
-0.005
0.110
-0.026
-0.025
-0.003
0.044
0.090
-0.032
-0.053
0.070
0.069
0.039
-0.034
0.052
0.047
0.130
-0.036
-0.040
0.035
0.058
0.004
0.020
0.073
0.050
0.127
0.017
-0.059
-0.027
0.016
0.008
0.011
0.042
0.028
0.033
-0.070
0.090
0.095
-0.053
-0.023
0.001
0.014
0.053
0.036
-0.055
0.019
0.079
-0.002
0.001
0.008
0.012
-0.062
0.061
0.048
0.047
0.046
0.028
0.008
-0.018
0.033
0.126
0.095
-0.107
-0.052
0.181
0.060
-0.034
-0.005
-0.008
0.009
0.044
-0.001
0.050
0.123
-0.004
0.041
-0.024
0.104
-0.026
-0.002
0.102
0.028
0.019
0.016
0.047
0.020
0.023
-0.029
0.014
0.034
0.049
0.074
0.086
-0.085
0.028
-0.069
0.070
0.093
0.023
0.019
0.015
0.042
0.038
0.057
0.070
0.217
-0.013
-0.015
-0.023
-0.067
-0.041
0.027
-0.011
-0.039
0.152
0.071
-0.041
-0.082
-0.003
0.040
0.022
0.053
0.119
0.033
0.022
0.031
0.007
0.023
-0.028
0.013
0.138
-0.018
0.076
-0.041
0.046
-0.003
-0.017
-0.008
0.031
0.057
0.101
-0.048
-0.084
-0.019
0.068
-0.042
-0.015
0.029
0.064
-0.018
0.021
-0.047
0.088
-0.075
0.045
0.040
-0.023
0.024
0.159
-0.109
0.036
-0.011
0.044
-0.061
0.142
0.028
0.067
-0.048
-0.018
0.020
0.073
-0.064
0.086
0.069
-0.000
0.020
0.016
-0.009
-0.070
0.010
0.101
-0.038
-0.027
-0.054
0.032
0.056
0.013
0.020
-0.112
-0.041
0.139
0.008
0.067
-0.035
0.034
0.125
0.071
-0.081
-0.061
0.039
0.037
0.068
0.009
0.021
-0.033
0.056
0.078
0.091
0.092
-0.029
0.018
0.022
0.176
-0.054
-0.022
-0.033
0.009
-0.075
0.070
-0.003
0.085
0.044
-0.059
-0.023
0.006
0.188
0.001
0.021
-0.035
-0.032
-0.046
0.033
0.044
0.089
0.134
0.015
-0.098
-0.075
-0.015
-0.025
0.062
0.010
0.075
0.043
-0.052
-0.135
0.098
0.050
0.034
0.033
0.013
-0.007
0.050
0.029
-0.009
0.029
-0.055
0.046
0.012
0.047
-0.036
0.031
0.028
0.033
0.020
0.014
-0.060
0.006
0.058
0.037
0.033
-0.013
-0.007
-0.049
0.025
0.028
0.096
-0.104
0.012
-0.040
0.077
0.086
-0.040
-0.012
-0.037
-0.027
0.077
0.104
0.056
0.053
-0.028
-0.020
-0.027
-0.029
0.106
0.053
0.055
0.042
-0.070
-0.042
0.034
0.003
0.057
-0.014
-0.067
0.122
-0.067
0.073
-0.028
0.021
0.064
-0.091
0.023
0.104
0.071
0.026
0.020
-0.065
0.070
0.038
0.009
-0.014
-0.005
-0.050
0.126
-0.019
0.028
0.097
-0.017
-0.069
0.019
-0.019
0.046
0.047
-0.049
0.044
0.115
0.004
0.049
0.035
-0.074
0.089
0.058
0.015
0.087
0.014
-0.038
-0.045
0.033
0.115
0.037
0.074
0.098
-0.056
0.012
-0.038
-0.005
0.098
-0.027
-0.008
0.040
0.052
-0.001
-0.027
-0.058
-0.029
0.082
0.021
0.015
0.018
-0.013
0.029
0.061
0.001
0.059
0.027
-0.014
0.030
0.099
0.059
-0.118
-0.021
0.130
0.042
0.032
0.036
0.085
0.082
0.017
-0.041
0.009
0.034
0.071
0.048
-0.003
-0.057
0.038
0.056
0.051
0.046
-0.015
-0.043
0.129
0.040
0.027
0.015
-0.002
0.074
-0.033
0.035
-0.037
0.036
0.002
0.013
0.129
-0.011
-0.009
-0.066
0.011
-0.138
0.115
0.027
0.077
-0.028
0.067
0.016
0.008
0.040
0.038
-0.083
0.016
0.058
0.083
0.016
-0.096
0.019
0.031
0.107
0.037
-0.031
0.027
-0.019
0.030
0.015
0.031
-0.044
-0.003
0.084
0.006
0.030
-0.001
-0.042
-0.051
0.058
0.041
0.000
-0.028
-0.108
0.084
0.116
0.085
0.077
-0.020
-0.127
0.074
0.024
0.058
0.020
0.052
-0.006
-0.051
0.040
0.018
-0.077
0.054
0.129
-0.026
0.019
0.079
-0.071
0.007
0.017
0.012
0.036
-0.007
-0.079
-0.003
0.118
0.060
-0.082
0.083
-0.052
0.026
0.038
0.074
0.060
0.024
-0.029
-0.024
0.000
0.077
-0.029
0.030
0.026
0.115
-0.067
0.004
0.010
0.004
0.087
-0.013
0.049
0.037
0.074
0.089
0.003
0.024
0.013
-0.047
0.018
0.116
0.018
0.019
-0.016
-0.061
0.049
0.067
0.024
0.022
0.023
0.011
-0.009
0.012
-0.013
0.079
0.022
-0.072
0.092
0.090
0.089
0.029
-0.032
0.005
0.059
-0.041
-0.032
-0.015
0.108
0.029
-0.138
-0.002
0.081
0.028
0.031
-0.018
0.007
-0.077
0.050
0.067
-0.026
0.047
-0.024
0.077
0.069
0.096
-0.020
-0.012
-0.018
0.039
0.021
0.038
-0.014
0.012
0.040
0.100
0.014
-0.101
-0.050
0.075
0.069
-0.021
0.097
0.007
-0.011
0.070
0.044
-0.009
0.090
-0.116
-0.135
0.087
0.047
0.061
0.045
0.032
-0.026
0.125
-0.013
0.037
0.034
-0.013
-0.021
0.019
-0.013
0.007
0.083
-0.019
0.004
0.035
-0.002
0.056
0.057
0.019
0.057
0.026
0.014
0.006
0.027
-0.040
-0.045
0.041
0.058
-0.008
-0.017
0.050
0.031
0.110
0.012
-0.008
-0.011
0.012
0.061
0.058
0.001
0.024
-0.055
0.035
0.015
-0.014
0.002
0.023
0.005
0.003
-0.009
0.078
0.102
-0.007
0.058
0.062
0.108
0.037
-0.012
-0.100
0.041
-0.007
0.137
0.062
-0.024
-0.022
0.016
0.012
0.045
-0.006
0.032
-0.060
0.012
0.127
-0.010
0.081
-0.148
0.027
0.045
0.008
-0.053
-0.038
-0.052
0.145
-0.008
0.027
-0.016
0.043
0.054
-0.035
0.131
0.018
-0.111
0.057
0.049
-0.010
0.059
-0.061
0.041
0.094
0.022
-0.022
-0.014
0.021
0.069
0.062
0.018
-0.028
0.032
-0.063
0.050
-0.005
0.046
0.036
0.018
-0.001
0.056
-0.038
-0.014
0.043
0.042
0.027
-0.053
-0.010
0.034
0.021
-0.003
0.069
0.028
-0.054
0.079
0.075
-0.016
-0.047
-0.011
0.081
0.078
-0.006
-0.030
0.040
0.064
0.047
-0.041
0.049
-0.010
0.046
0.030
-0.041
0.008
0.072
0.069
0.082
-0.032
0.012
0.002
-0.089
-0.020
0.050
-0.035
0.083
0.002
0.042
0.010
0.030
-0.003
0.092
0.005
0.080
0.097
-0.041
-0.079
0.129
0.138
0.004
-0.021
0.073
0.086
0.028
-0.033
0.000
0.051
-0.019
0.019
-0.010
0.121
0.081
0.006
-0.024
-0.007
0.011
-0.009
0.074
0.022
-0.005
0.005
0.070
0.013
-0.067
0.055
0.060
0.016
0.100
-0.074
0.018
0.032
0.119
0.035
0.005
0.068
0.070
0.034
0.043
0.058
-0.032
0.045
0.014
0.101
0.085
0.036
-0.001
0.067
-0.002
-0.075
0.009
-0.006
0.062
-0.006
0.060
0.020
-0.020
0.034
0.021
0.089
0.062
-0.070
-0.043
0.018
0.134
0.049
-0.009
-0.011
0.059
0.055
0.008
0.017
0.076
-0.128
0.131
0.039
-0.064
0.088
0.036
0.059
0.018
0.039
0.023
0.016
0.065
-0.006
-0.002
0.065
-0.043
-0.054
0.120
0.070
0.100
-0.051
-0.053
0.004
0.057
-0.027
0.037
0.099
-0.046
-0.027
-0.032
0.100
-0.032
0.054
0.010
0.017
0.085
-0.054
0.030
-0.025
0.053
0.008
0.075
0.072
0.047
-0.073
0.007
0.081
0.043
-0.099
0.013
-0.075
0.037
-0.035
0.047
0.073
0.052
0.053
0.085
0.028
-0.069
-0.006
-0.054
-0.018
0.080
0.035
0.108
0.047
-0.079
0.030
-0.014
0.022
0.059
0.012
0.011
-0.045
-0.009
0.057
0.088
-0.001
-0.063
0.085
-0.026
0.066
-0.052
0.011
0.034
0.002
-0.007
0.052
0.073
0.035
-0.053
-0.110
0.046
0.059
-0.036
0.079
0.059
-0.007
-0.027
-0.054
0.094
0.118
-0.010
0.014
0.038
0.124
0.028
-0.065
-0.021
-0.016
0.009
-0.006
-0.003
0.030
-0.028
-0.042
0.064
0.035
0.043
-0.002
-0.110
0.125
0.069
-0.049
0.039
0.064
-0.043
0.047
0.080
-0.001
0.054
0.054
0.040
-0.017
0.028
0.014
0.054
0.033
0.002
0.030
-0.048
-0.034
0.083
-0.008
-0.024
-0.002
0.084
-0.019
0.059
-0.007
-0.038
-0.028
0.022
0.077
0.002
-0.057
0.019
0.103
0.093
-0.034
0.146
-0.079
-0.031
0.027
0.060
-0.023
0.118
0.096
-0.049
0.043
-0.049
0.070
-0.007
0.045
0.008
0.041
-0.044
0.017
0.042
0.045
0.051
0.020
0.005
0.022
-0.017
0.025
0.058
-0.044
-0.041
0.006
0.099
0.122
-0.015
0.025
-0.010
0.013
0.028
-0.077
0.017
0.150
0.052
0.053
-0.004
-0.028
0.070
-0.068
0.069
0.013
-0.006
0.040
0.073
0.044
0.032
-0.066
0.048
-0.018
-0.061
-0.036
0.095
0.022
0.111
0.010
-0.041
0.081
0.150
-0.029
-0.056
0.037
-0.008
0.083
0.053
0.013
0.021
-0.044
-0.006
-0.003
-0.011
0.083
0.005
-0.007
0.079
0.051
0.050
-0.131
0.049
0.051
0.042
0.007
-0.069
0.037
0.098
0.057
0.000
0.032
0.009
-0.039
0.082
-0.003
0.026
0.004
-0.063
0.027
0.042
-0.015
0.011
0.086
0.078
-0.000
-0.034
0.004
0.050
0.077
-0.056
0.032
0.078
-0.002
-0.003
0.028
0.144
0.030
-0.085
-0.005
0.030
0.155
-0.026
0.083
-0.037
-0.015
0.014
0.075
0.004
-0.020
-0.045
-0.016
0.060
0.064
-0.002
-0.013
-0.024
0.068
0.006
-0.043
0.016
-0.047
-0.041
0.110
0.048
0.015
0.154
0.002
0.040
0.029
-0.019
0.069
-0.018
0.049
0.004
-0.004
-0.024
0.078
0.142
0.040
-0.107
-0.053
0.013
0.078
0.061
0.004
-0.017
0.046
0.023
-0.010
0.111
0.010
0.026
0.055
-0.040
0.016
0.037
-0.118
0.106
0.003
0.015
-0.011
-0.027
0.052
-0.054
0.030
0.089
0.089
-0.061
-0.037
-0.013
0.002
0.079
0.043
-0.024
-0.038
-0.040
0.040
0.041
-0.025
0.019
0.067
-0.055
0.077
0.083
-0.035
0.057
0.041
0.079
-0.011
0.022
-0.033
-0.052
0.072
0.087
-0.076
0.069
0.023
0.020
0.006
0.020
-0.030
0.009
-0.005
0.061
-0.060
-0.043
-0.004
0.104
0.001
-0.005
-0.006
-0.057
0.142
0.059
0.014
-0.035
0.085
0.035
0.019
-0.006
-0.004
0.136
0.065
0.064
-0.046
-0.006
0.013
0.053
-0.018
0.057
-0.057
0.055
0.030
0.063
0.012
0.018
-0.030
0.026
0.100
-0.023
0.032
-0.020
-0.003
-0.026
-0.013
0.024
0.040
0.037
0.075
0.033
0.141
0.031
0.034
0.023
0.046
0.042
-0.013
-0.054
-0.041
0.089
0.023
0.047
-0.047
0.065
0.067
-0.022
0.003
0.104
-0.028
0.058
-0.044
0.005
0.071
0.025
0.035
0.005
0.103
-0.035
0.098
-0.077
0.082
0.010
0.099
-0.039
-0.039
-0.027
0.085
0.012
0.050
-0.010
-0.058
-0.100
0.011
0.070
0.094
0.100
-0.011
0.043
0.034
0.001
-0.074
0.013
0.051
0.013
0.092
0.015
0.067
0.023
-0.059
0.106
-0.008
-0.005
0.025
0.007
0.006
0.109
-0.095
0.039
-0.048
-0.079
0.047
0.029
-0.142
0.005
0.020
0.101
0.017
0.085
-0.004
0.060
0.093
0.062
0.010
0.039
-0.024
-0.015
-0.024
0.114
0.170
-0.045
-0.024
-0.024
0.021
-0.028
-0.012
0.112
-0.041
0.000
0.037
-0.013
-0.007
0.087
0.044
0.016
-0.009
0.017
-0.052
0.017
0.029
0.023
0.031
-0.001
0.039
0.102
-0.001
-0.062
0.051
-0.020
-0.009
0.041
0.078
0.073
-0.046
-0.048
0.077
0.072
0.055
-0.083
0.028
0.024
0.017
0.023
0.055
0.117
-0.071
0.028
-0.041
0.061
0.051
-0.079
0.001
0.045
0.078
0.036
-0.011
-0.037
0.121
-0.039
0.017
-0.039
0.105
-0.017
-0.059
-0.010
0.020
-0.020
-0.025
-0.085
0.058
0.009
0.062
0.028
0.133
0.019
-0.022
0.035
0.030
0.065
-0.011
0.031
-0.049
0.116
-0.085
0.057
-0.040
0.014
0.034
0.073
0.021
-0.066
-0.068
0.072
0.082
0.082
0.003
-0.047
0.060
0.048
-0.029
0.040
0.022
-0.047
0.054
0.007
0.017
0.023
0.046
0.068
0.011
0.049
-0.014
-0.000
-0.002
-0.068
-0.043
0.004
0.049
0.069
0.019
0.019
0.134
-0.080
0.036
0.022
0.044
0.009
0.045
-0.082
0.032
0.038
0.095
0.003
0.022
0.059
0.049
-0.082
0.051
0.009
0.089
-0.059
0.098
-0.059
-0.010
-0.068
0.127
0.022
0.070
0.039
0.059
-0.007
-0.060
-0.003
0.015
0.059
0.042
-0.010
-0.026
-0.019
0.108
0.019
-0.036
0.001
-0.035
0.038
0.093
0.024
0.089
-0.044
0.057
-0.035
-0.015
0.059
0.026
0.035
0.020
0.013
0.017
-0.036
-0.031
0.079
0.020
0.013
-0.018
-0.081
0.019
0.054
0.065
-0.004
0.001
0.036
-0.029
0.107
0.034
0.026
-0.030
-0.042
0.033
0.032
0.072
0.193
-0.037
-0.006
0.016
0.003
0.009
0.070
0.035
0.046
-0.007
0.047
-0.014
0.017
-0.004
0.060
-0.033
0.006
0.067
0.008
0.037
0.079
-0.005
-0.023
-0.019
0.069
0.007
-0.010
0.074
-0.028
-0.013
0.050
0.048
0.045
0.022
-0.013
-0.067
0.009
-0.006
0.025
0.042
0.072
0.000
-0.017
0.097
0.131
-0.015
0.034
0.091
0.082
0.054
-0.029
0.082
0.031
0.020
0.045
-0.044
-0.046
0.005
0.011
0.034
-0.012
0.102
-0.039
-0.085
-0.004
0.090
0.041
0.061
-0.063
-0.003
0.078
-0.023
0.025
0.005
0.066
0.069
0.020
0.006
-0.038
-0.014
0.092
-0.002
0.104
-0.093
0.022
-0.018
-0.012
0.096
-0.035
-0.053
-0.001
-0.060
0.172
-0.033
-0.062
0.019
0.028
-0.030
0.082
-0.050
0.076
-0.035
0.064
-0.040
0.062
0.046
-0.027
-0.035
0.013
0.052
0.044
0.008
-0.075
0.077
0.004
-0.083
-0.037
0.070
0.112
0.003
0.002
-0.023
0.027
-0.035
0.115
0.016
-0.035
-0.044
-0.030
-0.031
-0.008
0.098
0.048
-0.027
0.040
0.016
0.106
0.043
-0.120
-0.080
0.015
0.148
-0.039
-0.008
0.006
-0.054
0.055
-0.080
0.084
0.045
0.078
0.018
0.061
-0.061
-0.056
-0.020
0.047
0.025
0.050
0.050
-0.047
-0.007
0.070
0.064
-0.077
0.086
-0.024
0.021
-0.006
-0.018
-0.003
0.071
-0.004
0.010
-0.017
0.013
0.033
0.039
0.058
0.014
0.038
0.006
0.087
0.045
0.052
-0.032
-0.035
0.049
0.008
0.024
0.069
0.042
0.030
0.060
0.063
0.021
-0.039
0.038
0.041
0.010
-0.014
-0.033
-0.019
-0.005
-0.029
0.104
0.043
0.015
-0.003
0.027
0.069
0.099
0.092
-0.032
0.065
-0.022
-0.111
0.010
0.095
0.008
0.024
0.040
0.051
0.039
0.084
-0.018
-0.057
0.100
0.018
-0.024
0.146
0.073
-0.034
0.084
-0.062
-0.000
-0.041
0.054
0.103
0.061
-0.073
0.003
0.038
0.014
0.004
0.050
0.054
-0.006
0.033
0.040
0.010
-0.066
0.003
0.007
0.036
0.030
-0.004
0.096
0.145
-0.016
-0.013
-0.056
-0.044
0.091
0.066
0.056
-0.037
-0.015
0.076
0.027
0.064
-0.039
0.019
0.030
-0.041
-0.029
-0.017
0.055
0.001
0.062
0.093
0.037
-0.067
-0.041
0.041
0.025
0.042
-0.007
-0.053
0.009
0.054
0.051
0.069
-0.070
0.004
0.008
-0.040
0.006
0.068
0.096
-0.049
0.035
0.033
0.063
-0.022
0.023
0.030
0.094
0.072
-0.076
0.105
-0.039
0.087
0.008
-0.042
-0.077
0.018
0.170
-0.014
-0.006
0.106
-0.063
-0.057
0.061
0.092
0.002
0.055
-0.014
0.088
0.014
0.032
-0.100
0.152
-0.001
0.041
0.053
0.027
-0.055
0.005
0.093
-0.035
0.024
-0.016
0.022
0.043
0.125
0.024
-0.004
0.013
0.111
0.065
0.094
-0.010
0.049
-0.030
0.097
-0.013
0.028
0.087
-0.041
0.024
0.009
0.025
0.099
0.054
-0.053
-0.037
-0.039
-0.011
0.022
0.007
-0.019
0.077
-0.085
-0.001
0.128
-0.050
0.041
0.037
0.003
-0.024
0.049
0.152
0.007
0.006
0.003
-0.011
-0.014
0.141
-0.034
-0.043
-0.058
-0.057
0.097
0.162
-0.010
-0.026
-0.080
-0.001
0.076
-0.013
0.018
0.054
0.079
-0.047
-0.018
0.050
-0.047
-0.035
-0.027
-0.022
0.016
-0.003
0.063
-0.038
0.082
-0.043
0.051
0.035
-0.039
-0.013
0.013
0.024
-0.020
0.071
0.026
0.022
-0.033
0.057
0.039
0.049
0.109
0.012
-0.107
0.037
0.031
0.032
-0.030
0.034
-0.032
-0.007
-0.034
0.037
0.057
-0.048
-0.050
0.021
0.040
0.023
0.038
0.015
0.007
-0.033
0.018
0.042
0.053
0.063
0.018
0.026
0.067
-0.043
0.050
0.028
0.058
-0.023
-0.006
0.013
0.025
0.046
-0.073
0.060
0.010
0.008
-0.030
0.104
0.030
-0.110
0.046
-0.003
0.113
-0.041
0.085
0.035
0.045
0.008
0.007
0.115
0.006
0.024
0.048
-0.026
0.030
0.003
-0.036
0.002
-0.051
0.147
-0.029
0.075
0.012
0.026
-0.054
0.000
-0.053
0.042
0.089
0.013
-0.002
0.025
-0.066
-0.113
0.009
0.043
0.032
0.077
0.014
-0.029
0.075
0.031
0.054
0.084
-0.051
0.000
-0.016
-0.043
0.122
0.067
0.005
0.047
0.022
0.017
0.015
-0.004
0.002
0.061
-0.045
-0.012
0.028
0.043
0.036
0.033
0.021
0.106
-0.103
0.066
0.043
0.020
0.015
0.014
-0.039
0.065
0.040
0.047
-0.003
-0.057
0.060
-0.003
0.015
0.024
-0.060
0.127
-0.015
0.051
0.046
-0.052
-0.038
0.061
0.054
-0.002
0.032
-0.032
-0.023
0.106
0.066
0.049
-0.069
-0.024
-0.034
0.103
-0.014
-0.067
0.019
0.021
0.014
-0.022
0.080
0.075
0.122
0.073
-0.042
-0.040
-0.035
0.090
0.056
-0.032
-0.043
0.008
0.039
0.043
0.057
-0.093
-0.044
0.039
0.045
0.006
0.021
0.048
-0.127
0.066
-0.005
-0.012
0.005
0.056
0.029
-0.041
0.005
-0.005
0.073
0.054
-0.020
0.039
0.046
0.024
0.023
-0.014
0.044
0.025
0.071
0.046
-0.088
-0.036
0.005
-0.014
-0.008
0.017
0.050
0.103
0.026
-0.135
-0.070
0.056
0.078
0.036
-0.011
0.042
-0.090
0.051
-0.011
0.004
0.064
-0.049
-0.005
-0.033
0.115
-0.043
0.085
0.026
-0.065
0.028
0.064
0.038
0.005
-0.020
0.045
0.045
0.078
0.074
-0.083
0.073
0.077
-0.017
-0.049
0.040
0.123
0.026
0.009
0.048
0.044
0.004
-0.074
0.026
0.065
0.009
0.059
-0.007
0.029
0.044
0.023
-0.046
-0.062
-0.075
0.043
-0.043
-0.003
0.001
0.092
0.069
0.044
-0.029
0.056
0.038
0.071
-0.065
0.072
-0.057
0.107
-0.036
0.071
0.094
-0.054
0.068
-0.035
0.028
0.065
0.065
-0.008
-0.013
-0.024
0.157
0.028
0.034
0.007
-0.031
0.010
-0.024
0.032
0.011
0.047
0.059
0.028
0.022
0.072
-0.022
-0.004
0.049
0.079
0.030
0.026
0.003
-0.032
-0.023
0.152
0.019
-0.049
-0.006
0.120
0.007
-0.058
0.071
-0.025
-0.008
0.036
-0.069
0.007
0.086
-0.058
0.065
-0.054
0.053
-0.002
0.017
0.063
0.011
0.045
0.069
0.043
-0.079
0.041
0.046
0.058
0.086
0.120
0.123
-0.080
0.015
-0.007
0.055
-0.021
-0.021
0.009
0.014
0.034
0.045
-0.031
-0.043
0.050
0.011
0.034
0.056
-0.016
-0.012
-0.034
0.051
0.009
0.014
0.093
-0.025
-0.076
-0.029
0.123
0.160
-0.040
-0.144
-0.006
0.093
0.036
0.055
-0.066
0.067
0.006
0.043
0.083
0.069
-0.071
0.034
0.043
-0.038
-0.033
0.014
-0.085
0.109
0.016
0.042
0.092
0.021
-0.017
-0.110
-0.028
0.028
0.049
0.012
-0.040
0.069
0.038
0.037
-0.092
-0.015
-0.046
0.040
0.049
0.038
-0.037
0.096
-0.052
-0.017
0.007
-0.008
0.011
0.099
-0.022
0.000
0.020
-0.005
-0.018
-0.015
-0.021
0.064
0.101
0.114
-0.005
-0.042
-0.001
0.015
0.102
-0.071
0.002
0.065
0.026
0.035
-0.031
0.016
0.017
0.035
0.022
0.070
-0.093
0.056
0.010
-0.077
0.039
-0.006
-0.016
-0.073
0.085
0.081
-0.027
0.057
-0.075
0.035
0.079
-0.079
0.073
0.023
0.012
-0.016
0.060
-0.015
0.033
0.049
0.065
0.036
-0.024
0.020
0.083
-0.051
0.044
0.099
0.035
-0.023
0.002
0.086
0.023
-0.075
0.033
-0.042
0.037
0.012
0.016
0.060
-0.071
0.052
0.028
0.047
-0.081
0.052
0.007
0.033
0.062
0.017
0.031
0.061
0.087
0.048
-0.060
-0.039
-0.017
0.075
0.053
0.033
0.026
0.020
0.050
-0.043
0.060
0.023
-0.034
0.064
0.023
0.101
-0.013
0.009
0.065
-0.004
-0.088
0.043
-0.028
0.066
0.061
-0.007
0.057
0.072
-0.038
0.007
0.024
0.052
0.007
-0.102
0.069
0.085
0.045
0.022
-0.012
-0.016
0.026
-0.015
0.030
-0.021
-0.000
0.024
0.060
0.006
0.106
0.016
0.081
0.021
0.016
-0.039
-0.048
0.028
-0.030
0.083
0.159
0.080
-0.040
-0.022
-0.079
0.029
0.054
-0.009
-0.044
0.129
0.099
-0.028
-0.073
0.054
0.031
0.027
-0.104
0.067
0.069
0.001
-0.003
0.030
-0.005
0.001
0.074
0.009
0.042
0.043
-0.071
-0.047
-0.001
0.026
0.000
0.064
0.024
0.037
-0.010
-0.029
0.038
-0.035
-0.014
-0.085
0.014
0.029
0.048
0.065
-0.026
-0.042
0.001
0.071
-0.039
0.079
-0.025
-0.072
0.023
-0.021
0.080
0.036
-0.014
0.093
0.038
-0.019
-0.035
0.017
-0.003
-0.021
0.017
0.135
-0.047
-0.006
0.018
0.006
0.073
0.052
0.031
-0.095
-0.000
0.010
-0.035
0.107
-0.031
0.007
0.039
0.045
-0.072
-0.082
0.029
0.108
-0.052
0.051
0.108
0.096
-0.036
-0.043
0.070
-0.059
-0.042
-0.018
-0.009
0.050
0.007
0.041
-0.018
0.037
-0.021
0.069
0.003
-0.011
0.048
-0.036
0.100
0.024
0.016
0.023
0.007
-0.079
0.053
0.077
0.094
0.007
0.005
-0.036
0.009
0.010
0.077
0.029
0.051
-0.043
0.048
0.065
0.026
0.105
0.015
0.053
-0.107
-0.043
-0.013
0.139
0.015
0.057
-0.020
0.079
0.018
-0.059
0.003
0.010
-0.002
0.054
0.016
0.078
-0.018
-0.011
0.082
0.033
0.044
0.024
0.055
-0.034
0.062
0.001
0.004
-0.037
0.081
0.076
0.025
0.014
-0.032
-0.002
-0.028
0.100
-0.032
0.057
-0.033
0.050
0.005
-0.071
0.035
-0.050
0.118
0.027
0.025
0.018
0.051
0.042
0.062
0.077
-0.034
-0.076
0.014
0.195
-0.038
0.062
0.013
-0.015
0.048
0.011
0.052
0.074
0.063
-0.063
-0.052
0.008
0.042
0.061
0.008
-0.076
0.096
0.015
0.026
0.028
-0.021
-0.002
-0.004
0.013
0.014
-0.054
0.058
0.057
0.013
-0.011
0.043
0.022
-0.000
-0.029
0.061
-0.056
0.040
-0.034
-0.006
0.070
0.009
-0.055
0.144
0.002
0.002
-0.054
0.052
-0.022
0.072
-0.034
0.024
0.086
-0.066
-0.024
0.097
0.095
0.006
0.056
-0.042
0.082
0.026
0.027
0.022
0.025
0.142
-0.055
0.044
-0.018
-0.038
-0.050
0.041
-0.061
0.015
0.076
-0.032
0.043
0.021
-0.015
0.104
0.101
0.002
0.002
0.071
-0.035
-0.021
0.045
0.005
0.064
0.035
0.160
-0.071
-0.044
0.068
-0.000
0.039
0.076
0.054
-0.064
0.018
0.007
0.072
-0.019
-0.035
0.004
0.017
0.103
0.062
0.123
-0.036
-0.097
0.072
-0.043
0.022
0.008
0.037
-0.019
0.060
0.003
-0.014
0.120
0.055
-0.122
-0.023
0.084
0.047
0.065
0.070
0.091
0.014
0.105
-0.029
-0.057
-0.007
0.020
0.035
0.022
-0.028
-0.022
0.112
0.026
0.017
-0.071
0.038
0.043
-0.039
0.034
0.024
0.096
0.034
-0.043
-0.062
0.010
0.087
0.028
-0.022
-0.017
0.091
0.013
-0.103
0.080
0.036
-0.076
0.064
0.014
0.043
0.052
-0.046
-0.082
0.020
0.064
0.070
0.069
0.104
0.011
-0.121
-0.004
0.005
0.082
0.001
0.011
0.028
-0.024
-0.018
0.014
0.073
0.025
-0.122
0.014
-0.014
0.129
0.013
0.007
-0.047
0.046
0.118
0.066
-0.082
-0.029
-0.026
0.098
0.113
0.100
-0.029
-0.016
0.020
0.118
0.007
0.069
-0.072
-0.082
0.133
0.037
-0.005
0.024
-0.067
0.063
0.042
0.028
-0.045
-0.067
0.111
0.024
0.031
0.002
0.070
-0.066
0.043
0.042
-0.026
0.046
0.010
-0.039
0.047
-0.015
0.042
-0.042
0.033
0.051
-0.030
0.044
-0.057
-0.061
0.023
0.033
0.064
0.029
0.050
0.000
0.101
-0.080
0.004
0.101
0.013
0.009
0.041
0.001
0.039
0.111
0.000
0.039
-0.029
-0.054
-0.002
0.015
0.028
0.025
0.100
0.059
-0.150
0.062
-0.111
0.031
0.068
0.051
-0.024
0.034
0.065
0.012
-0.032
0.016
-0.005
0.100
0.000
-0.077
0.022
0.034
0.014
0.030
0.054
-0.047
0.020
-0.065
-0.036
0.004
0.034
0.081
0.051
-0.037
-0.001
-0.039
0.106
0.001
0.002
0.024
0.037
0.002
-0.098
0.065
0.133
0.013
-0.011
0.011
-0.000
0.114
0.086
-0.010
-0.056
-0.025
-0.014
-0.012
0.093
0.057
0.021
0.047
-0.044
0.020
0.033
0.112
0.054
-0.038
-0.016
0.019
-0.024
-0.043
-0.057
0.062
0.056
0.087
0.001
-0.037
-0.010
0.006
0.035
0.040
0.080
-0.002
0.026
0.050
0.068
-0.048
0.007
0.079
0.002
0.066
0.069
0.047
-0.083
-0.041
0.064
0.023
0.071
-0.101
-0.014
0.017
0.082
0.002
0.070
0.089
-0.075
0.035
-0.048
0.015
0.168
0.012
-0.088
-0.056
-0.023
-0.022
0.116
0.042
0.067
-0.025
-0.010
0.112
0.033
-0.034
-0.042
-0.029
0.066
0.105
-0.004
-0.019
-0.016
0.034
0.069
0.039
0.009
0.075
-0.010
-0.010
0.093
0.046
-0.063
-0.026
0.086
0.021
-0.056
0.031
0.019
-0.050
0.056
0.072
-0.019
0.029
-0.042
-0.025
0.048
-0.011
0.027
-0.004
-0.026
-0.012
0.003
0.128
-0.054
0.014
0.046
0.052
0.008
0.013
-0.006
-0.018
0.021
0.079
-0.009
-0.047
-0.004
0.028
0.018
0.030
-0.011
0.024
-0.010
0.061
0.036
0.077
0.009
0.121
0.062
-0.013
-0.021
-0.009
-0.031
0.061
0.054
0.074
0.021
-0.012
-0.017
-0.045
0.062
0.038
0.009
0.005
0.006
-0.008
-0.038
0.005
0.012
0.068
0.035
-0.006
0.059
0.003
-0.022
-0.040
-0.021
0.058
0.046
0.067
0.029
0.032
-0.010
0.045
0.062
0.052
0.075
-0.035
0.017
0.007
0.035
0.029
0.042
0.078
0.019
0.055
-0.087
-0.106
0.106
0.063
0.074
0.072
-0.013
-0.010
0.008
0.026
-0.092
0.044
0.120
-0.063
0.045
0.051
0.042
-0.050
0.027
0.009
0.006
0.102
0.096
-0.137
0.098
0.128
0.018
0.007
-0.008
0.065
0.003
-0.035
-0.037
0.021
0.083
0.050
-0.048
-0.011
0.039
-0.031
0.050
0.096
0.054
0.018
0.025
-0.041
0.030
0.051
0.056
-0.062
0.079
0.034
-0.043
0.039
-0.018
0.031
0.017
-0.030
-0.022
0.051
0.001
0.056
0.128
-0.012
0.109
0.130
-0.103
-0.048
0.043
-0.014
0.069
-0.019
-0.032
0.043
0.074
-0.028
-0.015
0.077
0.000
0.007
-0.029
0.079
-0.007
0.089
-0.062
0.062
-0.052
-0.017
0.058
-0.111
0.025
0.088
-0.065
0.040
0.005
0.073
0.045
0.042
0.100
0.030
0.039
0.004
-0.079
0.130
0.061
-0.035
-0.060
0.056
0.001
0.006
0.019
-0.070
0.046
-0.046
0.045
0.033
0.013
0.017
0.012
-0.017
-0.088
0.127
0.099
-0.100
0.030
0.029
0.067
0.004
0.054
-0.013
-0.056
0.050
0.064
-0.013
-0.010
0.036
0.009
0.032
0.086
-0.055
-0.023
0.066
0.026
0.051
-0.039
0.029
-0.008
0.140
-0.042
-0.011
0.014
0.045
0.010
0.034
0.003
-0.008
0.023
0.007
0.052
0.066
-0.034
-0.041
0.011
0.018
0.092
-0.027
0.060
0.008
0.006
0.028
0.013
-0.029
-0.043
0.027
0.076
0.093
0.022
0.085
-0.007
0.046
0.090
-0.032
0.019
0.112
-0.098
0.012
0.032
0.017
0.024
0.057
-0.017
0.115
0.093
0.015
0.019
-0.059
0.032
0.003
-0.005
0.065
-0.012
0.057
0.063
-0.013
0.034
-0.010
-0.054
0.112
0.017
0.045
-0.024
0.021
0.078
-0.090
0.052
0.034
0.124
-0.042
0.063
0.012
-0.050
-0.022
0.037
0.041
-0.019
0.094
-0.006
-0.035
-0.005
0.081
0.023
-0.079
0.047
0.071
0.001
-0.020
-0.043
-0.002
0.031
0.075
0.044
0.065
0.007
0.016
0.010
0.021
-0.014
-0.040
0.008
0.125
0.016
-0.025
0.013
0.087
0.080
-0.011
0.020
0.025
-0.070
0.130
-0.057
-0.037
0.019
0.080
-0.026
-0.048
-0.018
-0.018
0.035
0.052
0.028
0.043
0.007
0.036
0.008
-0.014
-0.007
-0.039
-0.007
0.051
-0.041
0.054
0.039
-0.045
0.058
0.017
-0.001
-0.015
0.024
0.156
0.007
0.063
-0.062
-0.059
0.059
0.128
0.077
-0.071
-0.034
0.006
0.044
0.070
0.056
0.093
-0.012
-0.045
0.039
0.021
-0.056
0.040
-0.001
0.145
0.117
0.004
-0.027
0.041
-0.006
-0.024
0.090
0.020
-0.018
0.095
-0.032
-0.016
0.078
0.085
-0.092
-0.073
0.042
0.006
0.014
0.054
-0.066
0.068
0.087
-0.028
0.028
-0.016
0.014
-0.044
0.014
0.013
0.050
0.035
0.006
-0.000
0.024
-0.009
-0.028
-0.047
0.045
0.087
0.050
0.022
0.026
0.096
-0.086
0.015
0.075
0.007
0.015
0.021
0.027
-0.006
0.013
0.025
-0.011
-0.021
-0.082
0.044
-0.014
0.023
-0.010
0.065
0.005
0.041
0.112
0.027
0.015
0.067
-0.132
0.037
-0.008
-0.045
0.034
0.045
0.092
0.012
0.005
0.027
0.015
-0.053
0.006
-0.083
0.028
0.055
-0.023
0.052
0.067
0.006
0.082
-0.019
-0.054
0.088
0.095
-0.067
0.024
-0.005
-0.008
-0.053
0.011
0.044
0.015
0.083
-0.029
0.082
-0.061
0.016
-0.037
-0.058
0.078
0.029
0.018
0.100
0.032
0.019
-0.064
0.008
0.054
0.109
0.024
-0.041
0.017
-0.012
0.067
-0.081
-0.033
0.062
0.044
0.085
-0.023
0.024
0.147
-0.055
-0.004
-0.070
0.126
-0.012
-0.052
0.008
-0.011
0.083
0.038
-0.010
-0.068
0.045
-0.059
0.004
0.011
0.076
-0.017
-0.015
-0.102
0.050
0.032
0.006
-0.042
0.135
-0.040
0.036
0.054
0.001
0.072
0.033
0.028
-0.057
-0.057
0.086
0.033
0.046
-0.024
-0.015
0.076
0.051
0.045
-0.113
0.042
0.030
-0.152
0.110
0.124
-0.026
-0.041
-0.036
-0.009
-0.056
0.052
0.077
0.007
-0.079
0.042
0.207
-0.040
-0.046
0.042
0.019
0.028
-0.038
0.051
0.071
-0.059
0.048
0.031
0.033
0.081
0.010
0.065
0.060
-0.013
-0.130
-0.005
0.069
0.107
-0.005
-0.072
-0.016
-0.002
0.112
0.113
-0.016
-0.057
-0.024
0.055
-0.059
0.116
0.074
-0.046
0.058
0.041
0.063
-0.060
0.057
0.070
0.046
0.032
0.064
-0.019
0.072
-0.003
-0.042
-0.041
0.064
0.053
-0.008
-0.117
0.089
0.058
0.139
-0.012
-0.003
-0.003
0.017
-0.057
0.089
0.046
-0.009
0.018
-0.035
0.063
0.010
0.017
-0.017
-0.002
0.083
-0.005
-0.013
-0.008
0.086
0.133
0.091
-0.025
-0.090
-0.010
0.060
0.074
-0.032
0.036
-0.001
0.055
-0.119
0.055
-0.000
0.119
0.046
0.067
-0.002
0.028
-0.021
-0.065
0.075
0.094
0.144
0.023
-0.046
0.139
0.006
-0.071
0.046
-0.043
0.037
-0.035
0.005
-0.021
0.017
0.178
0.023
-0.057
-0.001
0.046
-0.019
-0.010
0.023
-0.066
0.003
0.016
0.018
-0.001
0.036
-0.041
0.095
-0.023
-0.001
0.091
0.040
-0.007
0.025
-0.030
-0.049
0.094
0.039
0.018
0.101
0.049
-0.063
0.001
-0.015
0.032
0.042
-0.007
-0.027
0.002
0.097
0.008
0.011
0.025
0.054
0.009
-0.048
0.032
0.051
0.019
0.032
0.009
0.115
-0.001
0.025
-0.043
-0.034
0.042
0.005
-0.035
0.035
0.038
-0.028
0.036
0.071
-0.031
0.031
0.096
0.017
-0.053
-0.064
-0.011
0.119
0.066
-0.013
0.035
-0.034
-0.074
0.022
0.048
0.071
-0.067
-0.009
0.014
-0.025
-0.013
0.047
-0.023
0.138
-0.003
-0.022
0.033
0.079
-0.057
0.056
0.110
0.043
0.056
-0.038
0.011
0.057
0.047
0.012
-0.023
0.051
0.067
-0.069
0.060
-0.023
0.028
0.029
-0.035
0.061
0.111
0.014
0.014
-0.024
-0.023
-0.035
0.085
0.059
0.133
0.034
-0.115
0.141
0.039
-0.019
-0.026
0.058
0.106
-0.016
-0.037
-0.047
0.030
0.012
0.054
0.067
-0.045
0.035
0.091
0.004
-0.013
0.066
0.029
0.010
0.012
-0.058
-0.004
0.085
0.084
0.020
-0.017
-0.024
0.025
-0.025
0.021
0.029
0.135
0.050
-0.040
0.005
-0.014
0.084
0.096
-0.016
0.068
-0.030
-0.064
0.077
0.019
0.057
-0.017
-0.024
-0.006
0.098
-0.041
0.141
0.001
0.058
-0.141
0.038
0.085
0.077
0.010
0.010
0.013
-0.082
0.114
-0.043
0.037
0.052
0.083
-0.032
-0.080
0.027
-0.006
0.075
-0.022
-0.020
0.067
0.096
0.032
-0.058
-0.005
-0.041
0.044
0.014
0.101
-0.048
0.073
-0.043
-0.059
-0.017
0.019
0.028
0.040
0.038
0.041
-0.062
0.022
-0.004
0.064
0.040
-0.015
0.075
0.009
-0.031
0.015
-0.019
0.138
-0.014
0.014
0.017
0.051
0.029
0.009
0.112
-0.042
-0.082
-0.023
0.096
0.037
0.018
-0.007
-0.031
-0.067
-0.033
0.081
0.067
-0.027
0.026
0.089
0.028
0.041
-0.048
-0.016
-0.019
0.028
0.085
0.087
0.037
-0.009
-0.004
-0.022
0.081
0.061
0.015
-0.027
0.074
0.003
0.002
0.040
0.114
-0.031
0.040
-0.017
0.020
0.001
0.041
0.019
0.099
0.055
-0.109
0.066
0.072
-0.071
0.022
-0.002
0.050
0.075
-0.019
-0.047
0.056
0.036
-0.007
-0.031
0.066
0.051
0.073
0.017
-0.024
0.037
0.048
0.127
0.001
-0.099
-0.009
0.052
0.110
-0.014
-0.033
-0.001
0.074
0.154
0.014
-0.056
-0.021
0.007
0.024
0.005
0.092
0.127
0.016
0.020
-0.094
0.090
0.057
0.041
-0.060
-0.072
0.002
0.049
0.067
0.045
0.064
-0.022
-0.057
-0.006
0.009
-0.008
0.064
0.041
0.095
0.045
-0.023
0.007
0.001
0.081
0.008
-0.094
0.032
0.056
0.075
0.066
-0.074
0.014
-0.104
0.000
0.086
0.031
0.008
0.034
0.048
-0.033
0.030
0.003
-0.057
0.046
0.031
0.037
-0.012
0.039
0.002
-0.037
-0.010
0.063
-0.020
0.041
0.006
0.050
-0.008
0.004
-0.026
0.069
0.034
0.058
0.038
0.030
-0.023
0.070
0.062
-0.053
0.032
-0.015
0.022
0.014
-0.018
0.068
0.009
0.106
-0.039
-0.026
-0.051
0.038
-0.008
0.048
0.109
0.049
-0.013
0.041
-0.043
0.071
-0.006
0.034
0.062
-0.010
0.037
-0.119
0.033
0.016
0.049
-0.089
0.011
0.004
0.026
-0.012
0.026
0.029
0.029
0.088
0.036
-0.011
-0.038
0.128
0.011
-0.024
0.016
0.091
0.058
-0.050
0.019
-0.091
-0.017
0.040
0.134
0.000
-0.020
0.043
0.013
0.049
0.154
-0.099
0.081
0.013
0.017
-0.058
0.100
-0.010
0.002
0.088
0.029
0.036
-0.022
-0.021
-0.062
0.022
-0.092
0.118
0.053
0.039
0.006
-0.023
0.088
0.036
0.025
0.059
-0.061
0.056
0.003
0.007
-0.012
0.064
0.044
-0.002
0.009
0.040
0.039
0.023
0.078
-0.006
0.061
-0.034
-0.027
0.064
0.051
0.001
0.018
0.040
-0.003
-0.032
0.011
0.048
0.028
0.110
0.022
0.079
0.075
-0.060
0.038
-0.063
0.028
0.027
0.121
-0.041
0.013
0.080
-0.002
-0.028
0.058
0.117
-0.121
0.040
-0.026
0.091
-0.022
0.027
0.067
0.027
0.000
0.035
0.067
-0.017
0.066
-0.006
0.025
-0.055
0.016
0.064
0.083
0.017
-0.085
0.030
-0.035
-0.019
0.103
0.037
0.107
0.013
-0.103
0.050
0.007
-0.020
0.041
-0.015
0.039
0.029
0.108
0.015
-0.092
0.097
0.022
0.066
-0.002
-0.053
0.092
0.033
0.011
0.022
-0.005
-0.067
0.129
-0.016
-0.077
0.058
-0.011
-0.007
0.154
-0.025
-0.049
-0.015
0.065
-0.032
0.030
0.052
0.068
0.037
-0.063
-0.046
0.031
-0.009
0.012
0.126
0.119
-0.066
0.057
-0.031
-0.028
0.159
0.020
-0.043
0.002
-0.066
0.057
0.021
-0.028
-0.010
0.048
0.053
0.069
0.055
0.035
-0.013
-0.005
0.019
0.069
-0.018
-0.002
0.050
0.012
0.038
0.071
0.010
-0.110
0.047
0.044
-0.051
0.089
0.014
0.004
-0.018
0.007
0.008
0.073
-0.049
0.094
0.017
0.061
0.051
-0.033
0.019
0.007
0.026
0.036
0.038
0.076
-0.020
-0.038
-0.016
0.097
-0.058
0.079
-0.003
0.067
-0.059
0.086
-0.142
-0.046
0.022
0.029
0.042
0.056
-0.065
0.073
-0.011
0.004
0.085
0.044
-0.021
0.080
0.038
-0.048
0.087
0.083
-0.033
-0.021
0.038
0.070
0.048
-0.097
0.015
0.072
0.033
0.114
-0.006
-0.076
-0.066
0.037
0.055
0.018
0.080
0.004
-0.049
0.035
0.016
0.058
0.033
0.050
-0.007
0.070
0.036
0.034
-0.006
-0.071
-0.007
0.013
0.046
0.111
-0.104
0.019
0.069
-0.085
-0.010
-0.054
-0.069
0.085
0.005
0.046
0.020
0.114
-0.035
-0.064
0.085
0.146
0.009
-0.053
-0.060
0.040
-0.028
0.037
-0.001
0.079
0.013
0.050
-0.017
0.090
0.031
-0.083
0.081
-0.015
0.023
0.084
0.022
0.039
-0.048
-0.019
0.033
-0.038
0.047
-0.007
-0.013
0.032
-0.045
0.069
0.121
0.028
-0.002
-0.075
-0.009
0.081
0.077
-0.020
0.005
0.034
0.082
0.052
0.036
0.026
0.004
-0.046
0.019
0.044
0.009
0.039
0.004
0.003
-0.048
-0.015
0.057
0.002
-0.052
0.096
0.025
0.072
-0.098
0.032
0.013
0.025
-0.103
0.020
0.088
-0.054
0.092
-0.011
0.060
0.047
0.032
-0.007
0.024
0.042
0.090
0.008
0.093
0.041
0.083
-0.052
-0.002
0.038
0.043
0.128
0.048
-0.066
-0.042
0.082
-0.145
0.007
0.049
0.117
0.082
-0.047
-0.033
-0.068
0.074
-0.066
0.036
-0.042
0.070
0.040
0.037
-0.042
-0.044
0.081
0.078
-0.015
-0.028
0.026
-0.085
0.056
-0.023
0.007
0.092
-0.054
-0.034
0.046
0.005
-0.007
-0.070
0.050
0.033
0.047
0.097
0.059
-0.006
0.032
0.038
-0.006
0.048
0.013
0.089
0.014
-0.065
0.093
-0.004
-0.026
0.084
0.055
-0.026
0.099
0.012
-0.003
-0.053
-0.010
0.092
0.065
0.026
0.004
-0.016
-0.034
0.106
-0.050
0.008
0.060
0.034
-0.094
-0.027
0.060
-0.023
0.096
0.045
0.065
-0.090
0.050
0.049
0.051
0.114
-0.023
-0.017
0.078
0.037
0.052
0.008
0.015
-0.011
0.062
0.108
0.008
-0.084
0.122
0.181
-0.106
-0.023
0.014
-0.010
-0.011
0.119
0.088
-0.048
-0.025
0.023
0.033
0.031
-0.038
-0.033
0.016
0.079
0.019
-0.070
-0.056
0.026
-0.025
0.097
0.002
-0.026
0.146
-0.019
-0.023
0.046
-0.017
0.012
-0.027
0.010
-0.026
0.052
0.072
-0.023
0.020
-0.055
0.075
0.012
0.036
-0.012
0.045
0.085
0.074
-0.007
0.048
-0.003
-0.048
0.084
0.037
-0.054
-0.028
-0.020
-0.075
0.012
-0.013
-0.009
0.147
0.045
0.003
-0.059
0.063
0.025
0.036
0.015
-0.063
0.015
0.069
0.003
-0.029
0.082
0.017
0.000
0.089
-0.038
-0.067
0.013
0.043
0.003
0.062
0.059
0.073
0.005
-0.025
0.061
0.025
0.057
0.051
-0.130
0.090
0.094
-0.061
0.074
0.076
-0.004
0.031
-0.055
-0.007
0.127
0.022
-0.050
0.005
0.001
0.068
0.023
0.070
0.031
0.045
0.079
-0.021
0.012
-0.004
0.048
0.048
0.078
-0.011
-0.001
0.027
-0.005
0.017
-0.026
-0.018
-0.044
0.030
0.067
0.139
0.036
0.021
-0.048
-0.091
0.063
0.048
0.023
0.089
-0.019
-0.048
0.018
0.050
0.092
0.093
-0.030
-0.122
0.107
-0.040
0.031
0.012
0.086
-0.006
0.004
0.042
-0.004
0.082
0.002
-0.002
0.053
-0.028
-0.048
-0.053
0.030
-0.067
0.054
0.037
-0.003
0.043
0.069
-0.002
0.032
-0.027
0.020
0.036
0.033
-0.047
0.016
0.082
0.095
-0.083
0.047
-0.010
-0.038
0.077
0.046
-0.052
0.055
-0.015
-0.067
0.087
-0.016
0.073
0.028
0.102
0.059
-0.023
-0.014
0.069
-0.018
-0.011
0.043
0.056
0.083
0.083
-0.001
-0.058
0.021
0.027
0.003
-0.058
0.097
0.023
0.012
-0.035
0.014
0.065
0.016
-0.064
-0.092
0.011
0.020
-0.004
0.017
0.023
0.006
0.021
0.084
0.030
0.056
0.031
-0.026
0.005
0.015
0.140
-0.015
-0.006
0.004
0.038
-0.034
0.011
-0.011
0.022
-0.005
0.017
-0.004
0.075
-0.035
0.041
0.060
0.020
0.048
0.007
0.048
-0.028
0.025
0.034
0.025
-0.003
0.004
0.062
-0.016
0.015
0.039
0.098
-0.050
-0.034
0.037
0.008
-0.054
0.007
0.065
0.003
0.058
-0.110
0.047
0.005
-0.040
0.069
0.023
0.006
0.094
-0.028
-0.142
0.080
0.021
0.096
-0.039
-0.031
0.062
-0.009
0.019
-0.031
0.098
-0.043
0.008
0.013
0.003
-0.108
-0.004
0.055
0.077
0.090
0.082
0.064
-0.049
0.029
-0.064
-0.000
0.006
-0.009
0.028
0.057
0.049
-0.104
-0.006
0.071
-0.008
0.167
0.050
-0.085
-0.040
-0.016
0.017
0.000
0.029
0.135
0.050
0.045
-0.011
0.048
-0.026
0.047
-0.053
0.042
0.045
0.043
-0.044
0.032
-0.012
-0.019
0.015
0.116
-0.043
-0.015
-0.001
0.087
-0.015
0.005
0.037
0.029
0.033
0.050
0.008
0.010
-0.001
0.072
0.050
0.071
0.009
-0.064
0.099
0.081
0.043
-0.083
-0.016
-0.014
0.032
0.029
0.059
-0.048
-0.040
0.080
0.037
-0.023
0.056
0.042
-0.023
0.069
0.018
0.022
0.075
0.053
0.035
-0.023
0.058
0.055
0.035
0.062
0.045
0.004
0.001
-0.056
0.024
0.046
0.043
0.097
-0.044
0.009
0.014
0.064
-0.042
-0.005
0.052
0.017
0.027
0.033
-0.054
0.025
0.025
-0.047
0.058
0.033
-0.021
0.039
-0.106
-0.008
0.002
0.022
0.061
-0.022
0.011
0.101
0.010
0.032
-0.084
-0.002
-0.054
0.104
0.051
0.014
0.004
-0.094
0.087
0.035
0.081
0.041
0.001
-0.010
-0.003
0.061
-0.009
0.056
0.079
-0.051
0.098
-0.064
0.075
-0.019
0.049
-0.047
0.056
0.106
-0.034
0.035
0.022
-0.002
-0.071
0.010
0.055
0.132
0.072
-0.092
-0.019
0.021
0.092
0.017
0.015
-0.077
0.113
-0.013
-0.049
0.018
0.040
0.008
0.062
-0.041
-0.019
-0.021
0.059
0.002
0.001
0.040
0.020
0.044
0.039
0.082
-0.061
0.039
-0.000
0.052
0.059
0.058
0.006
0.133
-0.076
0.002
0.084
0.014
0.069
0.013
-0.014
-0.074
0.161
0.051
0.014
-0.018
0.053
-0.009
-0.114
0.049
0.041
-0.035
0.067
0.085
-0.008
-0.037
0.075
0.039
-0.021
-0.025
0.084
-0.046
0.027
0.058
0.067
0.053
-0.059
-0.055
0.087
0.031
-0.052
0.025
-0.053
0.076
0.040
0.014
-0.012
0.001
-0.065
0.033
0.004
-0.028
0.042
0.052
0.074
0.000
0.000
-0.006
0.045
0.031
0.014
-0.013
0.025
-0.057
0.048
0.089
0.105
0.008
0.118
-0.158
0.050
0.017
0.015
0.054
0.013
-0.058
0.114
0.043
-0.022
0.033
-0.054
0.077
0.074
0.116
-0.073
0.005
-0.033
0.063
0.005
0.028
0.021
-0.015
-0.010
-0.004
0.060
0.076
0.018
0.012
0.049
0.017
0.030
-0.044
0.055
0.098
-0.015
-0.006
0.054
-0.045
0.002
0.065
-0.016
0.063
-0.046
0.059
0.010
0.062
-0.063
0.015
-0.009
0.048
0.075
0.028
0.014
0.024
0.004
-0.036
0.078
0.035
-0.003
0.122
0.019
-0.004
-0.006
0.054
-0.013
0.104
-0.080
0.028
-0.003
0.151
0.016
0.033
0.004
-0.014
0.055
0.073
-0.119
-0.040
0.069
0.046
0.057
-0.001
-0.037
0.007
0.062
0.017
0.010
-0.004
0.045
-0.130
0.070
0.039
-0.036
0.010
0.017
0.001
0.019
0.047
0.020
-0.074
0.062
-0.031
0.058
0.033
0.042
-0.049
0.032
0.048
0.015
0.026
0.010
0.008
0.162
-0.013
0.073
-0.021
-0.068
0.027
-0.001
0.050
0.032
-0.019
-0.038
-0.055
0.127
0.096
0.067
-0.031
-0.021
0.110
-0.025
-0.007
0.026
0.036
0.034
0.052
-0.009
0.038
-0.005
0.001
0.055
0.010
-0.041
-0.063
-0.024
0.082
-0.024
0.128
0.001
0.025
-0.024
0.056
0.006
0.062
0.017
-0.037
-0.060
0.067
0.037
0.032
0.095
0.016
0.038
-0.005
0.062
0.033
-0.019
0.012
0.065
0.096
-0.030
-0.043
-0.041
0.158
-0.031
0.008
-0.029
0.106
0.034
0.061
0.034
-0.035
0.002
0.016
0.031
0.083
0.124
-0.023
0.093
0.053
-0.056
0.004
-0.055
0.046
-0.031
-0.037
0.006
0.028
-0.116
0.054
0.050
-0.013
0.076
-0.070
0.083
0.056
-0.045
-0.085
0.102
-0.007
0.093
-0.008
0.030
-0.023
-0.060
0.020
0.074
0.049
-0.046
0.062
0.090
-0.022
0.089
0.043
-0.051
0.137
-0.056
-0.051
0.031
0.077
-0.003
0.078
-0.002
-0.007
0.013
0.093
-0.002
-0.065
-0.085
0.094
0.063
0.085
-0.059
0.052
0.038
-0.072
-0.076
0.029
-0.013
0.062
0.062
-0.089
-0.049
0.156
0.008
0.026
0.015
-0.003
0.007
-0.046
-0.058
0.085
0.010
0.057
0.045
0.100
-0.044
0.069
0.092
-0.004
0.022
0.054
0.031
0.035
-0.013
-0.087
0.023
0.043
0.110
0.137
0.009
0.008
0.001
0.010
-0.020
0.071
0.119
-0.027
-0.039
0.060
-0.047
0.040
0.042
-0.036
-0.042
0.047
0.039
0.038
-0.016
-0.002
0.048
0.102
0.112
-0.095
0.021
0.042
-0.039
-0.013
-0.021
0.080
0.007
-0.015
0.034
-0.010
0.003
0.068
0.075
-0.041
0.016
0.017
0.042
0.114
-0.007
0.000
0.008
0.031
-0.032
-0.007
0.071
-0.043
0.019
0.021
0.062
0.115
-0.019
-0.040
0.016
-0.046
0.107
0.088
0.008
0.003
0.051
0.029
-0.090
0.039
0.036
0.063
0.005
-0.021
0.000
0.020
0.059
-0.013
0.033
0.150
-0.084
-0.060
-0.014
-0.056
-0.024
0.073
0.116
0.021
-0.036
-0.003
0.038
0.025
0.045
0.050
-0.016
0.004
-0.075
0.050
0.071
0.017
-0.012
0.047
-0.002
0.031
0.095
-0.007
-0.072
-0.015
0.052
0.067
0.083
-0.010
0.054
-0.060
0.024
0.055
-0.011
0.028
0.087
0.061
-0.061
0.076
0.095
-0.060
0.041
0.030
-0.014
-0.085
0.070
-0.022
0.046
0.027
0.092
0.012
-0.038
-0.067
0.055
0.024
0.001
0.012
0.004
0.034
-0.052
0.008
0.058
0.039
0.049
0.021
0.023
0.008
0.068
-0.058
-0.033
0.004
0.043
-0.081
0.063
-0.013
0.104
-0.009
-0.029
-0.023
0.080
0.093
-0.054
-0.084
0.043
0.071
0.112
0.003
-0.054
-0.035
-0.011
0.028
0.037
-0.000
-0.151
0.033
0.082
0.050
0.026
-0.076
0.033
0.007
-0.065
0.014
0.023
0.061
0.052
0.077
0.012
0.073
-0.084
-0.021
0.006
0.091
0.044
0.059
0.090
0.138
-0.003
0.011
-0.082
0.033
-0.024
-0.100
0.036
0.038
0.054
0.051
-0.048
0.023
0.051
-0.010
-0.024
-0.019
0.021
0.086
0.060
-0.034
0.013
0.045
0.023
-0.002
-0.068
0.092
0.108
-0.048
0.088
-0.007
0.001
-0.018
-0.023
-0.001
-0.005
0.124
0.095
0.013
0.012
0.068
-0.066
-0.053
0.015
0.068
0.005
0.086
0.075
0.105
-0.073
0.054
0.098
-0.062
0.000
0.074
0.023
0.005
0.020
0.077
0.018
-0.047
0.034
0.021
-0.054
-0.019
-0.006
0.107
0.108
0.083
0.045
-0.111
-0.025
-0.003
0.001
0.088
-0.021
-0.007
-0.016
0.039
0.046
-0.066
0.065
0.062
-0.020
0.050
-0.069
-0.014
-0.039
0.018
0.042
0.082
0.055
0.070
-0.072
-0.111
0.023
0.104
0.104
0.018
0.028
0.011
0.064
0.019
-0.007
-0.001
0.014
0.091
0.114
-0.011
-0.016
-0.098
0.016
0.064
0.052
-0.004
-0.044
-0.053
0.048
0.018
0.036
0.008
0.089
0.084
0.024
-0.055
-0.021
0.087
0.097
0.074
-0.035
0.057
-0.028
0.030
0.078
-0.035
0.053
-0.128
0.011
0.098
0.083
0.061
0.070
0.059
0.011
0.021
-0.072
0.085
-0.032
-0.032
0.063
0.008
0.057
0.020
0.034
0.080
-0.030
-0.001
0.001
0.066
0.034
0.022
0.006
0.125
0.014
0.036
0.070
0.010
-0.021
0.049
0.070
0.026
0.037
-0.052
-0.012
-0.019
0.008
-0.014
0.044
0.086
0.032
-0.043
0.009
0.019
0.043
0.024
0.122
0.046
-0.075
-0.012
0.025
0.057
0.011
0.046
0.031
-0.073
0.015
0.040
0.036
0.145
-0.036
-0.064
0.020
-0.008
-0.007
0.084
0.084
0.038
-0.064
0.030
-0.069
0.053
0.020
-0.011
-0.006
-0.003
-0.007
0.066
0.089
0.063
0.041
-0.033
0.004
0.036
0.030
-0.091
-0.047
0.047
0.034
0.108
0.028
-0.033
0.019
-0.003
-0.027
-0.032
0.014
0.040
0.059
-0.128
0.020
0.075
0.046
0.035
0.090
-0.009
-0.018
-0.103
0.028
0.077
0.069
0.037
0.087
0.081
0.000
-0.041
0.008
0.055
0.064
-0.039
0.007
0.016
0.058
0.004
0.013
0.024
0.017
0.024
0.029
-0.011
0.059
0.038
-0.034
-0.009
0.011
-0.078
0.070
-0.048
0.100
-0.015
0.083
0.044
-0.038
-0.019
0.060
0.091
-0.010
0.110
0.009
0.004
0.082
-0.048
0.005
-0.018
0.072
-0.004
-0.018
-0.025
-0.067
0.080
0.057
0.027
0.024
-0.029
0.044
-0.041
0.026
0.026
0.096
-0.005
-0.037
0.022
0.023
0.018
0.122
0.004
0.017
-0.000
0.076
-0.003
-0.010
-0.032
-0.042
0.108
0.031
-0.041
-0.042
0.031
0.100
0.063
0.086
-0.021
0.014
-0.021
0.107
0.016
0.017
0.014
0.026
-0.057
0.087
0.034
0.030
-0.026
0.053
0.057
0.068
-0.066
0.038
0.075
-0.077
0.057
0.007
0.019
0.142
0.070
-0.119
-0.017
-0.028
0.063
0.081
0.052
0.021
-0.018
0.123
-0.012
-0.008
0.018
0.058
0.100
-0.045
-0.034
-0.002
0.001
0.084
0.065
0.011
0.015
-0.007
0.064
0.055
-0.051
0.012
-0.062
0.038
0.006
0.012
0.047
0.053
0.074
0.075
0.061
0.030
-0.023
0.027
0.070
-0.007
-0.044
0.074
-0.023
0.043
0.111
-0.024
-0.125
-0.011
0.016
-0.088
0.058
0.082
0.074
0.023
0.040
-0.034
0.113
0.015
-0.117
-0.086
0.004
-0.030
0.071
0.046
-0.062
-0.044
0.095
-0.016
-0.031
0.019
-0.017
0.047
0.034
0.053
-0.037
-0.019
-0.037
0.067
0.129
0.050
0.068
0.016
-0.024
0.028
-0.045
-0.061
0.052
-0.070
0.019
0.095
-0.020
-0.023
0.017
0.160
-0.037
-0.082
0.095
0.031
0.028
0.011
-0.060
0.079
0.005
0.053
0.000
0.074
-0.001
-0.014
0.033
-0.084
0.150
0.071
-0.038
-0.060
0.015
0.062
0.067
0.039
0.022
-0.020
0.043
0.085
-0.046
-0.047
-0.048
0.002
0.104
0.083
-0.004
-0.026
0.080
0.052
-0.026
-0.059
0.010
0.071
0.019
0.067
-0.008
0.016
0.048
0.013
0.033
-0.042
-0.054
0.106
-0.023
0.026
0.014
0.016
-0.022
0.030
0.077
-0.028
0.013
0.074
-0.021
0.015
0.086
-0.173
0.031
0.065
-0.088
0.051
0.014
0.021
-0.013
0.036
-0.025
-0.046
0.090
-0.020
0.023
0.080
-0.000
0.037
0.011
0.046
0.021
-0.038
0.014
0.072
0.027
-0.048
0.009
0.102
-0.027
0.010
-0.041
0.004
0.011
-0.067
0.064
0.059
0.059
-0.116
-0.057
0.090
0.058
0.044
-0.000
-0.025
0.042
0.038
0.050
-0.048
0.066
-0.012
0.076
-0.029
0.048
0.004
0.042
-0.002
0.017
0.011
-0.026
0.098
0.004
-0.013
-0.021
0.077
0.075
0.127
-0.091
-0.045
-0.015
0.036
-0.029
0.062
0.111
0.055
-0.040
0.030
0.012
-0.063
-0.020
0.061
0.080
0.068
0.006
-0.024
-0.008
0.071
-0.048
0.029
0.036
0.083
-0.001
-0.070
0.048
0.047
0.099
-0.014
-0.024
0.000
0.002
0.006
-0.002
0.069
-0.072
-0.013
0.086
0.010
-0.069
0.021
0.052
0.036
-0.031
0.092
-0.076
-0.013
0.103
0.020
0.031
-0.016
0.012
0.015
-0.004
0.048
0.071
0.006
-0.047
0.030
-0.026
-0.011
0.071
-0.053
0.036
0.072
-0.021
-0.023
-0.014
0.014
0.023
0.059
-0.009
0.031
0.040
0.031
0.029
0.044
0.072
0.062
-0.041
0.002
0.034
0.064
0.036
0.012
-0.072
0.133
-0.002
-0.030
0.086
-0.057
-0.023
-0.013
0.035
0.086
0.029
-0.014
0.005
-0.072
0.047
0.078
0.048
0.020
-0.015
0.081
0.009
0.001
-0.009
0.024
0.025
-0.049
0.023
-0.006
0.035
0.056
0.087
0.016
-0.027
0.086
0.010
-0.028
-0.037
-0.039
0.027
0.037
0.093
-0.039
0.040
0.046
0.041
-0.015
-0.025
-0.041
0.025
-0.039
-0.019
0.021
0.113
-0.023
0.070
0.007
-0.018
-0.006
-0.055
-0.018
-0.061
0.021
0.073
0.015
-0.070
0.106
0.022
-0.003
0.063
0.035
-0.042
-0.040
0.081
0.092
-0.080
-0.053
-0.056
0.011
0.080
0.070
0.079
-0.030
0.070
-0.131
-0.028
0.028
0.084
-0.009
-0.038
-0.001
0.040
-0.037
-0.043
0.029
0.009
0.131
-0.025
0.086
-0.020
0.072
-0.019
-0.066
-0.035
0.090
0.023
0.000
0.073
0.039
0.035
-0.047
0.003
-0.037
0.012
0.075
0.082
0.061
0.091
-0.010
0.003
0.014
0.062
0.027
-0.056
0.042
0.071
-0.045
-0.062
0.088
0.060
0.026
0.020
0.026
-0.012
-0.027
0.058
0.010
-0.013
0.014
0.044
0.044
0.035
-0.100
-0.033
0.055
0.035
0.013
0.050
0.042
0.046
0.002
-0.023
0.094
-0.032
0.093
-0.009
0.022
-0.030
0.062
0.015
0.095
0.023
0.015
-0.030
-0.012
0.120
-0.002
0.079
0.021
0.019
-0.072
0.030
0.027
0.084
0.025
-0.054
-0.090
0.069
0.065
0.017
-0.071
0.056
0.013
-0.058
0.120
-0.001
-0.086
0.051
0.030
-0.024
0.024
0.062
0.025
0.008
0.046
-0.012
0.079
-0.050
-0.026
0.086
0.025
0.014
0.042
0.010
0.009
0.066
-0.038
0.071
0.027
0.024
0.031
0.025
0.021
0.015
-0.064
-0.034
-0.019
0.020
0.037
-0.012
0.032
0.010
-0.021
0.094
-0.068
0.059
0.061
0.076
-0.020
-0.053
0.116
0.065
0.042
-0.062
-0.037
0.163
-0.036
-0.085
0.001
0.076
0.022
-0.055
0.047
0.025
-0.020
0.038
0.030
0.049
0.033
-0.002
0.063
-0.007
0.021
-0.044
0.059
0.108
-0.077
-0.045
0.046
0.139
-0.073
-0.019
-0.038
0.068
-0.051
0.055
0.051
-0.020
-0.022
0.072
0.097
0.040
0.011
-0.006
0.006
-0.001
0.017
0.062
0.028
-0.072
0.109
0.049
0.012
-0.048
0.115
0.019
0.015
0.041
0.023
-0.013
0.092
0.019
-0.008
0.032
-0.085
0.022
0.141
0.035
-0.067
0.020
0.150
-0.060
-0.057
0.010
0.006
-0.007
0.014
0.025
0.120
-0.053
-0.002
-0.008
0.002
0.136
0.084
-0.023
-0.016
0.048
0.113
0.013
-0.055
0.064
-0.015
0.016
0.009
0.044
0.014
0.080
-0.011
0.037
-0.041
0.045
0.071
-0.059
0.074
0.009
-0.124
0.032
0.113
-0.040
0.061
-0.062
0.044
-0.032
-0.004
0.083
0.064
0.020
-0.024
0.017
0.053
0.015
-0.036
0.013
-0.009
0.060
0.082
0.082
0.085
-0.029
-0.071
0.071
0.014
0.050
0.020
-0.004
0.027
0.010
-0.031
0.072
0.000
-0.117
-0.032
-0.009
0.001
0.146
0.080
0.076
0.001
-0.047
0.054
-0.035
0.060
0.107
-0.011
-0.020
0.012
0.035
-0.037
-0.024
-0.024
0.080
-0.002
-0.041
-0.046
0.006
0.017
-0.009
0.047
0.042
0.026
0.018
-0.037
0.002
0.004
0.027
-0.094
0.077
0.018
0.058
0.020
-0.006
0.072
0.044
0.080
-0.165
0.021
0.143
0.082
-0.022
-0.071
0.069
0.006
-0.027
0.047
-0.052
-0.020
0.027
0.007
0.005
-0.079
0.061
0.054
-0.077
0.067
-0.015
0.024
0.039
-0.002
-0.031
0.030
0.079
0.025
-0.047
-0.019
0.033
0.061
0.006
-0.136
0.028
0.025
0.075
0.080
0.075
-0.051
-0.073
0.020
0.112
-0.051
0.024
0.024
-0.005
0.029
0.033
-0.061
0.061
-0.030
0.099
0.056
-0.033
-0.014
0.070
0.145
-0.095
0.033
0.008
0.087
0.030
0.048
-0.020
-0.032
0.111
0.027
-0.051
0.081
0.053
-0.027
0.088
0.054
-0.003
-0.039
0.033
-0.011
0.005
0.050
0.030
-0.026
0.020
0.075
0.075
-0.016
-0.058
0.010
0.009
0.012
0.035
0.035
-0.060
0.090
0.008
-0.008
-0.014
0.048
0.055
0.015
-0.027
0.002
0.089
0.125
0.016
-0.014
0.025
-0.043
0.151
-0.057
0.003
0.009
0.048
0.082
-0.014
0.011
-0.003
0.032
-0.087
-0.025
-0.015
0.045
-0.016
0.093
0.039
0.044
0.029
0.015
-0.041
0.017
-0.066
0.011
0.062
-0.025
0.093
-0.003
0.078
-0.029
-0.026
-0.044
-0.034
0.145
0.005
-0.019
0.043
0.077
0.070
0.042
-0.020
0.018
-0.035
0.071
0.028
0.054
-0.015
-0.008
0.061
-0.053
0.055
0.019
0.078
0.021
-0.072
-0.071
-0.052
0.046
0.022
0.031
0.021
0.108
-0.063
-0.005
-0.001
0.051
0.088
0.022
0.001
0.143
0.066
0.051
-0.034
0.048
0.062
0.020
-0.055
-0.015
0.026
-0.018
0.058
-0.011
-0.022
0.005
0.086
0.002
0.001
-0.014
0.004
0.095
-0.018
-0.120
0.035
0.058
0.062
0.041
0.047
-0.016
0.030
0.004
0.033
0.022
-0.069
-0.011
0.082
-0.008
-0.031
-0.019
0.029
0.089
-0.020
0.049
-0.030
-0.006
-0.001
-0.055
-0.022
0.074
0.099
0.084
0.014
-0.067
-0.009
0.067
-0.016
0.133
0.072
-0.058
-0.014
0.009
-0.066
0.016
0.098
0.019
0.044
-0.064
-0.005
-0.049
0.040
-0.036
0.042
0.047
0.029
0.054
-0.051
0.072
0.029
0.008
-0.062
0.039
-0.053
0.144
0.064
0.014
0.031
-0.034
0.047
-0.086
0.045
-0.003
0.051
0.073
-0.113
0.049
0.070
0.145
0.041
-0.089
-0.087
0.046
-0.040
0.023
0.104
0.004
0.026
0.060
-0.029
-0.075
-0.066
0.019
0.090
0.007
0.107
0.118
-0.002
-0.012
0.070
-0.007
-0.079
-0.037
-0.001
0.065
0.011
0.034
0.046
-0.046
0.054
0.057
0.000
0.053
-0.023
-0.091
0.003
-0.023
0.092
0.075
-0.001
0.010
-0.076
0.036
-0.001
0.058
0.076
-0.001
-0.027
-0.033
-0.016
0.061
0.058
0.018
0.030
-0.067
0.089
0.035
-0.018
-0.049
-0.013
0.011
-0.011
0.082
0.069
0.100
-0.043
-0.023
-0.015
0.065
-0.013
0.066
-0.080
0.119
0.033
-0.008
0.031
0.001
0.018
0.020
0.076
0.059
0.022
-0.099
-0.022
0.047
0.057
-0.004
-0.043
0.028
-0.007
0.041
0.033
0.091
0.065
0.001
0.064
0.054
-0.015
0.017
0.038
0.049
-0.006
0.023
0.048
0.087
-0.027
-0.011
-0.064
0.132
0.068
-0.005
0.023
0.021
-0.004
0.043
0.112
-0.139
-0.002
0.059
0.121
0.113
-0.055
-0.070
-0.002
0.092
-0.084
0.034
0.067
-0.016
0.132
0.032
0.049
0.003
0.055
0.017
-0.063
0.029
0.110
-0.037
0.001
0.007
0.043
-0.010
0.008
0.051
0.030
-0.013
0.035
0.007
-0.044
-0.026
-0.025
0.100
-0.000
0.056
0.051
0.077
-0.117
-0.098
0.050
0.019
0.070
0.036
-0.080
0.075
0.062
-0.007
0.001
-0.036
-0.006
0.151
-0.121
0.017
-0.005
0.057
0.007
0.067
0.016
-0.008
0.040
-0.100
-0.029
0.107
-0.057
0.002
0.079
-0.012
0.054
0.043
-0.033
0.069
0.075
-0.079
0.059
0.046
-0.009
0.004
-0.034
-0.034
0.048
0.074
-0.068
0.071
-0.014
-0.109
0.138
0.099
-0.140
0.018
0.083
0.007
-0.005
0.026
-0.076
0.048
0.078
0.032
0.056
-0.038
-0.054
0.032
0.052
0.019
0.027
0.029
-0.046
0.136
-0.053
-0.002
0.073
-0.005
0.136
0.027
-0.030
0.029
0.017
0.074
-0.015
0.043
0.028
0.046
-0.015
0.061
0.020
0.010
0.055
-0.111
0.130
0.003
-0.061
0.025
0.101
-0.065
0.006
0.035
-0.013
-0.031
0.020
0.012
0.050
0.033
-0.005
0.034
-0.024
-0.031
0.042
0.002
0.081
0.030
0.095
0.034
0.074
0.052
-0.016
0.014
-0.010
0.072
0.050
-0.004
0.027
0.019
-0.032
0.022
-0.005
-0.012
0.003
0.080
-0.034
-0.004
-0.068
0.031
0.058
-0.083
0.041
0.059
0.136
-0.004
-0.031
-0.005
0.052
0.043
-0.053
0.022
-0.063
0.154
0.055
-0.039
-0.027
0.083
0.095
-0.034
0.046
0.006
0.026
0.047
-0.039
-0.005
0.010
0.042
0.042
-0.016
-0.066
0.040
0.043
-0.026
-0.097
0.086
0.056
-0.012
-0.061
0.079
0.047
0.014
0.056
-0.034
0.010
0.058
0.061
0.013
-0.078
0.041
-0.037
0.086
0.117
-0.029
0.018
0.023
0.043
0.069
0.060
-0.053
0.027
-0.085
0.007
0.164
-0.017
0.033
-0.024
-0.017
0.026
-0.017
-0.025
-0.072
0.042
0.015
0.047
-0.011
-0.019
-0.067
0.085
0.064
0.063
0.003
0.002
0.025
0.017
0.014
0.003
0.010
0.009
-0.029
0.046
0.003
0.074
0.110
-0.008
-0.074
-0.013
0.078
0.110
0.086
-0.086
-0.051
-0.005
-0.016
0.043
0.066
0.053
0.023
-0.076
-0.009
0.067
-0.049
0.018
0.013
0.057
0.046
0.138
-0.035
-0.044
0.007
-0.019
0.019
0.106
0.026
-0.062
0.016
0.051
0.056
-0.063
-0.010
-0.040
0.082
0.011
0.015
0.046
0.145
0.064
-0.082
0.040
-0.019
0.108
0.032
-0.020
-0.055
0.077
-0.028
-0.037
-0.063
0.032
0.112
0.037
-0.088
0.087
0.015
0.024
-0.006
0.003
0.086
-0.004
0.034
-0.068
0.021
0.009
0.042
0.020
-0.001
0.049
0.018
0.015
0.047
0.025
-0.016
-0.000
-0.010
0.082
-0.001
0.135
-0.192
0.033
0.078
0.095
-0.038
0.014
-0.002
-0.060
0.092
0.076
0.006
-0.020
-0.045
0.046
-0.022
0.035
0.064
0.073
0.041
-0.006
0.068
-0.002
0.017
0.095
-0.053
0.024
0.010
0.017
0.018
-0.007
0.051
-0.011
0.052
0.028
-0.015
-0.058
0.055
0.075
0.079
0.070
-0.062
0.029
-0.014
-0.073
0.055
0.049
-0.032
0.066
0.042
-0.023
0.047
-0.007
0.096
-0.028
0.052
0.038
-0.012
-0.096
0.042
0.082
-0.063
0.054
0.108
-0.023
0.106
-0.036
0.049
-0.005
-0.045
0.029
-0.011
0.019
0.056
0.031
0.003
0.078
-0.023
0.127
-0.036
0.039
-0.030
-0.064
0.035
0.057
0.059
-0.162
0.022
0.076
0.094
0.053
0.059
-0.046
-0.007
0.026
0.066
0.050
-0.000
-0.016
0.034
-0.036
-0.012
0.038
0.085
-0.055
-0.028
0.040
0.026
0.015
-0.011
-0.084
-0.060
0.081
0.040
-0.019
0.064
-0.014
-0.005
0.055
0.017
0.086
-0.014
-0.019
-0.088
0.061
0.066
0.101
0.021
0.021
-0.029
-0.039
-0.050
0.091
0.036
-0.056
0.100
0.141
0.056
-0.006
-0.038
0.042
0.027
0.043
0.063
0.002
0.052
-0.052
-0.142
0.028
0.025
0.078
0.087
0.009
0.034
-0.025
-0.065
0.076
-0.005
0.134
-0.029
-0.062
0.020
0.015
-0.002
0.086
0.063
-0.092
0.015
0.005
0.069
-0.107
0.109
0.069
-0.019
0.030
0.001
-0.011
-0.036
0.041
0.075
0.009
0.074
0.030
0.038
0.019
0.034
-0.000
-0.019
-0.034
0.053
0.060
0.106
0.022
-0.071
-0.078
0.076
-0.009
0.117
-0.078
0.026
-0.036
-0.047
0.076
-0.008
-0.003
0.078
0.052
0.012
-0.021
0.026
-0.010
0.147
0.044
-0.005
0.095
0.096
-0.056
0.064
0.012
0.106
-0.034
-0.016
-0.055
-0.024
0.037
0.049
0.009
0.006
-0.025
0.055
0.096
0.022
-0.099
-0.026
-0.008
0.013
0.059
0.079
0.024
0.060
0.084
-0.087
-0.027
-0.003
-0.009
0.013
-0.046
0.077
0.072
0.047
-0.053
0.026
-0.057
0.071
-0.004
0.088
0.015
-0.028
0.034
0.065
0.055
0.039
0.089
0.057
-0.026
-0.045
0.048
0.081
-0.022
-0.085
0.067
-0.068
0.080
0.064
0.025
-0.019
0.063
-0.077
-0.006
0.024
0.041
0.036
-0.044
0.005
0.042
-0.006
0.018
-0.112
0.066
-0.034
0.098
0.188
-0.024
0.015
-0.010
-0.026
0.066
0.128
-0.019
0.040
0.040
-0.060
0.024
0.042
0.060
0.055
-0.086
-0.046
0.065
-0.008
0.064
-0.022
0.046
0.038
-0.059
0.119
0.031
-0.052
0.084
0.025
-0.011
0.093
-0.063
-0.005
0.072
0.008
0.037
0.111
0.002
-0.037
0.022
0.062
-0.011
0.005
0.071
0.023
0.022
-0.036
0.120
-0.029
0.018
0.012
0.086
0.020
0.039
0.056
0.011
-0.025
0.061
-0.003
0.100
-0.105
0.028
0.019
0.097
0.070
-0.020
0.055
0.000
0.065
-0.013
-0.010
0.003
0.018
0.071
-0.075
0.044
0.094
0.120
-0.020
-0.067
-0.012
-0.026
0.071
0.022
0.023
0.060
-0.112
-0.010
0.084
0.022
0.039
0.108
-0.041
0.049
-0.062
0.067
-0.095
0.149
0.055
0.050
0.044
0.015
0.046
0.038
0.059
-0.034
0.006
0.009
0.045
-0.012
0.089
-0.043
0.008
0.029
0.097
0.017
0.032
0.051
0.083
-0.054
-0.014
0.004
-0.067
0.096
-0.023
0.024
0.096
0.001
0.031
0.007
-0.085
0.023
0.096
-0.033
-0.071
-0.032
0.052
-0.048
0.030
0.075
0.107
0.005
-0.014
0.025
0.025
0.068
0.127
-0.053
-0.037
0.011
0.025
0.006
0.086
0.031
0.064
0.004
-0.069
0.120
0.107
-0.014
0.037
0.017
0.037
0.017
0.038
0.017
-0.001
0.016
0.017
-0.031
0.063
0.026
0.029
0.002
0.038
0.053
-0.049
0.008
-0.002
0.058
-0.019
0.007
0.070
-0.012
-0.014
-0.056
-0.044
0.026
0.066
0.040
0.070
0.012
0.120
0.043
0.037
0.031
0.014
0.081
-0.080
0.078
0.052
0.069
-0.065
0.011
0.146
0.036
-0.104
-0.066
-0.021
0.067
0.112
0.020
0.017
-0.001
0.045
-0.030
-0.012
0.038
0.043
0.087
-0.053
0.046
0.069
-0.027
0.062
0.000
-0.022
0.172
-0.000
0.003
-0.089
0.028
-0.021
0.108
0.005
0.041
-0.017
0.010
0.089
0.019
-0.007
-0.132
0.123
0.047
-0.022
0.024
0.045
0.022
0.067
-0.028
-0.080
-0.041
0.003
-0.046
-0.003
-0.011
0.043
0.125
0.087
-0.044
0.040
-0.033
0.053
0.023
0.068
0.060
-0.013
-0.001
-0.004
-0.045
0.043
0.118
0.038
-0.027
-0.021
-0.018
0.012
-0.014
0.124
-0.024
-0.008
0.047
0.057
-0.002
0.023
0.084
0.035
0.039
-0.038
0.115
-0.015
0.009
0.023
0.050
0.022
-0.037
-0.062
0.020
-0.064
0.013
0.043
0.024
-0.044
0.077
-0.054
0.071
0.052
0.009
0.029
0.019
-0.065
0.034
0.116
-0.099
0.050
-0.026
0.134
-0.040
0.048
-0.043
-0.064
0.009
0.032
0.035
-0.035
0.119
-0.028
0.013
-0.033
0.026
0.068
0.044
0.158
-0.005
0.046
-0.062
-0.008
0.051
0.063
-0.003
-0.106
-0.097
0.030
-0.011
0.031
0.040
0.000
0.044
-0.103
-0.029
0.024
0.024
0.093
-0.016
0.008
0.013
0.044
-0.006
-0.082
0.089
0.005
-0.016
-0.002
0.080
-0.023
0.013
-0.081
-0.034
0.054
0.085
0.076
0.059
0.056
-0.102
-0.082
0.032
0.051
0.082
0.031
0.016
-0.033
0.049
0.019
-0.004
0.056
-0.025
0.071
0.040
0.019
0.028
-0.031
-0.008
-0.082
0.014
0.099
0.078
-0.024
0.027
-0.109
0.042
-0.045
0.090
-0.003
0.067
0.001
0.084
0.014
0.042
0.083
-0.070
0.121
-0.032
0.074
-0.026
0.004
0.007
0.048
0.055
0.019
-0.011
0.044
0.026
-0.069
-0.011
0.053
0.002
0.038
-0.025
-0.001
0.055
0.023
0.050
0.016
-0.049
0.001
0.024
0.013
-0.017
0.055
0.096
0.021
-0.004
-0.101
-0.058
0.120
0.137
-0.026
0.042
-0.048
0.049
0.023
-0.012
0.046
-0.026
-0.029
-0.013
0.045
0.014
-0.025
-0.004
0.080
-0.059
0.020
0.116
-0.029
-0.038
-0.016
0.105
0.006
-0.031
0.076
-0.011
-0.055
0.056
0.022
0.016
-0.054
0.106
0.149
-0.059
-0.006
0.017
0.017
0.141
0.038
0.019
-0.039
-0.009
0.087
-0.066
0.050
0.101
0.052
0.050
-0.098
-0.036
0.066
0.037
0.111
-0.015
-0.056
0.026
-0.026
-0.023
0.015
0.051
0.102
0.101
-0.040
-0.094
-0.027
0.197
0.085
-0.054
-0.011
0.057
0.065
0.028
0.006
0.032
-0.040
0.007
0.059
0.114
-0.017
0.093
-0.061
0.070
0.012
0.019
0.042
0.102
0.006
-0.011
-0.049
0.057
0.074
0.010
0.104
-0.054
-0.052
0.014
0.030
0.041
0.064
0.065
-0.056
-0.057
0.082
0.046
0.087
0.056
-0.010
-0.045
0.009
0.033
0.011
-0.137
0.025
0.073
0.039
0.030
0.005
0.025
0.016
-0.030
0.033
-0.039
-0.018
-0.033
0.082
0.024
0.100
0.014
0.030
-0.031
0.083
-0.047
-0.007
0.074
-0.002
0.018
-0.062
0.056
0.157
-0.029
0.017
0.046
0.029
-0.129
0.013
0.089
0.004
0.044
0.020
0.036
-0.008
-0.053
0.024
0.001
0.032
0.015
0.064
-0.003
0.113
0.006
0.020
0.056
-0.048
-0.020
-0.029
0.055
0.088
-0.014
-0.075
0.183
0.075
-0.036
-0.012
-0.010
0.056
0.114
-0.110
0.074
0.038
-0.012
0.045
0.013
0.015
0.071
0.004
0.068
0.046
0.006
-0.005
-0.075
0.080
0.033
0.038
0.123
-0.007
0.020
-0.004
0.086
-0.061
0.006
0.001
0.113
-0.007
-0.053
-0.017
0.038
0.041
0.009
0.011
0.023
0.105
0.102
-0.004
-0.038
-0.159
0.062
0.140
0.049
-0.072
0.051
0.025
0.119
-0.005
0.045
-0.008
0.080
0.011
0.012
-0.048
0.042
0.075
-0.061
0.129
0.026
-0.047
-0.039
-0.005
0.043
-0.029
0.033
0.062
-0.001
0.010
0.032
0.009
-0.043
-0.023
-0.013
0.076
-0.004
0.056
0.009
-0.018
0.094
0.009
-0.105
0.080
-0.027
0.000
-0.039
0.044
-0.016
0.039
-0.012
0.010
0.077
-0.009
0.014
-0.067
0.070
-0.006
0.018
0.099
-0.033
0.024
-0.061
-0.109
0.074
0.080
0.069
0.078
-0.082
0.052
-0.059
0.147
-0.045
0.021
-0.031
-0.019
-0.062
0.026
0.111
0.053
0.058
0.003
-0.022
-0.006
0.048
0.021
-0.021
-0.001
0.013
0.028
0.095
-0.022
-0.005
0.038
0.023
-0.046
-0.012
0.039
0.022
0.014
0.045
-0.020
-0.015
-0.041
0.036
0.099
-0.057
0.094
0.048
-0.054
-0.028
-0.028
-0.005
-0.012
0.119
0.053
0.089
-0.015
-0.020
0.056
0.057
0.105
0.124
-0.066
-0.032
0.036
0.001
0.016
0.072
0.002
0.056
-0.095
0.073
0.032
0.015
-0.010
0.053
0.025
-0.070
0.036
0.013
0.024
-0.023
0.017
0.070
-0.021
0.028
0.041
0.011
0.047
0.006
-0.013
0.068
-0.011
0.022
-0.006
-0.015
0.070
-0.006
0.076
-0.106
-0.003
0.038
0.080
-0.056
-0.086
0.081
0.034
-0.031
-0.028
0.068
0.053
0.098
0.009
0.004
-0.057
0.039
0.059
0.031
0.042
0.018
0.016
-0.001
-0.005
-0.078
-0.016
0.045
0.068
-0.032
0.105
0.013
-0.003
-0.045
-0.005
0.043
0.082
0.005
-0.044
-0.029
0.032
-0.006
-0.019
0.036
0.081
-0.046
0.015
0.001
0.065
-0.024
0.041
-0.018
0.038
-0.038
0.104
-0.002
0.014
-0.105
-0.029
0.026
0.112
-0.023
-0.033
0.099
0.087
-0.129
0.040
0.051
0.074
0.036
-0.091
0.011
-0.009
0.107
0.092
0.019
0.012
-0.006
-0.021
0.046
-0.024
0.084
0.033
0.040
-0.033
0.085
-0.009
-0.023
-0.021
0.001
-0.054
0.074
0.009
0.000
0.116
0.014
-0.001
0.029
0.006
-0.028
-0.024
-0.003
0.024
-0.037
0.060
0.148
-0.001
0.090
-0.009
0.000
-0.054
-0.033
-0.002
0.076
0.076
-0.004
0.032
0.086
-0.061
-0.038
0.055
0.005
0.077
0.014
0.047
-0.013
-0.013
0.033
0.057
0.076
0.018
0.021
0.088
-0.057
0.004
0.039
-0.049
0.044
-0.019
0.027
0.006
-0.017
0.034
-0.014
0.074
-0.065
0.025
0.080
0.074
-0.134
0.041
0.054
-0.017
0.018
0.025
0.047
0.025
0.003
-0.074
0.111
0.028
0.045
-0.052
0.018
0.095
-0.021
-0.008
0.000
-0.067
0.099
0.077
0.025
-0.013
-0.010
0.021
0.108
0.000
0.050
-0.057
0.072
0.061
-0.075
-0.059
0.087
0.070
-0.064
-0.023
0.073
-0.033
0.095
-0.039
-0.072
0.050
0.064
-0.002
-0.081
0.023
0.050
0.084
-0.004
-0.005
0.130
0.047
-0.017
0.051
0.003
0.005
0.035
0.093
-0.011
0.068
-0.128
-0.019
0.004
-0.002
0.041
-0.003
0.099
0.176
0.031
-0.124
0.066
0.011
-0.013
0.068
0.050
-0.004
0.075
-0.093
0.001
0.082
-0.044
-0.012
0.058
0.014
-0.018
0.048
-0.088
0.087
0.051
0.007
0.051
-0.004
0.064
-0.036
-0.006
0.010
0.080
0.067
-0.045
0.060
-0.028
-0.067
0.040
0.025
-0.024
-0.019
0.048
0.021
0.031
0.049
-0.041
0.031
-0.015
-0.058
0.039
0.004
0.009
0.066
0.090
0.083
0.060
0.017
0.009
-0.083
-0.005
0.047
0.042
0.019
0.007
-0.041
0.054
-0.007
-0.007
0.004
-0.012
0.053
0.058
0.029
0.028
-0.067
-0.046
0.042
0.055
0.053
-0.015
0.024
-0.051
-0.072
0.069
0.071
-0.106
0.003
-0.043
-0.012
0.037
0.117
0.029
0.046
-0.009
0.027
-0.029
0.065
0.101
0.001
0.059
-0.011
0.035
0.019
0.043
0.074
-0.086
0.110
0.042
0.041
-0.048
-0.009
0.022
-0.067
0.098
-0.006
0.034
0.004
-0.059
0.047
-0.052
0.041
0.042
-0.026
0.052
0.091
0.060
0.015
0.044
-0.063
0.051
0.012
-0.020
-0.020
-0.003
0.061
0.105
-0.043
0.016
0.024
-0.039
0.027
0.013
-0.076
-0.004
0.060
0.080
0.060
0.030
-0.008
0.051
0.099
0.030
-0.076
-0.029
0.005
0.024
0.038
0.011
0.075
-0.066
0.058
-0.055
0.016
0.015
0.061
0.063
0.002
-0.047
0.005
0.040
0.044
0.017
-0.105
0.057
0.040
0.039
0.111
-0.011
-0.010
0.013
-0.045
0.011
0.013
0.024
0.077
-0.003
0.042
0.022
0.127
-0.054
-0.082
0.068
0.048
0.079
0.029
0.023
0.016
0.019
-0.017
-0.004
0.073
-0.038
-0.012
0.093
-0.052
-0.029
0.116
-0.013
-0.028
-0.074
0.079
0.041
-0.028
0.013
0.077
0.135
-0.071
-0.011
0.013
0.046
-0.030
-0.061
-0.035
0.056
0.060
0.045
-0.022
0.034
0.044
0.021
-0.064
0.076
0.009
0.022
-0.069
-0.019
0.052
0.010
0.126
0.094
-0.027
0.019
-0.005
-0.004
0.081
0.011
-0.008
0.102
0.014
-0.028
0.050
-0.044
0.057
0.085
-0.042
-0.013
0.051
-0.018
-0.050
0.040
0.039
0.167
0.040
-0.041
-0.094
0.020
-0.033
-0.047
0.135
0.033
-0.054
0.025
0.128
-0.014
-0.006
-0.024
0.050
0.102
-0.055
0.013
0.047
0.072
-0.049
0.050
0.054
0.071
0.092
-0.034
0.025
0.033
-0.031
0.032
0.023
-0.029
-0.001
0.038
0.044
0.046
-0.045
0.003
-0.008
-0.010
0.111
-0.039
-0.022
0.092
0.016
-0.015
0.078
-0.012
0.021
0.007
0.091
0.002
0.082
-0.040
0.024
0.058
0.006
-0.059
-0.114
0.074
0.060
0.011
0.021
0.082
-0.012
-0.042
0.076
-0.026
0.037
-0.028
0.129
-0.011
0.022
-0.051
0.010
0.016
-0.041
0.050
-0.053
0.039
0.083
0.035
0.006
-0.035
-0.062
0.086
0.061
-0.011
-0.006
-0.008
-0.010
0.053
0.074
0.070
0.013
0.087
-0.056
-0.058
-0.041
0.009
0.070
-0.033
-0.030
0.050
-0.063
0.115
0.020
-0.084
0.055
-0.008
-0.014
0.008
0.059
-0.003
0.008
0.035
0.038
-0.037
0.074
0.104
0.091
-0.028
-0.082
-0.010
0.103
0.074
0.059
0.014
-0.060
0.020
0.017
0.004
0.004
0.013
-0.023
0.010
0.085
0.017
-0.028
0.006
0.005
0.036
0.017
0.057
0.043
-0.116
-0.008
0.079
0.076
-0.045
-0.007
0.005
0.022
-0.013
-0.070
-0.040
-0.057
0.108
0.002
0.030
0.047
-0.002
0.014
0.005
0.064
-0.097
-0.046
0.023
0.172
-0.051
0.036
-0.016
-0.040
0.010
-0.006
0.071
-0.055
-0.029
-0.028
0.020
0.050
0.093
-0.059
0.028
0.027
0.077
-0.039
0.074
-0.036
0.081
0.049
-0.017
-0.071
-0.052
0.014
0.017
0.089
-0.023
0.021
0.010
0.062
-0.011
0.002
0.034
0.015
-0.010
-0.085
0.033
0.035
0.012
-0.026
-0.009
0.002
0.000
0.057
0.045
-0.017
0.045
0.014
0.063
0.070
0.009
0.014
0.043
0.009
0.061
0.004
0.047
0.012
-0.126
0.012
0.128
0.050
-0.008
0.014
0.052
0.075
0.036
0.004
-0.015
0.029
0.022
-0.003
0.062
0.020
0.050
0.007
0.031
0.086
-0.016
-0.044
0.009
0.040
-0.011
0.063
0.005
-0.034
0.081
-0.051
0.037
0.019
0.030
0.001
0.081
0.101
-0.065
-0.008
0.010
-0.032
0.106
0.045
0.106
0.109
-0.011
0.000
-0.030
0.025
-0.003
0.075
0.018
-0.023
0.025
-0.068
-0.026
0.158
-0.028
0.042
-0.025
0.118
0.040
0.065
-0.077
0.026
-0.031
0.017
0.060
0.083
-0.077
0.015
-0.014
0.085
-0.029
-0.005
0.089
-0.005
-0.030
-0.026
0.032
0.046
-0.070
0.034
-0.017
0.105
0.084
-0.023
0.044
-0.062
0.141
0.005
0.001
0.009
0.062
0.075
0.045
-0.073
-0.048
-0.012
-0.001
-0.014
0.071
0.048
0.020
0.086
-0.071
-0.101
0.039
0.068
-0.012
-0.080
0.083
0.167
0.016
0.002
-0.012
-0.057
0.077
-0.007
-0.030
0.037
0.137
0.005
0.058
-0.033
0.010
0.026
0.002
-0.044
0.052
0.044
0.029
0.020
0.013
0.092
-0.018
-0.071
-0.017
0.019
0.028
0.031
0.068
-0.052
0.038
0.100
0.041
0.012
0.086
-0.051
0.109
-0.009
0.065
-0.026
0.064
-0.047
0.020
-0.002
0.086
-0.023
0.009
0.041
-0.026
0.090
0.086
-0.044
0.041
0.032
-0.015
-0.041
0.058
0.173
-0.013
-0.023
0.060
-0.034
0.098
0.025
0.035
-0.055
0.037
0.081
0.020
0.043
-0.028
0.034
-0.023
0.002
0.047
0.076
-0.103
-0.038
0.063
0.060
0.008
0.111
0.074
-0.111
-0.061
0.037
0.119
-0.033
0.036
-0.083
0.089
0.094
0.009
0.042
0.021
0.065
-0.044
-0.008
0.089
0.043
0.020
0.026
-0.100
0.048
-0.045
0.092
0.107
-0.040
-0.001
-0.044
-0.034
-0.023
0.050
-0.008
0.016
-0.089
-0.006
0.043
-0.000
-0.042
0.151
-0.031
0.093
0.016
0.032
0.021
0.057
-0.090
0.143
0.008
-0.070
0.019
0.051
0.012
-0.014
0.048
0.041
0.011
-0.066
-0.057
0.087
0.082
0.081
0.004
0.031
-0.037
-0.044
0.091
0.027
0.005
0.023
0.080
-0.006
-0.018
0.080
-0.040
0.069
0.018
-0.057
0.029
0.008
0.047
0.037
-0.011
-0.001
-0.046
0.147
-0.036
-0.079
-0.046
0.064
0.054
0.005
0.090
0.007
-0.074
0.081
0.040
0.041
0.095
0.010
0.056
0.004
0.017
0.082
-0.128
0.038
0.006
0.005
0.059
0.055
-0.006
0.080
-0.130
0.015
0.077
-0.012
-0.022
0.040
0.073
-0.071
-0.001
0.101
0.031
0.051
-0.035
0.025
-0.006
0.067
0.119
-0.011
0.022
0.074
-0.119
0.012
0.116
0.012
-0.049
-0.003
0.018
0.050
0.114
0.010
-0.045
-0.081
0.078
0.010
0.051
-0.057
-0.013
0.135
0.031
-0.123
0.058
0.077
0.143
-0.052
0.118
-0.006
-0.091
0.071
0.017
0.050
-0.176
0.068
0.075
0.009
0.045
0.022
-0.029
-0.116
0.139
0.084
0.028
0.007
-0.028
0.046
0.038
-0.001
0.056
0.056
-0.022
0.050
-0.007
-0.036
0.077
0.059
0.003
-0.046
0.085
-0.070
0.012
-0.051
-0.037
0.092
0.148
0.006
-0.069
0.051
-0.007
0.010
0.069
0.074
-0.108
0.008
0.017
0.038
0.035
-0.007
0.037
-0.050
0.098
-0.019
0.028
-0.041
0.059
-0.086
0.046
0.035
0.091
-0.003
0.034
-0.027
0.003
-0.084
-0.018
0.045
0.080
0.046
0.086
-0.066
-0.004
0.032
0.129
0.038
-0.010
-0.068
0.014
0.048
-0.006
0.043
0.041
0.019
-0.002
-0.050
0.091
-0.118
0.102
0.144
-0.006
0.002
0.034
0.019
0.027
-0.002
0.053
0.059
-0.096
-0.009
-0.065
0.061
0.117
0.091
-0.019
-0.073
-0.022
0.049
0.060
0.042
0.058
0.053
-0.024
-0.005
0.077
-0.019
-0.034
0.071
0.129
-0.033
0.080
-0.061
0.033
0.022
0.068
-0.041
-0.002
0.005
-0.036
-0.013
0.073
0.105
-0.062
-0.001
-0.001
0.046
-0.024
0.013
-0.054
0.076
-0.001
-0.006
-0.059
0.091
-0.003
0.021
-0.040
0.011
-0.019
0.079
0.029
0.016
0.099
0.005
-0.072
-0.014
0.166
0.101
-0.091
0.022
-0.002
0.135
-0.005
-0.003
-0.007
-0.050
0.029
0.017
0.094
-0.031
-0.103
0.028
0.014
0.073
-0.054
0.024
0.025
-0.022
-0.001
0.029
-0.013
-0.042
-0.046
0.083
0.040
-0.028
-0.015
0.078
-0.023
-0.101
0.040
-0.025
0.117
0.027
-0.035
0.039
-0.012
0.055
0.062
0.003
0.083
0.115
-0.113
0.074
0.012
0.108
0.025
0.051
0.043
0.052
-0.094
-0.032
0.012
-0.023
0.044
0.079
0.025
0.055
-0.030
0.073
0.030
0.015
0.037
0.049
-0.043
0.001
0.011
-0.001
0.018
-0.038
0.014
0.059
0.011
-0.011
-0.034
-0.011
0.018
0.002
0.037
0.047
0.001
0.002
0.020
0.019
0.049
0.117
-0.129
0.020
0.078
0.108
-0.010
-0.029
-0.007
0.060
0.050
-0.022
0.110
-0.066
0.047
0.077
0.015
-0.035
0.071
-0.020
0.069
0.062
-0.005
0.034
0.047
0.007
0.026
0.035
0.055
-0.020
-0.001
0.037
0.040
-0.033
-0.048
0.081
0.075
-0.053
0.081
-0.055
0.024
0.057
0.054
-0.001
-0.066
0.034
0.024
0.009
0.128
-0.034
-0.014
-0.011
-0.008
0.087
-0.061
0.001
0.076
-0.059
-0.029
0.018
-0.029
-0.006
0.090
0.067
-0.058
0.011
0.082
0.044
0.093
0.112
0.058
-0.027
-0.005
0.058
0.050
0.061
-0.011
0.041
0.035
0.039
-0.056
-0.070
-0.012
0.057
0.070
-0.010
0.012
0.089
0.025
-0.071
0.058
0.061
-0.075
0.040
0.051
0.011
0.024
-0.044
-0.015
0.043
0.045
-0.024
-0.073
0.062
0.101
0.088
-0.052
-0.028
0.020
0.002
0.066
-0.022
0.085
-0.004
-0.105
0.039
0.082
0.010
0.033
0.016
-0.001
0.003
0.121
0.025
0.011
-0.007
0.004
-0.014
-0.005
0.082
0.068
-0.025
0.097
-0.056
-0.004
0.103
0.078
-0.045
0.040
-0.092
0.001
0.041
0.054
0.090
-0.007
-0.046
-0.143
0.048
0.033
0.030
0.043
0.004
0.061
0.100
-0.014
0.035
0.119
0.125
0.041
-0.104
-0.014
0.132
0.106
-0.079
0.036
-0.032
-0.040
0.064
0.015
-0.011
-0.072
0.008
-0.022
0.127
0.003
-0.068
-0.040
0.059
0.030
0.094
0.059
0.012
-0.005
-0.029
0.091
0.070
0.113
-0.014
0.054
0.011
-0.054
0.100
0.013
-0.022
-0.076
0.066
0.008
0.046
0.067
-0.013
0.045
0.007
0.069
-0.013
-0.001
0.014
0.074
0.000
0.006
-0.004
-0.047
0.031
0.102
0.032
0.040
-0.030
-0.041
0.058
0.006
0.063
0.057
-0.042
0.110
-0.029
0.044
-0.029
-0.029
0.026
0.032
0.014
0.013
0.044
-0.021
0.049
-0.017
-0.006
0.087
0.062
0.063
0.031
-0.031
0.133
-0.104
-0.021
0.015
0.066
0.021
-0.044
0.034
0.081
0.050
0.053
0.002
-0.002
-0.031
-0.034
0.026
0.107
0.085
-0.028
0.023
-0.066
0.068
-0.025
0.122
-0.032
-0.040
0.063
0.028
0.087
-0.028
0.052
0.023
0.047
-0.002
-0.064
-0.052
0.078
0.061
0.063
-0.052
0.023
0.016
0.101
0.003
0.052
0.034
0.066
0.090
-0.056
-0.018
0.003
0.005
0.056
0.049
0.043
0.125
0.052
-0.047
-0.084
-0.011
-0.095
0.072
0.144
0.086
0.070
0.011
0.030
-0.030
-0.025
0.045
-0.009
0.096
0.077
0.052
0.028
-0.011
-0.031
0.023
0.048
0.019
0.050
0.103
-0.001
0.025
0.083
-0.079
0.078
0.000
-0.054
0.071
0.020
0.069
0.053
-0.025
-0.015
0.005
-0.007
0.026
0.002
0.024
0.027
0.029
0.114
-0.055
-0.014
-0.052
0.100
0.043
0.025
0.011
-0.022
-0.021
0.127
0.003
0.050
-0.082
-0.046
-0.031
0.111
0.075
0.115
0.021
-0.037
-0.045
0.050
-0.010
0.003
0.120
-0.095
0.042
-0.093
-0.027
0.078
0.054
0.088
0.006
-0.021
0.071
-0.032
-0.025
0.043
-0.009
0.040
-0.100
0.035
0.016
0.001
-0.074
0.072
-0.001
0.086
-0.014
0.081
-0.025
0.041
0.042
-0.014
0.108
-0.080
0.081
0.036
-0.011
0.050
-0.010
0.073
0.026
-0.062
0.039
0.003
-0.024
-0.004
0.064
-0.035
0.132
0.086
-0.071
-0.113
-0.019
-0.007
0.061
0.124
-0.016
-0.024
-0.010
-0.029
-0.029
0.079
0.035
0.120
-0.067
0.086
-0.008
0.025
0.012
0.010
0.050
0.061
-0.031
-0.082
0.014
0.133
0.044
0.117
0.044
-0.125
-0.030
-0.031
0.115
0.107
0.009
-0.062
0.007
0.015
0.014
0.091
0.044
0.046
-0.073
0.035
0.071
-0.018
-0.025
-0.054
0.057
0.044
-0.091
-0.017
0.034
0.038
0.025
0.019
-0.026
-0.086
-0.057
0.067
0.122
0.044
-0.033
0.031
-0.109
0.038
0.079
-0.026
-0.010
0.049
0.047
0.041
-0.050
0.030
0.046
-0.021
-0.080
0.069
-0.013
-0.017
0.056
0.056
-0.088
0.074
0.043
-0.003
0.019
-0.046
0.046
0.039
-0.048
0.011
0.056
-0.000
0.070
-0.049
0.020
0.052
-0.009
0.105
-0.092
-0.114
0.121
0.032
-0.021
-0.009
0.050
0.100
0.001
-0.028
0.004
0.000
-0.020
0.056
-0.046
-0.003
0.142
0.053
-0.013
0.004
-0.104
-0.086
0.090
0.127
-0.065
0.025
0.008
0.034
-0.039
0.081
0.001
0.046
-0.068
0.018
0.004
0.095
0.129
0.014
-0.029
-0.078
0.176
0.080
0.017
0.024
-0.121
0.062
0.140
0.035
-0.062
-0.038
-0.011
0.026
-0.051
0.092
-0.023
-0.056
-0.008
0.036
-0.043
0.003
0.044
0.028
0.006
0.024
0.050
0.021
-0.026
0.100
-0.016
0.001
0.001
0.055
-0.029
-0.015
0.056
0.046
0.032
0.003
0.070
0.050
-0.044
0.031
-0.031
0.097
0.023
0.023
0.058
-0.061
-0.015
0.047
-0.013
0.058
-0.068
0.029
0.072
-0.027
0.015
0.146
0.003
0.025
0.031
0.036
-0.068
0.008
-0.127
0.104
0.092
0.033
0.041
0.007
-0.075
-0.042
0.153
0.022
0.100
-0.063
-0.018
-0.129
-0.044
0.106
0.016
-0.003
-0.030
-0.058
0.041
0.156
-0.028
0.039
-0.050
0.062
0.009
0.085
-0.023
-0.109
0.066
0.122
-0.038
-0.029
0.033
0.153
0.051
-0.051
0.038
-0.079
0.014
0.071
0.085
0.053
-0.036
-0.050
0.025
0.089
0.073
-0.040
0.023
0.014
0.044
0.017
0.006
0.045
-0.035
0.064
-0.043
-0.023
-0.036
-0.059
0.094
0.038
-0.040
0.033
-0.027
-0.010
0.002
0.071
-0.064
-0.109
-0.021
-0.001
0.008
0.082
-0.009
0.040
0.065
0.006
0.055
0.013
0.080
0.153
0.024
-0.007
0.026
0.095
0.032
0.044
-0.066
0.062
0.044
-0.034
0.063
-0.014
0.052
-0.067
0.007
0.121
0.074
0.009
-0.022
0.011
-0.017
0.010
0.057
-0.009
0.002
0.027
-0.047
-0.061
0.050
0.093
0.003
0.009
0.077
0.138
-0.029
0.028
-0.009
0.044
-0.016
0.081
-0.031
0.053
-0.016
0.020
0.012
0.029
0.103
0.032
0.036
-0.020
-0.069
0.046
0.049
0.068
0.092
0.043
-0.029
0.011
0.127
0.016
0.048
-0.081
-0.047
0.041
0.091
0.068
-0.002
-0.040
-0.013
-0.043
0.096
0.024
0.023
0.131
0.029
0.005
0.085
0.009
-0.063
0.004
0.053
0.096
-0.084
0.042
0.028
-0.025
0.052
-0.019
-0.029
-0.029
0.122
0.053
-0.039
0.044
-0.027
0.048
-0.063
0.021
0.098
-0.028
-0.013
-0.035
0.040
0.152
-0.029
-0.022
-0.012
-0.024
0.056
0.080
-0.035
-0.076
0.030
0.068
0.074
0.059
-0.026
0.109
-0.031
0.039
-0.002
0.050
0.019
0.064
0.002
-0.008
-0.013
0.057
-0.073
-0.012
0.039
-0.003
0.020
-0.024
0.030
0.028
-0.005
0.105
0.033
0.015
0.062
0.059
-0.062
-0.047
0.002
-0.023
-0.003
0.097
0.064
0.069
0.025
-0.047
-0.013
0.094
0.041
-0.102
0.037
0.032
0.059
-0.013
-0.049
-0.062
0.141
0.048
0.115
-0.001
-0.104
-0.008
-0.012
0.051
0.016
0.096
0.020
0.160
-0.042
0.002
-0.135
0.007
0.051
0.111
-0.015
-0.039
0.086
-0.035
0.049
0.011
-0.065
0.014
-0.060
0.049
0.045
0.070
-0.013
-0.036
0.047
0.045
-0.011
-0.083
0.056
0.128
0.079
-0.077
0.067
0.008
0.009
0.011
0.001
0.034
0.047
-0.126
0.016
0.171
0.020
0.015
0.027
0.033
0.091
0.058
-0.000
0.026
0.070
-0.088
0.064
0.096
-0.056
-0.080
0.042
-0.005
-0.019
0.136
0.096
-0.035
-0.028
-0.101
0.006
-0.006
0.040
0.072
0.051
0.013
-0.008
-0.079
0.022
0.060
-0.009
0.108
0.098
-0.054
-0.007
0.073
0.135
-0.028
0.066
-0.029
0.030
-0.037
0.107
0.040
0.027
0.074
-0.011
0.074
-0.035
0.051
0.028
0.031
0.010
0.010
0.012
0.018
0.090
-0.043
0.096
0.028
-0.084
-0.048
-0.025
0.120
0.079
0.037
-0.015
-0.034
0.052
-0.014
0.056
-0.055
0.014
0.035
-0.029
0.029
-0.037
0.046
-0.046
0.057
-0.006
0.040
0.056
-0.019
0.088
-0.007
-0.068
-0.004
0.018
0.010
0.069
0.035
-0.043
-0.038
-0.029
-0.004
0.125
0.004
-0.039
-0.026
0.069
0.070
-0.039
-0.022
0.007
0.060
-0.011
0.083
-0.002
-0.101
0.014
0.063
0.094
0.072
0.079
0.001
-0.005
-0.050
0.069
-0.032
-0.003
-0.073
-0.034
-0.001
0.084
0.030
0.061
0.088
0.018
-0.065
0.000
0.085
0.018
0.005
-0.064
0.087
0.040
0.013
-0.009
-0.041
0.071
0.015
0.024
-0.013
0.020
0.046
-0.051
0.003
0.015
0.076
0.039
-0.001
0.053
-0.051
-0.012
0.140
0.045
0.004
-0.171
0.012
0.092
-0.048
0.035
0.046
0.052
-0.081
0.052
0.085
0.020
0.098
-0.042
-0.054
0.069
0.006
-0.007
-0.035
0.123
0.080
-0.030
0.033
-0.017
-0.008
0.069
0.009
-0.022
0.053
0.011
-0.010
0.079
-0.049
0.093
0.003
-0.036
-0.080
0.010
-0.001
-0.028
-0.014
0.027
-0.000
0.076
0.069
0.012
-0.013
-0.005
0.036
-0.113
0.021
0.021
0.114
0.045
-0.006
-0.009
0.062
0.085
-0.003
-0.012
0.058
-0.034
-0.041
0.051
-0.016
-0.067
0.065
0.024
0.024
0.016
0.007
-0.054
-0.018
-0.021
0.017
0.055
-0.061
0.094
0.029
0.013
-0.026
0.034
0.006
0.057
0.044
0.012
-0.061
0.072
0.027
-0.026
0.047
0.052
0.042
-0.012
0.070
-0.058
0.004
0.013
0.027
0.077
-0.013
0.044
0.095
-0.013
0.066
-0.068
0.025
0.002
-0.015
0.077
-0.010
-0.026
-0.041
0.035
-0.022
0.124
0.053
-0.065
-0.027
0.053
-0.032
0.041
-0.023
0.079
0.063
0.012
-0.082
0.093
0.071
0.092
-0.010
-0.014
0.007
0.010
0.059
0.003
-0.056
-0.019
0.018
0.137
-0.021
-0.005
0.005
0.028
-0.031
0.046
-0.051
0.034
-0.004
0.142
0.080
-0.001
-0.035
-0.055
0.013
0.040
0.035
0.038
-0.003
-0.066
-0.003
0.069
-0.034
0.033
0.095
0.026
0.011
0.006
0.017
-0.085
0.057
0.048
0.042
0.062
0.114
-0.045
-0.053
0.073
0.001
-0.038
-0.018
0.106
0.005
-0.008
-0.010
-0.033
0.033
0.006
0.125
0.073
-0.086
0.009
-0.066
0.006
-0.029
-0.042
0.059
0.005
0.058
0.015
0.060
-0.061
-0.049
0.053
0.001
-0.020
0.109
-0.002
0.047
0.020
0.008
0.129
-0.013
-0.047
0.027
-0.044
0.034
-0.036
0.037
0.004
0.075
0.054
-0.035
0.058
0.074
0.017
0.031
0.004
0.085
-0.015
0.052
-0.044
-0.041
0.089
-0.013
0.048
0.004
-0.022
0.046
0.009
-0.006
0.050
0.114
0.037
0.036
-0.013
0.017
0.003
0.043
-0.019
0.036
0.056
0.049
0.100
0.000
0.009
0.033
-0.041
0.063
0.039
0.000
-0.046
0.020
0.026
0.011
0.024
0.096
-0.004
0.014
0.047
0.033
0.041
-0.017
0.094
0.041
-0.033
-0.093
0.024
0.101
0.048
0.039
-0.010
0.058
0.051
0.024
0.016
-0.001
-0.071
-0.020
0.078
0.119
0.019
-0.074
0.013
0.047
0.029
0.114
0.025
-0.009
0.071
0.026
0.065
-0.048
-0.014
0.067
-0.055
-0.030
-0.007
0.047
0.038
0.158
-0.054
-0.053
-0.033
0.014
0.063
0.036
-0.023
0.073
0.135
-0.038
0.024
0.013
0.040
-0.009
0.057
0.027
-0.009
0.017
0.140
0.071
0.003
-0.051
-0.079
-0.005
0.187
0.036
-0.026
-0.076
0.055
-0.002
0.022
0.007
-0.026
0.049
0.020
0.093
0.014
0.040
-0.033
-0.031
0.095
0.031
0.005
0.030
-0.030
0.016
0.025
0.052
0.035
-0.033
0.024
-0.040
0.084
0.063
0.016
-0.019
0.055
-0.032
0.046
0.060
-0.011
-0.033
-0.033
0.087
0.073
0.006
-0.044
-0.023
0.071
0.015
-0.010
0.032
0.019
0.067
-0.029
-0.028
0.035
-0.021
-0.015
0.050
-0.016
0.024
0.052
0.034
-0.060
0.073
0.015
-0.012
0.072
0.002
0.023
0.046
0.032
-0.028
0.027
0.007
0.088
-0.014
-0.042
-0.041
0.018
-0.050
-0.004
0.069
0.094
0.000
-0.015
0.058
-0.041
0.065
-0.006
-0.045
0.075
-0.001
0.027
0.043
0.071
0.019
0.014
-0.001
0.034
0.053
0.046
0.034
0.001
0.086
-0.024
-0.041
0.026
0.089
0.024
-0.057
0.054
0.077
-0.020
-0.038
0.022
0.104
-0.005
-0.017
0.081
0.052
0.013
-0.013
0.001
-0.017
0.082
0.038
-0.019
0.033
-0.008
-0.007
0.031
0.093
0.066
-0.042
-0.031
0.032
0.022
-0.002
0.067
0.019
0.013
0.015
0.009
0.080
-0.004
0.037
-0.017
-0.069
0.024
0.098
0.039
-0.011
-0.059
0.015
0.074
-0.017
0.016
-0.030
-0.006
0.050
0.038
0.044
-0.063
0.062
0.071
0.050
-0.071
-0.010
0.047
-0.050
-0.053
-0.066
0.094
0.069
0.001
0.065
0.126
-0.071
0.051
-0.042
0.008
0.035
0.114
0.023
0.006
0.004
-0.007
0.020
0.057
-0.066
0.151
0.033
0.042
-0.025
-0.055
0.021
0.107
-0.033
-0.018
0.098
-0.028
-0.004
0.055
-0.005
0.099
-0.036
0.006
0.078
0.056
0.006
-0.036
0.033
0.103
0.040
0.067
-0.083
-0.059
-0.009
-0.018
0.046
0.095
0.015
-0.038
-0.063
0.059
0.096
0.028
0.040
0.048
-0.011
0.052
0.076
0.011
-0.089
0.090
0.019
0.077
0.018
-0.008
-0.055
0.132
0.079
0.012
-0.002
0.113
0.015
-0.103
0.034
0.022
0.077
0.000
-0.010
-0.013
-0.137
0.018
0.084
0.015
-0.016
-0.032
0.023
0.019
0.024
-0.071
0.025
-0.038
0.037
0.006
-0.054
0.046
0.066
0.094
0.041
-0.033
-0.026
-0.057
0.074
0.001
0.034
-0.001
0.046
0.043
-0.015
0.014
0.034
-0.067
-0.032
0.048
-0.041
-0.058
-0.005
0.019
0.062
0.042
-0.013
0.091
-0.087
-0.038
-0.015
0.086
0.063
-0.018
0.016
0.014
-0.052
0.012
0.097
0.038
-0.118
-0.004
0.046
0.031
0.167
0.010
-0.029
-0.006
-0.067
0.027
-0.007
0.046
0.052
0.033
-0.094
-0.012
0.137
0.060
0.006
-0.026
0.017
-0.006
-0.006
-0.036
-0.045
0.066
0.070
0.102
-0.063
-0.082
-0.042
0.113
0.067
0.005
-0.006
0.030
0.060
-0.041
0.119
-0.099
0.045
-0.000
0.051
-0.058
0.038
0.082
-0.020
-0.002
0.040
-0.003
0.063
0.102
-0.019
-0.096
0.055
0.070
0.089
0.063
0.052
-0.042
-0.030
-0.042
0.082
-0.002
0.054
0.047
-0.082
0.066
0.033
0.055
-0.042
0.070
0.063
-0.015
0.021
0.069
0.019
0.017
-0.023
0.039
0.031
0.041
0.050
-0.028
-0.030
-0.003
-0.002
0.083
-0.012
0.001
0.023
-0.020
0.047
0.067
0.065
-0.010
-0.048
0.048
-0.079
0.015
0.101
0.012
0.064
0.142
0.150
-0.059
-0.045
0.024
0.045
-0.003
-0.063
0.116
-0.002
-0.027
0.066
0.041
0.050
0.051
-0.086
0.019
0.028
0.087
0.035
0.027
0.010
0.103
-0.020
0.077
0.019
-0.060
0.011
0.019
0.072
0.035
-0.035
0.065
0.014
-0.003
-0.046
0.096
-0.072
0.008
0.085
0.058
-0.015
-0.013
0.039
0.092
-0.015
0.044
0.001
0.034
0.002
-0.046
0.047
0.027
0.032
0.076
0.004
0.001
0.045
0.048
-0.007
0.103
0.010
-0.098
0.057
0.038
-0.000
-0.033
0.149
0.031
-0.022
0.032
-0.041
0.030
0.025
0.062
0.069
-0.042
0.069
0.081
-0.031
0.042
0.013
-0.083
0.026
0.156
-0.013
0.019
-0.065
-0.056
0.020
0.027
0.034
0.057
-0.088
0.046
0.058
0.036
0.002
0.049
0.011
-0.022
0.092
0.065
0.027
0.006
0.007
0.105
-0.036
0.046
0.062
-0.017
-0.013
-0.001
0.042
0.038
-0.157
0.157
0.043
0.037
-0.042
0.056
0.067
0.005
0.056
-0.019
-0.027
0.051
0.072
-0.017
-0.061
0.045
0.101
0.014
-0.002
-0.086
0.073
-0.055
0.138
-0.002
0.023
0.065
-0.074
0.010
0.066
0.005
0.041
0.122
-0.016
0.004
0.016
-0.032
-0.039
0.170
0.049
0.109
0.056
-0.040
-0.087
0.005
-0.036
0.083
-0.049
0.047
0.049
0.044
-0.003
-0.050
-0.040
0.131
-0.026
0.051
0.028
0.078
0.005
0.101
0.059
-0.068
0.032
-0.044
0.066
-0.095
-0.063
0.101
0.063
0.113
0.011
0.018
-0.009
0.098
0.003
0.010
0.007
0.012
0.015
0.084
0.020
0.057
0.014
0.012
-0.011
-0.001
0.041
0.020
0.142
-0.088
0.001
0.002
-0.063
-0.026
0.048
-0.045
0.052
0.060
0.010
0.020
-0.035
0.058
0.109
0.019
-0.058
0.038
0.116
0.014
-0.026
-0.008
0.085
0.068
0.073
-0.014
-0.025
-0.053
0.003
0.108
0.059
0.134
0.008
-0.055
-0.011
-0.063
-0.086
0.045
0.092
-0.014
-0.000
0.048
-0.011
0.004
0.067
-0.044
0.028
0.005
0.003
0.014
0.034
0.012
0.082
0.044
-0.040
-0.049
0.015
0.075
0.023
0.041
-0.021
0.022
0.033
0.010
0.082
0.014
0.037
0.031
-0.058
-0.020
0.102
0.152
0.063
-0.065
0.124
0.005
-0.053
0.025
0.016
0.031
0.036
-0.078
-0.016
0.118
0.054
-0.032
0.069
0.019
-0.040
-0.033
-0.128
0.009
0.060
0.091
-0.031
0.038
0.032
-0.042
0.037
-0.037
0.104
-0.027
0.050
0.138
-0.056
-0.023
0.021
0.062
0.052
0.045
0.037
-0.055
-0.031
0.013
0.047
0.046
0.001
0.092
0.058
-0.018
-0.029
-0.008
-0.086
0.075
0.112
0.098
0.035
-0.036
0.079
-0.023
0.030
0.086
-0.091
-0.024
0.106
0.113
-0.045
-0.019
-0.012
0.005
0.082
0.037
-0.023
-0.059
-0.030
-0.027
-0.015
0.099
-0.001
0.104
-0.049
-0.029
0.025
-0.108
0.065
0.048
0.003
0.032
0.084
0.002
0.081
-0.001
0.072
-0.014
-0.019
0.016
0.078
0.047
0.013
-0.013
0.027
0.054
-0.035
0.058
0.009
-0.010
-0.063
0.030
0.023
0.036
0.019
-0.028
0.094
0.054
-0.002
-0.060
0.055
0.044
0.005
-0.003
0.038
0.160
-0.004
-0.069
-0.046
0.002
-0.003
0.136
0.072
-0.017
-0.057
-0.041
0.061
-0.053
0.085
0.035
0.078
-0.013
-0.019
0.075
-0.032
0.021
0.051
0.085
0.031
0.029
-0.068
-0.001
-0.050
0.040
0.059
-0.056
0.001
-0.032
0.032
0.010
0.001
0.071
0.072
0.037
-0.005
-0.040
0.082
-0.011
-0.011
0.087
-0.013
0.072
-0.025
0.073
-0.041
-0.015
0.027
0.157
0.017
-0.036
-0.004
0.074
-0.039
0.051
0.019
0.018
0.012
0.051
0.082
0.077
0.053
0.043
0.015
0.019
-0.004
-0.002
0.027
0.022
-0.012
0.014
0.019
-0.020
-0.022
-0.034
0.050
0.002
0.071
0.118
0.022
-0.026
-0.049
-0.003
0.046
0.072
0.023
0.042
-0.078
-0.042
0.037
-0.009
0.083
0.166
-0.026
0.010
0.019
0.026
0.009
0.084
0.049
0.036
0.016
0.035
0.080
-0.032
-0.007
-0.059
0.059
-0.049
0.027
0.044
-0.120
0.017
0.021
0.095
0.111
0.042
0.004
-0.063
0.001
0.012
-0.079
0.103
0.012
0.061
0.047
0.004
-0.043
-0.060
0.110
0.060
-0.051
0.017
0.060
-0.025
-0.001
0.045
-0.015
0.093
0.004
-0.050
-0.025
-0.000
0.073
0.138
-0.023
0.025
-0.024
-0.048
0.078
-0.046
0.021
0.087
0.043
-0.100
0.120
0.040
-0.021
0.089
0.032
0.025
-0.020
0.014
-0.000
0.003
0.051
-0.069
-0.004
0.064
-0.003
0.085
-0.010
0.052
-0.010
0.091
0.016
0.050
-0.012
-0.033
0.011
-0.014
0.049
0.073
-0.002
0.076
-0.011
-0.078
0.005
0.017
0.041
-0.009
-0.048
0.076
0.039
-0.047
-0.082
0.064
-0.015
0.085
0.023
-0.019
0.061
0.041
0.034
-0.043
-0.053
0.093
0.036
0.031
0.010
-0.021
0.053
0.005
-0.011
-0.015
-0.013
0.079
-0.007
0.020
0.009
0.044
-0.096
0.029
0.077
0.017
0.053
-0.032
0.044
0.005
0.047
-0.053
0.051
0.094
0.026
-0.072
-0.027
0.016
-0.010
-0.057
0.057
0.118
0.089
-0.049
-0.013
-0.016
0.091
0.053
-0.013
-0.069
0.053
0.008
0.016
0.059
0.046
-0.041
-0.092
0.022
0.041
0.126
0.064
-0.032
-0.030
0.102
-0.003
-0.018
0.123
0.100
-0.006
-0.013
0.030
0.068
-0.014
0.110
-0.040
0.018
0.069
0.019
0.024
-0.032
0.023
-0.071
0.067
0.079
0.109
-0.013
0.019
-0.009
0.017
0.019
0.055
0.027
-0.004
-0.015
0.048
0.088
0.028
-0.014
0.022
0.055
0.014
-0.048
-0.044
-0.026
0.025
0.115
-0.009
0.040
-0.031
0.004
0.018
0.001
0.044
0.040
0.094
-0.072
0.037
0.045
-0.002
0.001
0.011
-0.017
-0.015
0.110
0.052
-0.055
0.029
-0.028
0.047
-0.014
0.079
-0.008
-0.018
-0.057
0.051
-0.002
-0.006
0.057
0.047
0.023
-0.023
0.009
0.008
0.038
0.006
-0.091
0.030
0.086
0.005
-0.052
-0.026
-0.002
0.073
0.022
0.039
0.062
0.006
0.056
0.106
-0.033
-0.030
0.117
0.003
0.004
-0.028
0.080
0.010
-0.027
-0.110
-0.055
0.098
0.047
-0.004
-0.067
-0.013
0.036
0.085
0.058
0.001
0.044
0.070
-0.047
-0.031
0.081
-0.024
0.078
0.096
0.018
-0.025
-0.046
0.008
-0.019
0.037
0.046
0.034
0.041
-0.009
0.069
-0.048
0.012
0.001
0.028
0.107
0.030
0.051
0.021
-0.044
0.005
0.091
0.026
0.043
-0.079
-0.037
0.076
-0.013
0.115
0.030
-0.033
0.091
-0.048
-0.031
0.061
-0.094
0.034
0.014
0.003
0.059
-0.016
-0.019
0.060
0.028
0.139
0.072
0.008
0.018
0.030
0.003
0.052
-0.085
0.051
0.080
-0.003
-0.022
-0.031
-0.012
0.016
-0.015
0.082
0.066
-0.054
0.060
-0.026
0.108
-0.012
0.085
-0.113
-0.086
0.007
-0.023
0.110
0.055
-0.020
-0.030
0.044
-0.081
0.119
0.095
0.016
-0.062
0.090
0.023
0.036
-0.033
0.068
0.081
-0.089
-0.033
-0.002
0.089
0.089
0.064
-0.107
0.012
0.004
0.051
0.034
0.082
0.011
0.020
0.108
-0.048
-0.016
-0.051
-0.020
0.007
0.078
0.065
0.025
0.021
-0.025
-0.051
0.056
0.074
-0.013
-0.030
0.013
0.076
0.020
-0.082
0.108
0.030
-0.055
-0.083
-0.036
0.042
0.091
0.093
0.020
-0.034
-0.004
0.094
0.066
0.058
0.039
0.020
-0.061
0.124
0.023
0.045
0.015
-0.037
-0.012
0.023
0.087
0.070
-0.041
-0.004
0.037
-0.060
0.058
0.053
-0.010
0.031
0.070
0.000
-0.003
0.020
-0.094
0.091
0.009
0.014
0.019
-0.001
-0.054
0.135
-0.017
0.062
-0.024
0.062
0.009
0.005
0.003
0.107
0.042
-0.139
0.055
0.001
-0.013
0.085
-0.063
-0.015
0.085
0.014
0.024
0.051
0.014
-0.035
0.031
0.127
-0.144
-0.085
0.101
0.075
0.105
-0.034
-0.019
-0.012
-0.025
0.000
0.067
0.068
-0.068
0.038
-0.001
0.088
-0.015
-0.049
-0.016
0.066
-0.111
0.110
-0.017
0.062
0.051
-0.036
-0.004
0.004
0.108
-0.004
0.024
0.025
0.096
0.025
0.009
0.046
0.029
0.107
-0.020
0.079
-0.013
0.068
0.018
-0.049
0.037
-0.012
0.093
0.061
-0.021
0.003
-0.102
-0.033
-0.053
0.077
0.022
0.014
0.065
0.083
-0.064
-0.025
0.081
0.118
0.074
-0.053
0.008
0.022
0.046
0.011
0.102
-0.038
0.044
0.033
-0.015
-0.002
-0.018
0.065
0.042
0.024
0.068
0.016
0.008
0.061
0.093
-0.081
0.132
0.065
0.054
-0.061
-0.031
0.188
0.121
0.058
-0.007
-0.081
-0.012
0.048
-0.019
-0.065
0.057
0.095
0.077
-0.093
-0.011
-0.055
-0.031
0.141
0.051
-0.004
0.024
-0.024
-0.032
0.004
0.075
0.077
0.041
0.025
-0.012
0.023
0.036
0.009
-0.017
0.066
-0.059
-0.006
-0.030
0.062
0.003
0.010
-0.031
-0.010
0.025
0.048
0.050
0.048
0.005
0.047
0.042
0.035
0.059
0.092
-0.030
-0.013
-0.073
0.089
0.010
0.061
0.050
-0.060
-0.014
0.108
-0.080
0.133
0.116
0.049
-0.056
-0.060
0.076
-0.050
0.004
0.045
0.154
-0.061
0.045
-0.059
0.044
-0.032
0.094
0.016
0.025
0.022
-0.008
-0.008
0.085
-0.056
-0.021
0.057
0.042
0.045
-0.002
-0.000
0.023
0.002
0.125
-0.034
0.070
0.007
0.051
-0.016
0.025
0.014
0.110
-0.020
-0.021
0.011
-0.028
-0.003
0.120
-0.037
0.029
0.098
-0.017
0.042
-0.048
0.147
0.037
0.033
0.062
0.078
-0.002
-0.007
-0.079
0.056
0.161
-0.046
-0.074
0.016
0.099
0.025
-0.007
0.097
0.015
-0.006
-0.032
0.012
0.026
0.029
-0.000
0.036
0.030
0.086
-0.073
-0.035
-0.022
0.076
0.052
-0.008
-0.032
0.083
-0.076
0.047
0.003
-0.048
0.077
-0.014
0.013
0.019
0.052
0.112
-0.019
-0.078
-0.002
0.077
-0.045
-0.026
0.074
0.080
0.042
0.028
0.033
-0.033
0.030
0.009
-0.046
0.040
-0.008
0.014
0.081
-0.048
-0.105
0.042
-0.068
0.116
-0.004
0.075
0.091
-0.014
0.006
-0.029
-0.067
0.022
0.021
-0.021
0.073
0.041
0.036
0.015
0.063
-0.078
0.030
0.021
0.049
0.017
-0.016
-0.005
-0.033
-0.001
0.100
0.049
0.011
0.069
-0.061
0.041
-0.042
-0.061
0.046
0.052
0.024
-0.016
0.008
0.027
0.098
0.059
-0.073
0.079
-0.011
-0.031
0.062
-0.100
-0.010
0.020
0.090
-0.022
0.019
0.019
0.058
-0.017
-0.052
0.079
0.041
0.038
0.025
-0.034
0.124
-0.045
0.027
0.003
0.031
0.131
0.039
-0.086
0.112
-0.008
-0.021
0.149
-0.008
0.004
-0.026
0.034
-0.051
-0.006
-0.009
0.031
0.019
0.046
0.093
-0.051
0.083
-0.031
0.066
0.062
0.068
0.016
0.052
-0.075
-0.065
0.067
0.024
0.006
-0.063
-0.025
0.011
-0.041
-0.003
0.133
-0.062
0.006
-0.067
0.103
0.053
0.014
0.094
-0.052
-0.024
0.052
-0.011
-0.036
0.031
0.091
0.001
0.051
0.075
-0.045
0.065
0.010
-0.019
0.009
0.045
0.031
-0.045
-0.017
-0.051
0.081
-0.038
0.008
-0.022
0.071
-0.028
-0.061
-0.068
0.129
0.048
-0.035
-0.054
0.040
-0.019
0.059
0.023
0.040
0.110
-0.055
0.105
-0.013
-0.013
-0.001
0.045
0.033
-0.001
-0.015
0.042
-0.051
0.013
0.050
-0.027
0.085
0.049
0.031
-0.028
0.015
-0.009
0.005
0.000
0.029
0.010
0.088
0.024
0.019
-0.070
-0.083
0.020
0.135
0.053
0.021
-0.011
-0.001
0.091
0.007
-0.025
0.000
-0.058
0.076
0.106
0.067
-0.028
-0.004
0.023
0.004
0.067
0.014
0.058
0.049
0.034
0.024
0.011
-0.061
0.071
0.002
-0.003
-0.037
0.059
0.028
0.053
0.143
0.011
-0.040
0.021
-0.017
-0.003
0.016
0.013
0.128
-0.045
0.140
-0.038
-0.010
-0.053
0.001
-0.018
0.057
0.111
-0.020
0.051
0.056
0.070
0.009
-0.043
0.028
0.016
0.028
0.124
-0.005
-0.042
0.021
-0.044
0.056
-0.008
-0.007
0.083
-0.049
-0.003
0.082
0.011
0.091
-0.113
0.003
-0.004
0.067
-0.051
0.080
0.041
-0.001
-0.036
-0.017
0.081
0.069
0.086
0.105
-0.071
-0.009
0.079
0.014
0.065
0.015
0.046
0.054
0.002
-0.030
0.057
-0.062
-0.021
0.026
0.051
-0.109
-0.013
0.092
-0.006
0.125
-0.037
0.024
0.011
-0.005
0.046
0.045
-0.034
0.041
0.042
0.110
-0.045
-0.035
0.033
0.111
-0.003
0.002
0.036
0.002
0.056
-0.048
-0.002
-0.037
0.095
0.095
0.150
-0.026
0.035
0.032
-0.008
0.051
-0.012
0.016
0.004
0.075
-0.010
-0.045
-0.019
0.018
0.045
-0.022
-0.027
0.051
0.012
0.018
-0.091
0.092
0.037
0.042
0.042
0.030
-0.001
0.071
0.026
-0.034
0.026
0.050
-0.004
0.062
0.022
0.063
-0.027
-0.000
0.089
-0.013
0.001
0.021
0.033
-0.022
0.060
0.014
-0.039
0.076
0.125
0.110
-0.042
-0.011
0.044
0.049
-0.113
-0.016
0.089
0.072
0.130
0.014
0.010
0.031
0.077
-0.028
-0.069
0.101
0.031
-0.040
0.066
0.006
0.095
0.040
0.061
-0.073
-0.012
-0.015
0.069
0.058
-0.007
-0.054
0.046
0.071
0.069
0.113
-0.094
0.064
0.009
0.043
-0.035
0.043
0.025
0.021
0.058
-0.030
0.067
-0.007
-0.070
0.011
0.054
0.022
0.119
0.023
-0.064
0.053
0.003
0.019
-0.004
0.078
0.067
-0.034
0.027
0.035
-0.002
-0.002
0.162
-0.035
0.035
0.057
0.056
-0.035
0.037
0.031
0.050
0.010
-0.001
-0.022
-0.074
0.028
0.015
0.026
-0.030
0.020
0.045
0.019
0.015
0.042
0.085
-0.002
-0.065
-0.018
0.039
0.023
-0.010
-0.010
0.040
0.042
-0.050
-0.024
0.004
0.092
0.042
-0.021
0.102
0.072
0.096
-0.089
-0.097
0.063
0.012
0.059
0.124
0.012
0.025
0.039
-0.056
-0.092
0.071
0.063
0.066
-0.044
0.041
0.020
-0.014
0.061
0.020
-0.038
-0.024
0.102
0.010
-0.034
0.077
-0.036
0.060
0.053
0.091
-0.060
0.098
-0.136
0.054
-0.017
0.052
-0.002
0.084
0.026
-0.011
0.054
0.005
-0.032
0.045
-0.049
0.066
0.026
0.107
0.046
-0.102
0.002
0.052
0.028
0.015
-0.040
0.143
0.012
-0.009
0.048
-0.011
0.111
0.049
-0.053
-0.069
-0.050
0.064
-0.054
0.022
0.056
0.057
-0.005
-0.049
0.042
0.112
-0.037
-0.038
0.042
0.027
0.007
-0.047
0.117
0.017
0.021
0.063
0.043
-0.041
0.024
0.031
0.041
0.038
-0.031
0.086
-0.072
0.052
0.023
0.125
-0.020
-0.041
0.052
0.014
0.024
0.008
0.037
-0.020
0.029
0.028
0.049
0.015
-0.044
0.025
-0.031
0.019
0.108
-0.001
0.029
-0.006
-0.020
-0.003
0.085
0.032
0.006
0.042
0.024
0.034
-0.084
0.035
0.117
-0.006
0.035
0.035
-0.024
0.003
0.094
0.043
-0.053
0.027
0.066
0.070
0.067
-0.029
-0.003
-0.054
0.040
0.013
0.020
0.066
0.051
0.057
0.041
-0.032
0.027
0.056
-0.044
-0.010
0.045
0.133
0.029
0.008
-0.099
0.000
0.008
0.064
-0.010
0.057
0.032
0.042
0.063
-0.051
-0.047
0.036
-0.044
0.038
0.198
-0.003
-0.044
0.023
0.014
0.014
-0.035
-0.042
0.039
0.036
0.077
-0.006
0.057
0.021
0.005
0.030
0.005
-0.015
0.040
0.029
0.046
0.016
0.055
-0.006
0.013
0.015
0.078
-0.021
0.034
0.019
0.038
-0.108
-0.063
0.118
0.088
0.032
-0.021
0.073
0.002
-0.093
0.013
0.190
-0.058
0.040
0.070
-0.005
-0.016
-0.031
0.020
0.033
0.008
0.080
-0.002
0.077
0.039
-0.074
-0.039
-0.051
0.062
-0.038
0.124
-0.024
0.073
0.064
-0.057
-0.018
-0.021
0.050
0.055
0.019
-0.050
0.048
0.056
0.050
-0.047
0.045
0.079
0.081
-0.085
-0.012
0.009
0.086
-0.028
0.097
0.015
-0.003
0.003
-0.045
0.064
0.074
0.038
-0.069
0.012
0.017
0.074
0.080
-0.048
-0.092
0.031
0.009
0.066
0.002
-0.130
-0.065
0.219
-0.094
0.014
0.027
0.075
-0.056
0.014
0.071
0.075
0.033
0.018
-0.042
-0.028
0.052
0.049
-0.006
-0.027
-0.038
-0.006
0.083
0.061
-0.018
0.020
0.077
-0.049
0.038
0.075
0.062
-0.060
-0.025
0.047
0.065
-0.010
0.008
-0.013
0.023
0.047
0.001
-0.027
-0.014
0.030
-0.032
0.176
0.011
-0.063
-0.107
0.116
0.130
0.038
-0.065
0.048
-0.049
-0.020
0.059
-0.056
0.011
-0.010
0.081
-0.005
-0.063
-0.045
0.067
0.024
0.026
0.077
0.103
-0.067
-0.020
0.046
0.021
0.063
-0.006
0.055
0.039
-0.006
-0.062
-0.004
0.019
0.037
-0.061
0.100
0.117
-0.086
0.054
0.016
0.032
0.042
-0.038
0.078
0.019
-0.028
-0.002
0.125
0.020
-0.035
-0.043
-0.008
0.013
0.008
0.078
-0.053
0.027
0.006
-0.030
0.047
0.023
0.123
-0.069
0.032
-0.067
-0.006
0.090
-0.001
-0.007
0.058
0.048
0.080
-0.025
0.077
-0.102
0.058
-0.095
0.020
0.067
0.067
0.058
-0.046
0.014
0.010
-0.077
0.068
0.010
0.031
0.052
0.052
0.070
-0.076
-0.042
-0.023
0.057
0.054
0.108
-0.017
-0.034
0.166
-0.012
-0.014
-0.023
-0.038
0.068
-0.060
0.056
0.053
0.139
-0.014
0.027
-0.101
-0.038
0.037
0.084
0.088
-0.019
-0.020
0.021
0.034
0.032
0.035
0.022
0.026
0.089
-0.013
0.035
0.015
-0.055
0.013
0.053
0.007
0.079
0.023
0.006
0.061
0.042
-0.029
-0.036
0.105
-0.003
0.007
0.035
-0.041
-0.021
0.012
0.064
0.057
0.072
-0.056
-0.072
0.073
0.055
-0.033
-0.010
0.064
-0.017
-0.094
-0.004
0.062
0.057
0.014
0.058
0.001
0.015
0.063
0.027
-0.033
0.076
0.004
