2.332
1.385
-0.191
-1.048
-1.365
-1.224
-0.921
-0.349
0.437
0.607
0.846
1.089
0.988
0.841
0.507
0.256
0.304
-0.080
-0.139
-0.195
-0.298
-0.321
-0.215
-0.166
-0.090
-0.117
-0.133
0.025
-0.085
0.140
0.145
0.149
0.035
0.065
0.203
-0.039
-0.097
0.074
0.173
-0.011
0.060
0.238
0.198
0.136
0.192
0.166
-0.029
0.124
0.149
0.098
0.302
0.109
0.074
0.126
0.031
0.021
0.126
0.278
-0.029
0.041
0.117
0.034
0.083
0.089
-0.123
0.047
0.047
-0.074
0.178
0.010
-0.158
-0.038
0.131
0.078
-0.080
-0.041
-0.139
0.120
0.108
-0.000
-0.256
-0.083
-0.087
0.033
0.075
0.062
-0.099
-0.077
-0.094
0.043
0.043
0.040
-0.266
-0.049
-0.025
-0.030
-0.008
0.105
-0.022
0.001
0.075
-0.162
0.014
-0.165
-0.083
0.037
0.111
0.110
0.148
-0.025
-0.060
0.114
-0.014
0.089
0.057
0.069
-0.029
0.388
1.271
1.311
0.512
-2.557
-1.828
0.429
1.512
1.194
0.480
-0.136
-0.451
0.229
0.864
0.722
0.474
0.153
-1.908
0.560
-2.006
-0.712
1.079
1.504
1.074
0.932
0.114
-2.009
0.197
-1.456
-0.002
-0.219
1.352
1.861
1.264
0.965
0.226
0.164
0.741
0.749
-0.946
-2.117
-1.430
0.963
2.217
1.915
1.524
0.402
-2.790
-2.387
-1.099
-0.250
0.616
0.997
1.321
1.094
0.856
0.837
0.511
0.280
0.227
0.149
0.052
0.037
0.180
-0.030
-0.031
-0.003
-0.023
0.141
-0.045
0.007
0.078
0.191
0.059
0.192
0.064
0.063
0.121
0.277
0.082
-0.156
0.122
0.091
0.145
0.180
0.096
0.069
-0.071
-0.064
0.039
0.106
0.098
0.158
0.143
0.090
-0.163
0.076
0.519
-0.627
-0.552
0.000
0.188
0.231
0.192
0.068
0.067
0.129
-0.050
-0.124
-0.076
0.028
-0.023
-0.007
0.067
0.057
0.023
0.031
0.155
0.046
-0.125
-0.040
0.028
0.023
0.027
-0.043
-0.282
-0.109
-0.043
0.048
-0.030
-0.067
0.007
-0.040
-0.058
-0.092
0.039
0.032
-0.138
-0.009
0.029
0.742
-0.044
0.221
1.017
1.150
-0.582
-1.475
0.145
1.832
0.600
1.129
-0.606
-0.649
0.951
-0.065
0.577
0.594
-1.012
-2.754
1.012
2.713
1.756
1.060
-0.727
-2.503
-2.223
-0.166
1.694
2.193
1.455
0.729
0.138
0.207
0.160
0.152
-1.268
-3.414
0.771
3.550
2.002
-2.172
0.261
1.865
-1.103
-2.644
-0.948
0.348
0.784
0.814
1.058
1.269
1.818
1.638
1.355
0.835
-0.176
-2.545
-2.215
0.452
1.690
1.654
0.871
0.097
-0.755
-1.030
-1.116
-0.825
-0.315
0.039
0.446
0.675
0.749
0.706
0.759
0.549
0.328
0.090
0.178
0.012
-0.059
-0.096
-0.104
-0.046
-0.148
-0.187
-0.214
-0.097
0.060
0.068
-0.031
-0.225
0.012
-0.005
-0.125
-0.079
0.080
0.069
0.032
0.023
0.324
0.392
0.341
0.740
0.905
0.524
-0.081
-0.804
-0.647
-0.446
-0.005
0.226
0.386
0.187
-0.103
-0.346
-0.540
-0.566
-0.656
-0.451
-0.039
0.547
0.923
0.843
-0.589
-2.881
-3.868
-0.776
2.470
3.013
1.833
0.533
-0.578
-0.921
-0.940
-0.600
-0.022
0.481
1.033
0.942
0.983
1.125
0.823
0.575
0.321
0.169
0.009
-0.120
-0.336
-0.336
-0.245
-0.332
-0.426
-0.307
-0.274
-0.075
-0.059
-0.041
0.117
0.049
0.050
-0.209
0.007
0.049
-0.030
-0.124
-0.088
-0.071
-0.015
0.101
-0.047
0.027
0.182
0.115
-0.188
0.035
0.144
0.099
-0.031
0.102
0.102
0.046
0.179
0.027
0.193
0.121
0.329
0.036
-0.212
0.080
0.095
-0.023
0.234
0.343
0.328
0.103
-0.050
0.021
-0.052
0.076
0.052
0.030
0.071
0.167
0.244
-0.039
-0.039
0.007
-0.080
-0.054
-0.017
0.073
-0.099
0.017
-0.026
0.125
0.056
-0.067
-0.197
-0.139
-0.005
-0.104
0.018
0.150
0.046
0.044
-0.043
0.095
-0.029
-0.248
-0.075
-0.054
-0.021
0.175
0.036
-0.014
-0.242
-0.102
0.097
0.177
0.066
-0.004
-0.240
-0.043
0.019
-0.002
0.117
0.142
0.211
-0.163
-0.141
0.097
0.207
0.202
0.117
-0.020
-0.030
0.118
0.021
0.186
0.047
-0.051
0.256
0.066
-0.064
0.094
0.064
0.103
-0.020
-0.149
0.199
0.231
-0.125
0.022
0.006
-0.063
-0.073
-0.039
0.052
0.092
0.019
0.006
0.019
0.031
-0.085
-0.090
0.023
0.079
0.004
0.079
0.040
-0.092
-0.102
0.033
-0.064
-0.058
0.175
0.103
0.006
0.124
0.007
0.001
0.018
-0.103
0.177
-0.031
-0.101
0.032
-0.080
0.050
0.041
0.061
0.054
0.068
0.154
-0.038
-0.046
-0.063
0.037
0.034
0.019
-0.047
0.167
-0.058
0.062
0.063
0.145
0.112
-0.079
-0.034
0.025
0.053
0.180
-0.111
-0.010
0.105
0.106
-0.011
0.026
0.080
-0.016
-0.100
0.092
0.003
0.056
0.036
-0.058
-0.020
-0.099
-0.079
0.108
0.034
0.131
-0.042
0.043
0.001
-0.036
-0.062
0.093
0.040
-0.042
0.024
0.145
-0.176
-0.008
0.100
0.028
0.181
0.114
-0.015
0.038
-0.048
-0.013
0.029
-0.001
-0.032
-0.108
0.290
0.110
0.057
0.032
-0.099
0.085
0.047
0.005
-0.014
0.096
0.068
0.135
-0.079
-0.059
-0.118
0.153
-0.108
0.103
0.007
0.015
-0.031
0.001
-0.044
0.054
-0.033
0.114
0.115
-0.039
-0.071
0.039
0.108
0.168
0.104
-0.047
-0.010
-0.000
0.033
-0.001
0.109
0.012
-0.018
0.013
-0.012
-0.015
-0.056
-0.093
0.014
0.101
0.185
0.134
-0.049
-0.007
0.094
-0.093
-0.174
-0.212
0.007
0.263
0.282
0.063
-0.034
-0.131
-0.038
-0.047
0.086
0.055
-0.022
-0.045
0.070
0.072
0.113
0.065
0.030
0.022
-0.052
0.052
0.065
0.032
-0.083
0.006
-0.083
-0.018
0.197
0.039
0.095
0.012
0.076
-0.100
-0.003
0.129
0.121
-0.053
0.021
0.043
-0.051
-0.093
0.163
0.140
-0.023
-0.011
-0.060
0.079
-0.032
0.066
0.009
-0.052
0.088
0.035
0.032
0.092
0.103
-0.062
0.027
0.147
0.047
-0.010
0.031
0.103
0.004
-0.037
0.157
0.043
-0.029
0.068
-0.078
0.020
-0.059
-0.008
0.115
0.107
-0.083
-0.084
0.069
0.088
-0.065
0.148
0.055
-0.023
0.109
0.085
-0.056
0.020
-0.005
-0.116
-0.163
0.023
0.260
0.097
-0.011
-0.005
-0.111
-0.181
0.106
0.090
0.146
-0.045
-0.115
-0.019
0.141
-0.034
0.084
0.096
-0.101
0.032
0.008
-0.010
-0.099
0.103
0.242
0.060
0.056
-0.145
-0.103
0.096
0.110
0.096
-0.061
-0.001
-0.007
-0.015
-0.017
-0.151
0.014
-0.006
0.264
0.271
-0.075
0.006
0.122
0.025
-0.166
-0.034
0.161
0.245
0.143
-0.149
-0.089
-0.035
0.036
0.051
0.132
-0.186
0.048
-0.007
-0.034
0.127
0.152
0.003
-0.055
-0.035
0.110
0.119
0.073
-0.051
-0.042
0.174
0.083
0.096
0.084
-0.121
0.110
-0.062
-0.038
0.026
0.055
0.121
-0.011
-0.158
0.079
0.102
0.025
0.001
-0.069
0.119
-0.035
0.087
0.128
0.101
0.041
0.010
0.082
-0.049
0.079
-0.106
0.026
0.019
0.001
-0.019
-0.077
-0.033
0.093
0.218
-0.026
-0.092
0.066
-0.035
-0.009
-0.026
0.055
-0.066
0.058
-0.010
-0.064
0.129
0.167
0.152
-0.076
-0.018
0.019
-0.095
-0.117
0.106
0.136
0.114
0.020
0.060
-0.102
-0.017
-0.073
-0.039
-0.011
0.083
0.112
0.028
-0.087
0.077
0.045
-0.039
-0.025
0.023
0.075
0.020
-0.014
-0.076
0.003
-0.017
0.178
0.069
-0.091
0.128
0.077
-0.217
-0.019
0.083
0.125
-0.005
0.163
-0.028
0.027
0.184
-0.043
0.051
-0.053
-0.035
-0.077
0.189
0.191
0.136
-0.056
-0.165
0.016
-0.054
0.086
-0.101
-0.045
0.019
0.128
0.054
0.089
-0.110
-0.171
-0.010
0.061
0.132
0.048
-0.081
0.109
-0.091
-0.015
0.065
0.061
0.032
0.038
0.104
0.150
0.037
0.095
0.082
-0.088
0.078
-0.033
-0.049
0.043
0.015
0.135
-0.025
-0.009
-0.037
0.131
0.034
-0.046
0.022
0.720
0.258
0.990
0.659
-1.445
-2.045
0.689
0.855
-0.405
0.876
1.400
1.038
0.180
-2.530
-2.555
0.079
1.047
0.910
0.587
0.230
-0.034
-0.333
-0.290
0.309
1.045
1.076
0.685
0.418
0.435
0.458
0.563
0.494
0.581
0.529
0.242
0.208
0.024
-0.146
-0.390
-0.366
-0.519
-0.429
-0.367
-0.375
-0.201
-0.275
-0.051
0.003
0.086
0.027
0.216
0.090
0.207
0.262
0.134
0.072
0.132
0.097
0.167
0.160
0.248
0.171
0.197
0.237
0.139
0.237
0.141
0.162
0.050
0.137
0.057
0.118
0.034
0.044
0.066
0.349
0.071
0.166
-0.055
-0.131
-0.418
-0.138
-0.589
-0.909
-2.311
-3.352
-2.137
-0.194
0.782
-1.364
-3.357
-2.253
-0.184
2.282
2.336
0.621
0.464
0.426
0.597
1.251
2.099
1.593
1.388
3.150
3.687
2.945
1.828
0.956
0.077
-2.007
-1.006
-0.069
-0.156
-1.901
-4.410
-4.648
-1.855
1.904
2.575
1.027
-0.636
-1.500
-2.692
-4.118
-0.036
3.234
4.146
2.980
1.954
0.793
-0.152
-0.422
-0.255
-3.092
1.354
3.760
4.036
2.597
1.044
-1.386
-3.497
-0.376
3.267
4.265
2.874
0.675
-2.455
-2.974
1.486
3.373
2.854
1.667
-2.141
-0.143
0.488
1.404
1.371
-0.355
0.527
0.977
0.458
0.239
0.050
0.141
0.505
1.357
1.823
1.551
1.338
0.997
0.910
0.978
1.078
0.992
0.807
0.398
0.172
-0.406
-0.546
-0.585
-0.736
-1.890
-2.602
-1.682
-0.629
-0.159
0.039
-0.073
-0.154
-0.319
-0.024
0.312
0.376
0.717
0.941
1.016
0.938
0.874
0.780
0.828
0.826
0.481
0.151
-0.084
-0.186
-0.258
-0.442
-0.506
-0.351
-0.417
-0.488
-0.425
-0.426
-0.229
-0.406
-0.268
-0.307
-0.316
-0.337
-0.303
-0.178
-0.307
-0.330
-0.250
-0.390
-0.243
-0.331
-0.176
-0.216
-0.086
-0.104
-0.103
-0.238
-0.266
-0.091
0.010
-0.005
-0.074
-0.054
0.181
0.122
0.002
0.035
0.036
0.183
0.178
0.090
-0.011
0.063
0.052
-0.037
0.147
0.243
0.187
0.220
0.106
0.246
0.206
0.144
0.095
0.051
0.112
0.155
0.221
0.186
0.064
-0.426
-0.022
0.662
-1.357
-0.017
0.752
0.958
0.528
0.154
-0.028
0.464
1.179
-1.414
-0.583
0.315
0.997
1.431
1.753
1.145
-1.989
0.001
1.566
1.294
0.594
0.126
-0.085
-0.028
-2.615
-2.515
1.423
2.892
1.946
0.440
-0.777
-1.328
-1.719
-1.276
-0.908
-0.202
0.136
0.440
0.724
0.990
0.830
0.663
0.468
0.268
0.129
-0.042
-0.081
0.021
-0.254
-0.270
-0.168
-0.075
0.035
0.112
0.062
0.205
0.255
0.267
-0.021
-0.000
0.250
0.173
0.272
0.121
0.263
0.112
0.241
0.067
0.126
0.183
0.139
0.137
0.046
0.206
0.220
0.139
0.153
0.117
0.119
0.053
0.075
0.067
0.054
-0.031
0.087
0.179
0.039
0.031
0.020
-0.014
0.088
0.065
-0.032
-0.011
-0.067
-0.058
0.012
0.081
0.048
0.057
-0.051
0.035
0.067
-0.025
0.035
0.009
-0.027
-0.068
0.000
-0.018
-0.014
0.103
0.006
-0.080
0.040
0.018
-0.008
0.733
1.250
1.157
0.565
-0.093
-3.123
-1.640
1.117
2.011
1.376
0.562
-0.377
-0.552
-0.345
-0.008
0.240
-2.240
-1.800
0.124
1.251
1.283
0.859
0.366
0.063
-0.102
-0.334
-0.308
-0.224
-0.048
0.102
0.220
0.196
-0.015
0.143
0.151
0.073
0.107
0.143
0.101
0.134
0.005
0.070
0.160
0.048
-0.115
-0.023
-0.020
0.134
0.029
0.157
0.028
0.025
0.143
0.011
0.107
0.122
-0.021
0.055
-0.084
0.090
0.166
0.066
0.105
0.025
-0.024
0.056
0.119
0.091
0.032
-0.035
0.077
0.068
0.058
0.074
0.031
0.009
-0.042
0.061
0.002
0.054
0.005
0.054
0.071
0.012
-0.134
0.052
-0.048
0.024
-0.079
0.044
-0.145
0.055
-0.167
-0.009
0.056
0.019
0.056
0.082
-0.092
-0.067
-0.265
-0.043
0.183
0.076
-0.086
0.041
-0.037
0.032
-0.142
0.011
-0.060
-0.086
0.019
-0.010
0.146
-0.031
0.391
1.141
1.135
-0.952
-2.381
-0.083
0.126
2.200
2.186
1.101
-1.883
-3.152
-0.610
1.113
2.417
1.880
-0.784
-1.589
-1.320
0.084
1.672
-0.062
0.737
0.391
-0.659
-1.429
-0.250
0.341
0.767
0.773
0.292
0.038
0.333
0.134
-0.473
-0.905
0.217
1.358
1.695
1.306
0.721
-1.053
-3.055
0.758
2.600
-0.753
-0.653
-0.426
0.182
0.595
-0.065
0.484
0.984
-1.343
-2.059
-1.180
0.566
1.196
1.378
2.197
2.000
1.107
0.246
-0.157
0.157
0.325
0.548
0.523
0.512
0.253
0.179
0.066
-0.068
-0.131
-0.301
-0.512
-0.639
-1.290
-2.775
0.047
1.153
-0.063
-3.132
0.535
3.480
3.786
1.800
-0.216
-1.722
-1.312
-0.791
0.844
-0.683
1.241
3.171
1.142
2.984
0.241
0.546
1.105
1.705
-0.503
-0.261
-1.014
-1.738
-0.852
-0.527
-0.517
-0.343
-0.236
0.071
0.307
0.223
0.492
0.763
0.811
0.690
0.490
0.547
0.395
0.243
0.171
0.026
0.210
0.153
0.058
0.156
0.255
0.130
0.082
0.314
0.241
0.320
0.289
0.329
0.348
0.191
0.188
0.186
0.187
0.225
0.140
0.186
0.134
0.053
0.067
0.187
0.011
0.133
0.279
1.265
0.266
0.765
0.837
0.497
-1.330
0.805
-1.591
-1.446
2.226
0.173
1.501
-1.204
-0.691
0.856
0.640
0.213
-0.201
-0.395
-0.449
0.417
-2.713
-1.422
2.526
2.232
0.788
-0.066
-0.783
-0.701
-1.307
-1.285
-0.760
-0.145
0.254
0.635
0.825
0.762
0.798
0.734
0.672
0.547
0.464
0.649
1.285
1.243
0.493
0.266
-0.087
-0.573
-1.935
-3.597
-1.014
1.551
2.189
1.344
0.374
-0.629
-1.058
-1.052
-0.847
-0.370
0.006
0.397
0.596
0.995
0.954
0.948
0.628
0.496
0.224
0.012
0.166
-0.040
-0.145
-0.142
-0.017
-0.141
-0.178
-0.106
-0.039
0.066
0.016
0.087
0.046
0.099
-0.023
-0.005
-0.036
-0.076
0.047
0.022
0.001
0.025
-0.028
0.016
-0.079
-0.044
0.056
-0.027
0.327
0.696
0.862
0.854
0.685
0.466
0.214
0.226
0.260
0.152
0.269
0.356
0.374
0.321
0.036
-0.184
-0.252
-0.344
-0.482
-0.349
-0.449
-0.423
-0.483
-0.448
-0.522
-1.594
-3.492
-3.697
0.695
3.773
3.653
1.815
-0.082
-1.421
-1.793
-1.353
-0.316
0.861
1.861
2.353
2.493
2.563
1.940
1.507
1.103
0.635
0.119
-0.250
-0.735
-0.745
-0.751
-0.697
-0.599
-0.500
-0.327
-0.243
-0.156
-0.241
-0.174
0.084
0.037
0.105
0.038
-0.060
0.007
-0.130
-0.087
-0.012
-0.028
0.006
0.074
0.138
0.199
0.093
0.070
0.036
0.192
0.194
0.084
0.225
0.242
0.126
0.235
0.327
0.236
0.094
0.204
0.262
0.365
0.106
0.070
0.114
0.053
0.189
0.284
0.205
0.112
0.045
0.051
0.094
0.160
0.041
0.040
0.092
-0.015
0.092
0.173
-0.029
0.026
-0.077
0.002
-0.009
-0.031
-0.283
-0.170
0.032
-0.043
0.198
-0.034
-0.211
-0.159
-0.180
-0.062
-0.109
-0.070
-0.144
-0.009
-0.049
-0.047
-0.205
-0.122
-0.062
-0.064
-0.001
-0.004
-0.119
-0.019
-0.001
0.081
0.040
0.021
0.188
0.057
0.119
0.044
-0.132
0.110
0.199
0.189
0.304
-0.063
-0.370
-0.357
-0.065
0.208
0.330
0.025
-0.076
-0.033
0.001
-0.035
0.033
0.125
-0.108
-0.001
0.071
0.262
0.410
0.166
0.194
0.283
0.157
0.012
0.080
0.154
0.089
-0.028
0.002
0.012
0.154
-0.154
-0.203
-0.008
0.120
0.065
0.085
0.031
-0.010
0.003
-0.035
-0.142
-0.009
-0.066
-0.007
-0.040
-0.017
0.051
0.148
0.051
-0.096
-0.074
0.030
0.070
0.016
0.037
-0.112
-0.020
0.068
0.130
0.148
-0.039
-0.021
0.103
-0.008
0.023
-0.212
0.042
0.109
-0.025
0.040
-0.176
-0.027
-0.194
0.021
0.073
0.037
0.187
0.158
0.030
-0.062
0.041
0.074
0.039
0.218
0.080
-0.036
-0.050
0.053
0.073
0.104
0.151
-0.036
0.049
0.016
0.070
-0.058
0.013
0.068
0.061
-0.044
-0.044
-0.035
0.048
0.027
-0.012
-0.041
0.067
0.003
-0.061
-0.075
-0.004
0.013
-0.059
0.027
-0.091
-0.019
0.090
-0.017
-0.055
0.099
0.040
0.042
0.050
-0.031
0.066
-0.002
0.051
0.075
-0.054
-0.034
-0.119
0.025
0.040
0.012
0.173
0.056
-0.100
0.107
-0.054
0.127
-0.047
0.100
0.116
0.114
0.068
0.171
-0.080
-0.016
0.026
0.039
0.236
0.132
0.033
-0.083
0.025
-0.031
0.142
-0.068
-0.030
-0.043
0.132
0.006
0.040
-0.007
-0.117
-0.087
-0.003
0.078
0.092
0.071
0.027
0.011
-0.095
0.006
-0.015
0.003
0.007
-0.132
0.074
0.055
0.011
0.066
0.083
0.205
-0.093
-0.084
0.042
0.107
0.069
-0.004
-0.099
0.002
0.007
0.144
0.060
0.054
0.103
-0.067
-0.057
-0.008
0.041
0.007
0.082
0.004
0.050
-0.010
0.004
0.030
0.044
0.128
0.006
-0.024
0.056
0.016
0.029
-0.016
-0.091
0.007
0.099
0.069
-0.099
-0.028
0.101
0.155
0.093
0.035
-0.093
0.103
0.051
-0.010
0.091
0.186
0.026
-0.135
-0.074
-0.047
0.049
0.100
0.016
0.047
-0.076
0.067
0.014
0.029
-0.127
0.054
0.037
-0.065
0.095
0.120
-0.065
-0.128
0.082
0.033
0.052
0.111
-0.009
0.131
-0.108
0.020
0.171
0.027
0.007
0.033
-0.061
-0.083
0.096
0.065
-0.007
-0.051
0.160
-0.024
-0.115
0.135
0.110
-0.045
0.036
-0.001
0.014
0.087
0.079
-0.053
-0.070
0.086
0.164
0.127
0.010
-0.082
0.008
-0.021
0.161
0.077
0.050
0.049
-0.025
0.063
0.018
0.024
0.105
0.201
0.012
0.002
0.075
-0.122
0.129
-0.001
-0.003
0.125
-0.011
-0.101
0.070
0.065
0.037
0.119
0.057
0.094
-0.019
-0.008
0.019
0.058
0.012
0.219
-0.046
-0.087
0.075
-0.102
-0.098
0.204
0.071
-0.055
0.016
0.064
-0.113
0.063
0.019
-0.064
-0.102
0.053
0.175
0.086
0.073
0.042
-0.056
0.038
0.023
0.047
0.061
-0.240
-0.008
0.218
0.116
0.014
-0.005
-0.052
-0.020
0.041
0.025
0.105
0.069
-0.113
-0.101
-0.016
0.053
0.063
-0.000
0.030
0.150
-0.040
0.068
-0.061
-0.060
0.032
-0.028
-0.071
0.120
0.129
0.056
0.064
-0.093
-0.113
-0.128
0.090
-0.089
0.013
0.035
0.126
0.094
-0.033
-0.018
-0.008
0.034
0.134
0.093
-0.109
-0.019
0.087
-0.013
-0.016
0.171
0.016
-0.043
0.127
0.177
-0.019
-0.184
-0.099
0.107
0.092
0.137
-0.018
0.142
0.172
-0.314
-0.143
0.082
0.108
0.162
0.130
-0.047
-0.099
0.238
-0.186
-0.093
0.052
0.084
0.134
0.016
-0.012
0.119
-0.023
0.006
-0.005
0.072
0.181
0.083
-0.100
0.059
0.018
0.076
0.090
-0.032
0.136
-0.083
-0.021
-0.215
0.010
0.165
-0.021
0.020
0.113
-0.124
-0.081
0.146
0.030
-0.023
0.028
0.087
-0.040
0.249
0.020
-0.207
0.091
0.063
0.060
0.058
-0.027
-0.031
0.011
0.029
0.056
0.009
-0.007
-0.012
0.090
0.053
-0.034
-0.063
-0.047
0.058
0.094
0.116
0.086
-0.123
-0.080
-0.039
0.014
0.092
0.005
0.092
0.008
-0.004
0.015
-0.149
0.055
0.163
0.955
1.466
0.086
-2.729
-0.932
0.570
2.137
1.894
0.558
-2.881
-0.980
0.243
1.021
0.474
-0.170
-0.121
-0.249
0.362
0.960
-1.301
-1.209
0.022
0.685
0.869
0.522
0.343
0.224
-0.118
-0.164
-0.011
-0.016
0.146
0.170
0.020
-0.055
-0.048
-0.014
-0.096
-0.095
0.199
0.183
0.064
0.061
0.128
0.040
-0.005
0.202
0.097
0.129
-0.004
0.063
-0.012
0.183
0.083
0.000
0.099
0.097
-0.028
0.102
0.132
0.112
0.064
-0.019
0.061
0.046
0.193
-0.027
-0.001
0.041
-0.024
-0.051
-0.073
-0.032
0.197
0.032
0.080
-0.111
-0.089
0.000
0.034
-0.003
-0.047
0.030
0.176
-0.107
-0.016
0.030
0.175
0.189
0.647
1.246
1.165
0.507
-2.014
-2.878
0.045
1.685
1.673
0.828
-0.050
-0.448
-0.123
0.587
0.500
0.261
0.078
0.324
0.356
0.602
0.842
0.563
0.641
0.577
-2.260
-0.921
-1.609
1.412
1.808
0.826
-0.041
-0.720
-1.390
-2.652
-3.685
1.085
3.269
3.205
2.020
0.889
0.339
0.082
-1.204
-0.484
0.467
-1.878
-2.315
2.637
4.142
3.813
-1.205
-3.203
-1.316
0.111
1.830
0.923
-0.483
1.826
2.386
1.973
1.723
1.810
1.533
1.283
0.967
0.556
-2.254
-3.660
0.798
3.216
1.964
0.085
-1.852
-2.396
-1.995
-0.674
-0.070
-1.164
-0.272
1.439
3.067
3.177
1.074
-2.409
-0.301
1.648
1.787
1.341
0.596
0.173
-0.289
-0.596
-0.735
-0.263
0.109
0.549
0.498
0.526
0.662
0.760
0.876
0.722
0.607
0.238
-0.071
-0.197
-0.132
0.042
0.103
0.242
0.145
0.281
0.178
-0.078
0.028
0.073
0.333
0.390
0.221
-0.020
0.159
0.061
0.066
0.301
0.263
-0.022
0.035
-0.029
0.147
0.002
-0.042
-0.031
0.218
0.248
-0.109
-0.180
-0.700
-0.441
-0.240
0.073
-0.035
-0.108
-0.385
-0.416
-0.118
-0.003
-0.130
-0.166
-0.343
-0.261
-0.174
-0.168
-0.178
-0.080
-0.002
0.069
-0.092
-0.221
-0.113
-0.047
0.004
-0.063
0.027
-0.148
-0.050
0.113
0.081
0.078
0.051
0.114
0.396
0.308
0.375
0.859
0.747
-0.092
-1.170
-2.917
-2.245
0.671
0.498
0.315
0.577
1.057
-0.706
-1.203
-0.669
-0.231
0.302
0.500
0.707
0.737
0.848
0.835
0.835
0.721
0.603
0.451
0.106
-0.051
0.159
0.797
-0.319
-1.770
-0.210
1.222
-1.096
-0.612
1.074
1.324
-2.407
-1.198
-0.053
0.515
0.674
0.580
-0.158
-0.822
-0.409
-0.189
-0.106
0.202
-0.101
0.112
0.167
0.347
0.321
0.251
0.235
0.165
0.125
0.220
0.099
0.262
-0.134
0.008
0.089
0.096
0.127
0.110
0.072
0.043
0.171
0.114
0.109
0.312
-0.144
-0.050
-0.016
0.170
0.164
0.300
0.072
0.115
-0.012
-0.123
0.217
-0.001
-0.084
0.108
-0.053
-0.010
0.016
0.013
-0.034
-0.131
0.114
-0.130
0.055
-0.123
0.061
0.062
-0.058
0.048
-0.347
-0.145
-0.004
0.052
0.094
0.013
0.017
0.152
-0.321
-0.228
0.016
0.029
0.210
0.207
-0.260
-0.178
-0.064
0.003
0.001
0.277
-0.006
-0.311
-0.137
0.160
0.039
0.282
0.037
0.004
0.035
0.262
-0.095
-0.261
-0.028
0.111
0.267
0.333
0.312
-0.004
-0.200
-0.095
0.114
0.110
-0.004
0.055
0.309
0.299
0.127
-0.434
-0.229
-0.062
0.346
-0.097
-0.005
0.066
0.383
-0.088
-0.172
-0.072
0.062
-0.242
0.001
0.128
0.021
0.151
0.205
-0.186
-0.094
0.077
0.036
0.004
0.052
0.235
-0.023
-0.077
-0.080
-0.108
-0.037
0.177
0.237
-0.105
-0.074
0.062
0.010
0.042
-0.003
0.036
-0.153
-0.152
0.103
-0.090
-0.041
0.195
0.109
0.235
-0.170
-0.173
-0.034
0.007
0.166
0.116
0.015
-0.117
0.171
0.268
0.161
0.127
-0.211
-0.119
0.363
0.076
-0.086
-0.112
0.143
0.043
0.048
0.057
0.019
0.213
-0.122
-0.286
-0.017
0.171
0.058
0.275
0.116
-0.001
-0.226
0.065
0.199
-0.117
0.014
0.153
0.175
-0.079
0.037
-0.034
0.147
0.740
-0.838
-0.938
-0.019
0.501
0.447
0.319
0.351
-0.396
-0.126
-0.626
0.126
1.159
-0.674
-0.373
0.235
-0.323
0.269
-0.003
-0.204
-0.125
0.195
0.077
-0.074
-0.112
0.049
0.344
-0.069
-0.457
0.147
0.945
-0.540
-0.547
0.171
1.271
-0.442
-0.001
-0.001
-0.041
0.453
-0.113
-0.519
0.105
0.577
0.819
-0.875
-0.854
-0.378
0.189
0.497
0.290
0.249
0.072
0.004
-0.041
-0.343
-0.217
-0.004
0.052
0.173
-0.064
0.042
0.096
0.071
0.281
-0.070
-0.186
-0.035
0.301
-0.030
0.047
0.036
-0.319
-0.084
0.018
0.145
0.197
0.105
0.019
-0.204
0.511
0.729
0.294
0.846
-0.929
-1.671
0.853
1.445
-1.082
0.062
0.803
-1.133
-1.194
0.527
1.653
1.360
0.073
-2.550
-1.642
0.351
1.279
1.346
1.899
1.554
0.032
-1.883
-2.716
-0.660
0.907
1.481
0.753
0.124
-0.365
-1.150
-1.313
0.193
0.509
0.445
0.325
0.036
-0.074
-0.410
-0.301
0.015
0.215
0.433
0.642
0.227
0.294
0.341
0.286
0.123
0.448
-0.132
-0.188
-0.054
-0.018
0.530
0.288
0.110
0.057
-1.219
-0.360
0.092
0.436
0.291
0.826
-0.574
-1.047
0.728
1.320
-0.198
-2.086
0.431
2.083
1.586
-1.372
-1.638
-0.166
0.588
0.544
1.297
0.557
0.473
-2.303
-0.565
0.991
-1.180
1.271
-0.566
-0.973
1.118
1.169
1.072
0.982
-1.866
-2.087
-0.865
0.899
2.207
2.160
1.202
0.241
-0.107
-0.135
-2.635
-0.192
1.891
-2.199
0.368
2.155
1.907
0.686
-0.633
-1.361
-1.235
-0.918
-0.211
0.159
0.485
0.696
1.008
0.933
0.709
0.603
0.476
0.298
0.232
0.145
0.059
-0.185
-0.324
-0.345
-0.116
-0.008
0.019
-0.275
-0.195
-0.092
0.166
0.149
0.181
0.471
0.002
-0.211
-0.019
0.075
0.105
0.042
0.198
-0.025
0.001
0.098
0.238
0.062
0.018
0.161
0.304
0.520
0.603
0.192
-0.301
-0.224
0.573
0.959
0.657
-0.270
-0.693
-0.931
-1.813
-0.772
0.763
0.867
0.624
0.299
-0.347
-0.344
-0.693
-0.471
-0.275
-0.373
0.054
0.440
1.284
1.946
-0.059
-1.313
0.476
1.445
1.020
-0.815
-2.500
-2.001
-0.244
0.743
1.045
0.336
-0.135
0.013
-0.553
-0.597
-0.207
-0.007
0.183
0.153
0.313
0.393
0.152
0.029
0.290
0.539
-0.134
0.049
0.065
0.051
0.188
-0.567
-0.219
-0.199
-0.068
0.067
0.260
0.212
0.110
-0.110
-0.215
-0.034
0.071
0.341
0.268
0.156
-0.142
-0.318
-0.103
0.106
0.071
0.167
-0.230
-0.179
0.025
0.135
0.124
0.187
-0.029
-0.039
0.008
0.111
0.491
-0.205
-0.194
0.060
0.062
0.167
0.135
-0.017
-0.077
-0.078
-0.008
0.063
0.111
-0.113
-0.207
0.190
0.177
-0.061
0.019
-0.023
0.171
0.066
0.102
-0.031
0.203
-0.069
-0.194
-0.195
0.082
0.115
0.052
0.277
0.010
-0.155
-0.016
-0.162
-0.021
0.072
0.129
-0.054
0.140
-0.068
-0.011
-0.144
-0.059
0.040
0.282
0.129
-0.029
0.269
-0.330
-0.169
-0.020
-0.029
0.132
0.158
-0.014
-0.014
-0.111
-0.101
-0.032
0.073
0.088
0.008
-0.147
0.351
-0.101
0.088
-0.021
-0.118
0.113
0.177
-0.122
-0.079
0.069
0.130
-0.035
0.075
0.143
-0.051
0.035
0.351
-0.466
-0.137
0.112
0.188
0.121
0.028
-0.126
-0.162
0.077
0.139
0.134
-0.275
-0.050
0.406
-0.075
-0.156
-0.043
0.165
0.075
0.212
0.124
-0.035
-0.133
-0.120
-0.056
0.100
0.026
0.042
-0.012
-0.128
0.102
-0.224
0.025
0.085
0.156
0.123
0.107
0.006
-0.085
-0.126
0.068
0.063
0.130
0.331
-0.206
-0.153
-0.028
0.019
0.088
0.147
0.152
-0.151
0.078
-0.175
-0.293
-0.017
0.159
0.072
0.200
-0.064
-0.028
-0.095
0.026
0.135
0.136
0.043
0.072
-0.161
-0.200
-0.030
0.261
0.136
-0.110
0.062
0.008
0.038
0.356
-0.360
-0.206
0.033
0.169
0.135
0.038
-0.008
-0.065
0.051
0.159
0.041
0.119
0.366
-0.432
-0.281
0.198
0.067
0.085
0.242
-0.155
-0.135
-0.001
0.114
0.090
-0.028
-0.003
0.078
-0.104
-0.115
-0.043
0.240
0.202
0.127
0.056
0.051
0.080
-0.116
-0.081
0.145
-0.090
-0.078
0.017
0.172
0.137
-0.037
0.107
-0.136
-0.064
0.349
-0.264
-0.120
0.112
0.111
0.149
0.071
-0.023
-0.131
0.077
-0.015
0.041
0.058
0.104
0.055
-0.124
-0.105
-0.085
0.170
0.058
0.323
-0.144
-0.086
0.012
0.013
0.119
0.056
-0.121
0.057
0.077
-0.021
-0.009
-0.123
0.161
0.070
0.118
-0.116
-0.010
0.125
0.145
0.073
-0.020
-0.062
-0.227
0.014
0.063
0.142
0.269
-0.117
-0.040
0.205
-0.339
-0.165
0.048
0.333
0.014
0.030
0.082
-0.067
-0.040
0.014
-0.089
0.108
0.283
-0.536
-0.182
0.175
0.220
0.158
0.209
0.079
0.054
0.294
-0.412
-0.363
-0.015
0.098
0.213
0.089
0.024
0.104
-0.137
0.022
0.011
0.039
0.055
0.035
0.131
0.027
-0.268
-0.115
0.020
0.198
0.048
-0.036
-0.115
0.019
0.021
0.007
0.105
0.234
-0.237
-0.105
0.027
0.115
0.022
0.061
-0.041
-0.065
0.139
0.106
-0.037
-0.049
-0.056
0.001
0.099
0.069
0.094
0.055
-0.093
-0.021
0.175
-0.329
-0.158
0.187
-0.025
-0.041
0.332
0.029
-0.144
0.076
-0.019
0.243
-0.163
-0.029
0.064
0.138
0.197
0.056
0.119
-0.048
-0.088
-0.040
0.184
0.100
-0.230
0.035
0.151
-0.147
0.037
0.010
0.405
-0.240
-0.129
-0.135
0.091
0.167
0.125
0.087
-0.045
-0.036
-0.044
-0.027
0.214
-0.015
-0.022
-0.060
0.064
0.083
0.109
-0.066
-0.008
-0.026
0.010
0.081
0.084
0.108
0.069
-0.056
-0.161
0.034
0.170
0.082
-0.065
0.075
0.106
0.073
-0.084
0.038
0.153
-0.130
-0.007
0.007
-0.111
0.053
-0.003
0.061
0.144
0.111
-0.154
-0.147
0.035
0.058
-0.107
0.062
-0.020
0.021
-0.042
0.426
-0.233
-0.256
0.102
0.144
0.098
0.395
-0.340
-0.159
0.019
0.116
0.080
0.042
-0.062
-0.032
-0.011
0.327
-0.204
-0.201
-0.089
0.068
0.052
0.036
-0.005
0.062
-0.069
0.002
0.081
-0.005
-0.067
0.070
0.009
0.217
-0.142
-0.368
0.147
0.083
0.098
0.112
0.024
0.093
-0.006
-0.160
0.064
0.134
-0.044
0.229
-0.170
0.009
-0.072
0.056
0.041
0.207
-0.041
-0.018
-0.020
0.111
-0.188
-0.028
-0.073
0.136
0.115
-0.002
-0.029
-0.017
-0.135
0.134
0.053
0.006
0.129
0.026
-0.105
0.112
-0.263
0.014
0.215
0.135
0.222
0.057
-0.025
0.018
0.169
0.215
-0.374
-0.092
-0.020
0.169
0.153
-0.033
0.042
0.018
0.162
0.025
-0.283
-0.193
0.030
0.255
0.161
0.005
-0.029
0.116
-0.148
-0.049
0.087
-0.007
0.097
0.461
-0.193
-0.163
0.002
-0.029
0.193
0.119
-0.351
-0.141
0.199
0.153
0.069
0.014
0.028
0.084
-0.132
-0.068
-0.050
-0.035
0.130
0.186
-0.206
-0.146
0.088
0.229
0.296
-0.136
-0.196
-0.087
0.102
-0.049
0.099
0.159
0.081
-0.041
0.000
0.097
-0.056
0.066
0.114
-0.164
-0.032
0.208
-0.116
0.024
-0.064
-0.046
0.050
0.091
0.086
-0.012
-0.052
0.216
0.349
1.105
1.188
-0.383
-2.632
-0.258
1.019
0.677
0.842
0.580
1.058
-0.013
-1.930
-2.126
-0.331
1.192
1.878
1.213
-0.181
-2.510
-1.641
0.248
1.119
0.762
0.313
0.159
-0.040
-0.218
-0.389
-0.284
-0.207
0.099
0.153
0.238
0.412
0.093
0.112
0.289
0.140
0.182
0.290
0.120
-0.219
-0.157
0.001
0.183
0.015
0.152
0.020
0.045
0.155
0.081
-0.153
-0.172
-0.022
0.182
0.427
0.201
0.011
-0.176
0.012
-0.232
-0.083
-0.045
0.009
0.325
0.446
0.417
0.070
0.043
-0.121
-0.872
-0.694
-0.104
0.230
0.214
0.320
0.123
0.059
-0.029
0.909
0.981
0.667
0.286
0.117
-0.049
-0.616
-3.286
-2.971
1.357
3.522
3.750
1.929
-0.326
-2.344
-3.550
-3.042
-0.566
1.675
2.835
2.493
1.520
0.724
0.359
-0.480
-3.384
-1.879
2.204
3.875
2.960
0.236
-0.499
-0.849
-0.876
-0.685
-0.134
0.418
0.865
1.205
1.039
1.222
0.811
0.561
0.253
-0.373
-0.130
-1.174
-0.499
0.015
-0.186
-0.073
-0.816
-3.293
1.380
3.797
4.143
1.558
-0.420
-3.067
-3.263
0.939
3.655
4.314
2.606
0.842
0.241
0.326
-0.630
-2.802
1.604
3.673
3.826
2.469
0.782
-0.545
-1.078
-1.205
-1.169
-0.765
-0.285
0.603
0.018
0.319
0.698
0.473
0.756
0.745
0.522
0.212
0.114
0.091
0.403
-0.162
-0.117
0.216
0.078
0.419
0.466
0.424
0.405
0.492
0.410
0.349
0.405
0.389
0.413
0.189
0.469
0.418
0.419
0.384
0.270
0.278
0.280
0.184
0.232
0.178
0.139
0.008
0.237
0.259
0.149
0.173
-0.131
-0.016
0.031
0.139
-0.092
0.037
-0.141
-0.020
0.174
0.079
-0.394
-0.304
-0.194
-0.003
-0.116
-0.129
-0.122
-0.104
-0.137
-0.206
-0.378
-0.103
0.055
-0.117
-0.202
-0.095
-0.087
-0.080
-0.186
-0.085
-0.157
-0.129
0.077
-0.191
-0.217
0.192
0.004
-0.110
0.030
-0.019
-0.028
0.024
0.002
-0.034
0.153
0.057
0.018
-0.139
0.115
0.124
0.121
0.235
-0.063
0.030
0.127
0.067
0.115
0.140
0.192
0.071
-0.082
0.184
1.416
1.388
0.840
-0.845
-0.875
0.484
-1.873
-0.635
1.931
2.450
1.476
-2.184
-2.136
0.323
1.229
0.918
0.008
-0.404
-0.509
-0.478
0.063
-0.061
-0.022
1.607
1.544
-1.549
-0.517
0.554
0.952
0.812
0.501
0.088
-0.214
-0.136
-0.512
-0.452
-0.149
0.001
0.124
0.459
0.181
0.202
0.186
0.154
0.316
0.256
0.051
0.083
0.021
0.094
0.207
0.061
0.050
-0.005
0.244
-0.010
0.112
0.017
0.046
-0.021
0.156
0.155
-0.062
0.008
0.167
0.170
0.164
0.067
0.036
-0.068
-0.130
0.028
-0.093
-0.025
-0.021
0.148
0.050
0.097
-0.032
0.022
-0.045
-0.241
-0.285
-0.129
0.051
0.139
0.350
-0.113
-0.171
-0.123
0.113
0.004
-0.182
-0.079
-0.100
-0.009
0.032
-0.062
0.064
-0.148
0.129
0.055
-0.059
-0.147
0.027
0.052
0.002
0.127
0.075
0.095
0.097
-0.051
0.120
0.051
0.051
-0.055
0.119
0.251
0.119
-0.006
-0.137
-0.033
-0.109
0.125
0.081
0.014
0.199
0.012
0.045
0.172
0.007
-0.093
-0.010
0.305
-0.105
-0.056
0.202
0.088
-0.018
0.050
0.011
-0.082
0.185
0.057
-0.002
-0.020
-0.052
-0.024
0.053
0.103
0.079
0.061
0.179
0.059
-0.105
-0.032
0.022
0.049
0.014
0.003
-0.014
-0.020
0.103
-0.025
-0.023
-0.107
-0.241
-0.017
0.128
0.008
0.115
0.082
0.080
-0.025
-0.083
0.057
0.046
0.086
-0.181
-0.011
-0.016
0.082
0.254
0.061
0.051
0.043
-0.125
-0.069
-0.043
-0.052
-0.030
0.001
0.052
0.186
-0.014
0.063
0.012
-0.163
0.089
0.130
0.063
0.048
0.072
0.045
0.137
0.028
-0.027
0.070
0.151
0.120
-0.264
-0.171
0.099
0.177
0.083
0.110
-0.065
-0.091
0.027
0.046
0.019
0.215
-0.140
-0.161
-0.039
0.140
0.198
0.050
0.106
-0.047
0.064
0.040
-0.073
-0.099
-0.135
0.033
0.020
0.016
0.168
0.054
0.155
0.050
-0.286
-0.103
-0.013
-0.034
0.079
0.254
0.067
-0.163
0.141
0.177
0.094
0.405
-0.796
-0.318
0.211
1.114
1.336
0.298
-2.702
-1.282
0.319
0.898
0.517
0.151
0.551
-0.320
-0.498
-0.211
-0.118
0.215
1.191
1.474
0.232
-0.312
-1.956
-2.121
0.672
1.338
2.040
1.819
-0.366
-2.213
-2.068
-0.534
0.040
0.386
0.464
0.209
-0.185
0.131
0.181
-0.102
0.235
0.223
0.166
0.037
0.228
0.212
0.103
0.043
0.115
0.158
-0.075
-0.154
-0.135
0.003
0.041
0.012
0.210
-0.022
-0.154
-0.141
0.016
0.024
0.142
0.096
-0.012
-0.119
-0.019
0.148
0.030
0.001
0.090
0.124
0.217
-0.014
0.007
-0.143
0.310
1.423
0.188
-0.851
-1.534
-0.612
0.568
0.354
0.379
0.484
-0.104
-0.575
-0.264
-0.089
0.094
-0.315
-0.163
0.196
0.379
0.139
0.180
0.222
0.165
0.101
0.082
0.051
-0.174
0.004
0.185
-0.175
-0.115
0.091
0.044
0.017
-0.075
-0.065
0.051
0.082
0.001
-0.060
0.007
0.073
0.093
0.002
0.052
0.574
-0.165
0.250
-0.734
-0.099
0.058
0.036
0.669
0.551
0.187
0.763
-1.365
-0.391
1.080
1.319
1.185
-0.250
0.114
-1.826
-2.440
0.996
3.263
1.318
1.460
0.587
-2.322
-1.760
-1.714
-0.049
1.327
2.558
1.591
0.610
-2.714
-1.133
-0.036
1.493
0.768
0.755
0.789
1.125
0.773
0.300
-2.603
-1.793
1.374
3.138
2.667
0.823
-2.795
-0.844
0.473
-0.113
0.569
0.538
1.152
1.092
-0.929
-2.447
-0.960
0.523
1.236
1.066
0.940
0.638
0.275
-0.022
0.035
-0.032
0.079
0.148
0.229
0.377
0.329
0.202
0.097
0.233
-0.059
-0.051
0.171
0.132
0.143
-0.167
-0.321
0.106
0.456
0.425
0.605
0.701
0.864
0.016
-1.914
-2.169
-0.531
0.823
1.379
1.268
1.357
0.614
-0.328
-1.244
-1.800
-1.678
-0.511
0.821
1.040
0.928
0.366
0.174
-0.621
-1.001
-0.523
-0.033
-0.020
0.147
0.065
0.077
0.038
0.104
0.495
0.502
0.328
-0.096
-0.007
-1.334
-1.285
-0.045
0.568
0.542
0.422
-0.332
-0.600
-0.458
-0.326
-0.175
-0.140
-0.011
0.186
0.318
0.229
0.179
0.165
0.316
0.620
-0.044
-0.322
-0.065
0.036
-0.253
-0.057
-0.063
0.172
0.313
0.243
-0.454
-0.236
-0.079
0.207
0.180
0.131
0.156
0.084
0.027
0.045
0.134
0.077
-0.144
-0.120
0.195
-0.166
-0.101
0.047
0.153
0.232
0.062
0.164
-0.061
-0.018
-0.013
0.036
0.326
-0.363
0.122
0.013
0.293
0.239
0.143
0.157
-0.039
-0.250
-0.088
0.104
0.071
0.017
0.094
0.116
0.112
-0.021
-0.025
0.066
-0.077
-0.053
0.102
0.097
0.219
-0.067
-0.302
0.035
0.218
-0.053
0.124
0.160
-0.322
-0.042
0.067
0.172
-0.202
-0.191
0.214
0.262
-0.332
-0.121
0.137
0.240
0.039
-0.352
-0.110
0.125
0.210
0.273
0.214
-0.168
-0.340
-0.186
0.088
0.277
-0.062
0.037
-0.012
0.074
0.053
-0.111
0.035
-0.147
-0.039
0.172
0.136
-0.215
-0.008
0.007
-0.002
0.212
-0.230
-0.080
0.147
0.169
0.121
0.012
0.027
-0.021
0.114
0.063
0.166
0.253
-0.017
0.185
-0.124
-0.006
0.208
0.196
-0.124
0.127
0.087
0.156
0.011
-0.092
-0.106
-0.154
0.130
0.186
-0.038
0.075
0.120
-0.107
-0.072
0.235
0.112
0.247
-0.244
-0.127
0.176
0.130
0.109
0.025
-0.040
0.078
0.119
0.201
-0.323
0.019
-0.065
-0.138
0.098
0.201
0.135
-0.088
0.107
0.020
0.120
-0.268
0.040
0.174
0.203
-0.018
-0.201
-0.004
0.209
-0.118
-0.046
0.127
0.061
-0.022
-0.057
-0.126
0.074
0.103
0.054
-0.184
-0.062
-0.041
-0.028
0.092
0.164
0.128
0.250
-0.296
-0.161
0.082
0.275
0.083
-0.051
-0.110
0.184
0.177
-0.304
-0.160
0.074
0.217
-0.009
0.025
0.089
-0.055
0.332
-0.252
-0.190
0.029
0.209
0.087
-0.003
0.057
0.355
-0.217
-0.233
0.177
0.073
0.055
0.073
-0.048
-0.273
0.080
0.147
-0.125
0.272
-0.136
-0.237
0.040
0.250
0.036
0.138
-0.001
-0.236
0.054
0.237
0.047
0.060
0.147
0.091
0.064
-0.020
0.053
-0.063
0.117
-0.045
0.119
0.004
0.243
-0.195
-0.078
0.070
0.031
0.060
0.009
0.016
-0.041
0.122
-0.086
-0.036
-0.025
0.112
-0.041
-0.196
-0.018
-0.009
0.031
0.346
0.194
-0.313
-0.245
0.023
0.143
0.187
-0.021
-0.098
0.031
0.095
0.096
-0.018
0.087
0.132
-0.007
0.079
-0.261
-0.061
0.072
0.384
0.140
-0.281
-0.217
0.023
0.199
0.159
0.174
-0.055
0.059
-0.020
-0.123
-0.050
0.053
0.101
0.002
-0.026
0.156
0.061
-0.007
0.111
-0.140
0.077
-0.049
0.111
0.114
0.090
-0.180
-0.001
-0.137
0.032
0.075
0.276
0.036
-0.119
-0.030
0.086
0.094
-0.008
0.020
0.114
-0.043
-0.221
0.096
0.300
-0.173
-0.053
-0.082
0.058
0.123
0.080
0.050
0.244
-0.024
-0.070
-0.133
-0.087
0.050
0.039
0.216
-0.054
-0.097
-0.047
0.016
0.165
0.152
-0.051
0.034
-0.126
-0.175
0.014
0.097
0.093
-0.052
0.014
0.164
0.039
-0.050
0.052
-0.002
0.000
0.060
0.012
0.027
0.057
-0.009
-0.087
0.149
0.209
-0.001
-0.013
-0.187
-0.101
-0.002
0.125
-0.034
0.053
-0.009
-0.057
-0.012
0.148
0.046
-0.086
0.019
0.082
0.077
-0.011
0.068
0.281
-0.183
-0.273
-0.043
0.019
-0.009
0.142
0.065
0.085
0.047
0.116
0.039
-0.034
-0.164
-0.114
-0.005
0.185
0.098
0.055
0.125
0.036
-0.009
-0.029
-0.016
-0.166
-0.140
0.018
0.031
0.172
0.195
0.008
0.049
0.169
-0.064
-0.143
-0.040
0.099
0.091
0.107
0.063
0.027
-0.254
-0.120
0.079
-0.020
0.073
0.181
0.016
-0.012
-0.071
0.129
-0.112
-0.145
0.048
0.064
0.085
-0.094
0.180
0.123
-0.045
0.055
-0.064
-0.144
-0.018
0.234
0.046
-0.013
0.069
0.117
-0.085
0.075
0.172
-0.024
-0.031
-0.078
-0.069
-0.002
0.060
0.070
0.282
-0.160
-0.042
-0.074
-0.002
0.099
0.104
-0.010
-0.093
-0.221
-0.054
0.116
0.107
0.118
-0.056
-0.027
0.246
-0.199
-0.042
-0.035
0.183
0.191
0.100
0.002
0.137
-0.066
-0.080
0.037
0.083
-0.059
0.172
0.005
0.072
-0.125
-0.033
0.071
-0.001
-0.015
0.078
-0.282
-0.187
0.173
0.247
0.116
-0.020
-0.080
0.019
-0.090
-0.009
0.089
0.054
-0.118
0.129
0.183
0.136
0.122
0.037
-0.014
-0.113
0.086
-0.160
-0.113
0.233
0.033
0.036
0.014
-0.056
-0.221
-0.104
0.036
0.251
0.091
0.134
-0.023
-0.108
0.190
-0.001
-0.108
-0.110
-0.053
0.171
0.263
0.221
-0.239
-0.217
0.246
0.136
-0.175
-0.172
0.136
0.086
0.067
-0.230
-0.188
0.319
0.042
0.128
-0.165
-0.076
0.097
0.150
0.169
-0.104
-0.081
0.102
0.164
0.183
-0.115
-0.204
0.096
0.210
0.152
-0.150
-0.037
0.045
0.118
0.216
-0.354
-0.134
0.759
-0.001
-0.423
0.093
0.260
0.049
-0.167
-0.378
0.126
0.256
0.201
0.061
-0.204
-0.378
0.147
0.215
0.165
-0.097
-0.230
0.640
0.405
0.114
-0.792
0.813
-1.613
0.007
0.532
0.467
0.264
-0.247
-0.287
0.062
0.050
-0.104
0.326
1.349
1.210
0.651
0.235
0.208
0.485
-1.469
-3.690
-1.354
1.897
2.495
1.530
0.174
-0.738
-1.435
-1.633
-1.216
-0.701
0.138
0.627
0.649
0.698
1.141
0.904
0.908
0.589
-0.040
0.100
0.119
0.103
-0.024
-0.267
-0.374
-0.390
-0.077
0.021
0.155
0.059
-0.114
-0.092
0.157
0.256
0.215
-0.002
-0.014
-0.178
0.036
0.044
0.176
0.069
-0.035
-0.101
0.048
0.239
0.118
-0.009
-0.061
-0.031
0.122
0.203
0.246
-0.072
-0.224
0.047
0.187
0.176
-0.008
-0.062
-0.080
-0.075
0.159
0.345
0.076
-0.256
-0.176
0.093
0.127
0.070
0.224
0.079
-0.015
-0.079
-0.037
-0.038
0.038
-0.103
-0.034
0.135
0.114
-0.012
0.092
0.067
-0.033
-0.029
-0.110
-0.024
0.044
-0.211
0.033
0.048
-0.004
0.019
0.071
0.044
-0.172
-0.102
-0.016
0.226
0.998
-0.218
-0.567
-0.399
0.012
0.153
0.209
0.061
0.061
-0.008
-0.029
0.064
0.103
1.183
1.242
-1.278
-2.708
-0.281
0.822
1.179
0.761
0.936
0.796
-2.045
-0.460
0.685
1.318
0.929
-0.206
-3.024
-0.652
1.372
1.650
1.207
0.519
-0.369
-0.598
-0.603
-0.669
-0.428
-0.028
0.141
0.215
0.339
0.376
0.302
0.359
0.186
0.029
0.000
0.053
-0.098
-0.029
0.063
0.045
-0.089
-0.046
0.121
0.217
0.045
0.158
0.094
0.077
0.123
0.191
0.096
0.073
0.128
-0.082
0.099
0.177
0.028
0.109
0.033
0.064
0.032
0.206
0.041
-0.108
0.017
0.140
0.175
0.165
0.025
0.124
0.231
-0.204
-0.133
0.089
0.178
-0.265
-0.014
0.082
0.118
-0.055
0.009
-0.010
-0.022
-0.094
-0.036
0.084
0.057
-0.001
-0.044
-0.132
-0.160
0.074
0.116
0.081
-0.033
-0.018
-0.082
0.037
0.100
0.040
0.169
-0.015
0.003
-0.126
0.071
0.144
0.163
0.022
-0.072
-0.125
-0.093
0.103
0.071
-0.232
-0.257
0.123
0.199
0.045
-0.146
0.085
-0.005
0.009
0.098
0.138
0.046
0.128
0.110
0.099
0.000
0.027
0.023
0.083
0.154
0.011
0.033
-0.105
0.016
0.022
0.076
0.062
-0.015
-0.031
0.076
-0.092
0.050
0.025
0.008
0.054
0.086
-0.098
0.078
-0.026
0.026
-0.012
-0.009
0.073
-0.051
0.004
0.153
-0.028
0.054
0.048
0.101
0.085
-0.222
0.043
-0.039
0.121
0.097
0.034
0.036
-0.102
0.062
0.073
0.030
0.030
-0.015
0.253
-0.199
0.079
-0.034
0.194
0.017
0.073
0.099
0.074
-0.161
0.073
-0.048
-0.048
0.103
0.109
0.091
-0.006
0.075
0.036
-0.001
-0.048
0.160
0.003
-0.169
0.325
-0.172
-0.150
0.078
0.108
0.091
0.070
-0.001
0.057
0.089
-0.075
0.075
0.131
-0.058
0.012
0.050
0.052
-0.078
0.086
-0.029
-0.063
0.028
0.019
0.151
0.365
0.132
-0.515
-0.343
-0.018
0.295
0.237
0.132
-0.069
0.015
0.057
-0.144
-0.126
0.071
-0.033
0.135
0.127
0.124
0.112
0.010
-0.012
0.047
0.004
0.265
0.101
0.195
0.056
0.030
0.117
0.266
0.284
0.148
-0.104
-0.152
0.004
-0.024
0.109
0.070
-0.074
-0.080
0.054
-0.251
-0.537
-0.378
0.019
0.180
-0.026
-0.060
-0.007
-0.053
-0.173
0.043
0.130
0.123
0.146
0.082
0.132
-0.241
0.056
0.143
0.311
0.105
0.151
0.032
-0.170
-0.100
0.011
0.323
0.167
-0.216
-0.164
0.050
0.021
0.119
0.110
-0.044
-0.017
0.083
-0.036
-0.085
-0.023
-0.005
-0.120
0.231
0.124
-0.268
-0.131
-0.089
0.111
-0.037
0.026
0.200
-0.164
-0.203
0.163
-0.025
0.004
-0.008
-0.158
-0.007
0.026
-0.015
0.140
0.081
0.120
-0.016
-0.159
0.058
0.173
0.004
0.068
0.310
-0.105
-0.273
0.012
0.104
0.005
0.227
0.204
-0.074
-0.002
-0.032
-0.009
-0.145
0.063
0.172
0.082
0.095
0.005
0.103
-0.114
0.133
-0.067
0.135
0.013
0.092
0.066
0.042
0.025
0.587
0.978
-1.228
-0.450
-0.090
0.326
0.760
0.242
-0.468
-0.231
0.105
0.394
-0.155
-0.266
-0.124
0.680
0.585
-0.794
0.033
1.111
0.317
-1.181
-0.588
0.103
-0.356
0.540
0.008
0.173
0.345
0.412
0.775
-0.796
-2.029
-0.578
0.718
1.864
1.932
0.791
-2.128
-2.261
0.067
1.345
1.038
1.457
-0.123
0.812
-2.010
-1.369
0.873
1.559
-1.446
-1.083
0.130
0.878
0.698
0.434
0.096
0.105
-0.200
-0.283
-0.180
0.014
0.139
0.115
0.221
0.241
0.204
-0.281
-0.097
-0.075
0.144
0.101
0.130
0.364
1.212
-0.358
0.436
-1.324
-2.053
0.158
1.997
0.648
0.762
0.460
-1.379
0.147
0.840
-0.531
-0.136
-2.380
-0.240
0.322
1.220
1.330
1.715
-1.040
-1.734
-0.781
0.054
0.327
0.397
0.214
0.259
0.209
0.056
0.111
0.245
0.469
-0.049
-0.155
0.096
0.223
0.152
0.077
0.036
0.012
0.044
0.004
-0.001
-0.086
-0.088
0.024
-0.033
0.092
-0.007
0.012
0.134
-0.079
0.117
0.053
0.073
-0.100
0.700
0.477
-1.075
-0.732
-0.153
0.340
0.317
0.265
0.627
0.252
-0.982
-0.349
0.652
-0.177
-0.285
0.174
0.132
1.157
-0.166
0.900
-1.260
-0.425
0.909
1.188
-1.344
-1.398
1.408
2.033
-1.551
-0.584
-0.357
1.529
0.145
-2.089
-0.134
-0.884
0.621
1.676
-0.726
0.165
1.383
-0.691
0.392
1.212
-0.712
-2.198
1.213
2.415
1.761
-0.949
-2.703
0.222
1.904
2.503
1.214
-1.925
-1.946
-0.302
-1.504
1.028
2.096
1.299
0.595
0.233
0.075
0.171
0.333
0.390
0.543
0.490
0.355
0.222
0.058
-0.008
-0.115
-0.346
-0.280
-0.239
-0.127
-0.192
-0.134
-0.118
-0.029
0.186
0.088
0.188
0.161
0.161
0.320
0.278
0.321
0.217
0.163
0.207
0.098
0.315
0.217
0.104
0.135
0.412
0.357
0.258
0.158
0.098
0.151
0.192
0.285
0.075
-0.040
-0.813
-2.866
-3.860
-3.556
2.378
4.226
4.619
1.715
-2.243
-3.820
-4.105
-2.564
-0.360
2.107
3.942
4.442
4.450
4.268
3.892
2.836
1.617
0.385
-0.600
-1.291
-1.975
-2.024
-1.959
-1.811
-1.393
-1.301
-1.239
-0.990
-0.403
-0.108
0.222
0.163
0.010
0.057
-0.291
0.005
0.024
0.099
0.390
0.130
0.106
0.333
0.091
0.099
0.329
0.641
0.609
0.523
0.482
0.615
0.732
0.710
-0.048
-0.160
0.400
0.761
0.852
0.745
0.456
0.304
0.419
0.463
0.663
0.417
0.099
0.242
0.145
0.257
0.732
0.433
0.137
-0.054
-0.004
0.119
0.142
0.004
0.443
-0.430
-0.371
-0.018
-0.063
-0.062
-0.126
-0.131
0.236
-0.144
-0.191
-0.357
-0.397
-0.252
-0.210
-0.166
-0.128
-0.115
-0.020
0.102
-0.147
-0.254
-0.105
-0.214
-0.452
-0.296
0.076
0.146
-0.269
0.107
-0.078
-0.164
-0.072
-0.112
0.040
-0.027
-0.136
0.346
0.170
0.043
-0.196
-0.097
-0.023
0.263
0.185
0.159
-0.059
-0.098
0.085
0.111
0.462
0.073
-0.268
-0.244
0.003
0.115
0.229
-0.126
0.068
0.127
0.174
0.409
0.510
-0.324
-0.553
-0.372
0.160
0.197
0.218
-0.168
0.054
0.216
0.075
-0.038
-0.295
-0.365
-0.112
0.264
0.167
0.113
-0.062
0.052
0.015
-0.045
0.065
0.017
0.051
-0.014
0.313
0.184
-0.007
0.332
-0.652
-0.379
0.054
0.112
0.254
0.241
0.143
-0.119
-0.037
0.055
-0.023
0.022
-0.013
0.436
-0.088
-0.103
0.063
0.255
0.304
0.346
0.368
0.036
-0.310
-0.229
0.133
0.569
0.262
-0.306
-0.143
0.031
-0.059
0.192
0.092
-0.282
-0.153
0.439
-0.224
-0.294
-0.166
0.034
0.088
0.109
-0.015
-0.011
0.242
0.181
-0.286
-0.231
-0.459
0.074
0.332
0.228
0.157
-0.091
0.358
-0.072
-0.621
-0.520
-0.225
0.122
0.165
0.167
0.263
-0.033
-0.241
0.337
-0.308
-0.327
-0.277
0.109
0.320
0.253
0.552
-0.003
-0.187
-0.053
-0.159
0.181
0.292
0.200
-0.076
0.043
-0.109
-0.215
-0.103
0.170
0.227
0.242
0.093
0.248
0.025
-0.299
-0.114
-0.097
0.230
0.191
0.153
0.050
0.109
0.239
0.142
-0.138
-0.021
0.143
-0.004
-0.006
-0.024
-0.011
0.153
0.019
0.092
0.040
0.045
0.096
0.104
0.190
-0.256
-0.121
0.029
0.087
0.552
-0.089
-0.363
-0.118
-0.264
0.005
0.067
0.084
0.024
-0.010
-0.127
0.417
0.051
-0.397
-0.155
-0.276
0.086
0.248
0.547
-0.010
-0.375
-0.351
-0.101
-0.046
-0.055
0.096
0.578
0.344
-0.285
-0.494
-0.407
-0.168
-0.008
0.253
0.263
0.162
0.179
0.174
-0.095
-0.014
0.404
0.361
-0.151
-0.857
-0.013
0.876
0.302
-0.052
-0.058
-0.621
-0.264
0.242
0.364
0.176
0.049
-0.049
-0.166
0.098
0.504
0.008
-0.313
-0.206
-0.340
-0.326
0.133
0.467
0.480
0.398
-0.061
0.067
0.256
0.083
-0.284
-0.275
-0.124
-0.574
-0.043
0.431
0.426
0.279
0.247
0.035
-0.143
-0.114
-0.080
-0.222
0.047
0.612
0.121
-0.700
-0.173
0.065
0.144
0.226
0.172
0.161
0.015
-0.039
-0.163
-0.125
0.481
-0.007
-0.678
-0.302
0.092
0.157
0.181
0.227
0.111
-0.176
-0.121
-0.176
0.040
0.366
-0.289
-0.374
-0.058
0.192
0.308
0.202
-0.003
0.145
0.044
-0.084
-0.099
0.531
0.045
0.055
-0.525
-0.027
0.047
0.362
0.546
0.151
-0.242
-0.190
-0.174
-0.133
-0.352
-0.647
-0.102
0.355
0.310
0.215
0.003
-0.070
-0.110
-0.107
0.408
0.082
-0.145
-0.041
-0.357
-0.003
0.207
0.339
0.355
0.226
0.073
-0.073
-0.182
-0.220
-0.136
0.147
0.530
-0.349
-0.442
0.072
0.266
0.183
0.190
-0.054
-0.092
0.001
0.112
0.189
0.135
-0.282
-0.753
-0.299
0.290
0.348
0.315
0.090
-0.078
-0.104
-0.125
-0.080
0.440
0.232
-0.544
-0.414
0.094
0.120
0.223
0.030
0.226
0.071
-0.049
-0.053
0.166
0.145
-0.185
-0.547
-0.293
0.182
0.258
0.122
0.106
0.013
0.043
-0.048
-0.147
0.162
0.439
-0.219
-0.455
-0.138
0.243
0.245
0.154
0.083
-0.053
-0.025
0.025
-0.027
0.354
0.029
-0.096
-0.587
-0.254
0.282
0.260
0.191
0.072
-0.004
-0.109
-0.129
0.119
-0.013
0.354
-0.027
-0.622
-0.148
0.243
0.128
0.295
0.085
0.108
0.192
-0.081
0.073
0.152
0.144
-0.042
-0.336
-0.303
0.198
0.193
0.125
-0.081
0.036
0.052
-0.060
0.015
-0.001
0.172
0.415
-0.540
-0.421
0.030
0.214
0.206
0.163
0.001
0.006
-0.092
0.070
0.157
0.107
0.327
-0.122
-0.429
-0.287
0.108
0.234
0.259
0.122
0.086
0.049
-0.012
-0.054
0.136
-0.048
0.037
0.333
-0.479
-0.443
0.057
0.394
0.370
0.100
0.027
-0.149
-0.048
-0.030
-0.086
0.187
0.251
-0.100
-0.502
-0.167
0.176
0.272
0.340
0.033
-0.048
0.011
-0.079
-0.157
-0.028
0.240
0.380
-0.441
-0.313
-0.035
0.214
0.088
0.240
0.002
-0.101
-0.063
-0.096
0.017
-0.085
0.002
0.133
0.090
-0.027
0.212
-0.017
0.123
-0.038
0.033
0.109
0.047
0.062
0.175
0.007
-0.161
0.073
0.083
0.075
0.059
0.387
0.010
-0.790
-0.346
0.233
0.237
0.191
0.135
-0.163
-0.034
-0.155
-0.035
0.520
-0.297
-0.350
0.196
1.229
0.760
0.383
0.365
0.326
-2.841
-1.057
0.916
1.156
0.816
0.125
-0.210
-0.446
-0.572
-0.510
-0.349
-0.102
-0.047
0.259
0.266
0.349
0.273
0.306
0.325
0.272
0.096
0.198
0.544
-0.548
-0.424
0.136
0.360
0.160
-0.138
-0.284
-0.458
-0.037
0.228
0.330
0.157
0.004
-0.043
-0.118
0.003
-0.156
-0.143
0.037
0.148
0.218
0.071
-0.058
0.230
0.159
0.122
0.154
-0.057
-0.053
0.004
0.068
0.080
-0.028
-0.040
0.066
0.028
-0.081
0.164
0.186
0.010
-0.127
0.016
-0.015
-0.025
0.117
0.101
0.141
0.287
0.541
-0.502
-0.221
0.124
0.008
0.009
0.007
-0.587
-0.273
0.310
0.283
0.308
0.187
-0.168
-0.284
-0.119
-0.169
-0.095
-0.017
0.021
0.141
0.262
0.419
0.230
0.020
-0.069
-0.112
-0.136
-0.138
-0.246
0.052
0.122
0.198
0.226
0.271
0.234
-0.084
-0.143
-0.122
-0.093
-0.026
0.058
0.037
0.099
0.353
0.212
-0.013
0.001
0.008
0.699
-0.033
-0.547
-0.322
0.007
0.071
0.267
0.641
-0.586
-0.332
-0.203
0.543
-0.159
-0.180
-0.118
0.093
0.255
-0.168
-0.157
-0.035
-0.015
0.072
0.301
0.113
0.122
0.050
-0.009
-0.026
-0.036
0.201
-0.301
-0.081
0.234
0.255
0.142
0.011
-0.017
-0.157
-0.191
0.026
-0.017
0.076
0.344
0.271
-0.002
-0.154
-0.147
0.043
-0.046
-0.133
0.207
-0.002
0.240
0.210
-0.055
-0.227
-0.006
-0.076
0.085
0.030
-0.112
0.111
0.224
0.087
0.100
-0.007
0.004
-0.151
-0.014
-0.177
-0.060
0.218
0.218
0.090
-0.078
-0.113
-0.026
0.064
-0.182
-0.044
0.185
0.258
0.137
0.049
-0.022
-0.094
-0.081
-0.057
-0.275
0.157
0.369
0.274
0.121
-0.127
-0.094
-0.242
-0.117
0.022
0.074
0.220
0.224
0.030
0.098
0.202
-0.326
-0.121
0.002
0.082
0.178
0.138
0.124
-0.130
-0.157
-0.013
0.013
0.027
-0.030
0.242
0.313
-0.020
-0.073
-0.061
0.149
0.375
0.954
1.220
-2.016
-1.049
0.342
0.789
-0.595
-0.346
-0.003
0.086
-0.032
0.002
-0.029
0.000
-0.137
0.089
-0.125
-0.051
0.240
0.300
0.201
-0.021
0.146
0.158
0.174
0.138
-0.032
-0.076
0.015
0.041
0.011
-0.108
-0.173
0.010
0.038
0.127
0.096
0.091
0.085
-0.073
-0.017
0.069
0.133
-0.014
0.099
-0.276
-0.053
-0.022
0.025
0.033
0.284
0.125
-0.242
-0.127
-0.034
-0.020
-0.045
0.145
0.186
0.120
0.252
-0.067
-0.174
-0.054
0.042
-0.056
0.265
0.271
0.196
-0.025
-0.019
-0.307
0.044
0.098
-0.011
0.038
0.054
-0.083
0.092
-0.086
0.186
0.020
-0.246
-0.140
0.087
0.193
0.033
0.168
0.063
0.045
-0.125
-0.058
0.111
-0.043
-0.034
0.058
0.253
0.153
-0.078
-0.052
-0.011
0.208
0.156
0.094
-0.228
-0.142
0.197
0.197
0.168
0.002
0.035
-0.018
0.208
0.612
1.214
0.993
0.191
-2.314
-2.701
-0.783
0.855
1.412
1.059
0.233
-0.387
-0.495
-0.637
-0.541
-0.366
-0.029
0.241
0.294
0.474
0.393
0.338
0.294
0.355
0.403
0.129
0.129
0.003
-0.186
-0.118
-0.206
-0.023
-0.166
-0.018
-0.364
-0.415
0.203
0.247
0.249
0.156
0.045
-0.044
-0.252
-0.145
-0.054
0.168
0.184
0.279
0.035
0.120
-0.006
0.067
0.009
-0.002
0.012
0.044
0.099
0.017
-0.033
0.085
0.021
0.077
0.066
0.289
0.161
0.033
-0.185
-0.243
-0.140
0.075
0.290
0.069
-0.407
-0.199
0.095
0.095
0.066
0.017
-0.064
-0.054
-0.048
0.140
0.090
0.031
0.054
0.095
0.075
0.121
0.226
0.123
-0.019
-0.059
0.116
0.066
0.133
-0.032
0.027
-0.104
-0.193
0.098
0.188
-0.018
-0.003
0.013
0.100
-0.002
0.177
0.313
0.113
-0.004
-0.011
-0.142
0.034
-0.005
-0.127
-0.012
-0.144
-0.140
0.047
0.070
0.017
-0.037
0.164
-0.065
-0.143
-0.036
0.103
0.049
-0.010
-0.216
-0.041
0.102
0.279
0.192
0.104
0.059
-0.032
0.015
-0.128
-0.061
0.002
-0.091
0.277
0.391
0.038
-0.412
0.541
0.055
-0.294
-0.472
0.014
0.888
1.576
-1.461
-0.596
-0.413
0.265
0.968
-0.071
-0.075
-0.049
-0.141
0.254
0.337
0.665
-0.417
-1.901
0.372
-0.497
0.217
1.915
2.001
0.970
-1.836
-2.436
-0.297
0.865
1.174
2.013
1.530
0.699
-2.315
-2.489
-0.304
1.039
1.277
0.902
0.471
0.019
-0.253
-0.260
-0.221
-0.112
-0.048
-0.224
-0.005
0.373
0.433
0.360
0.274
0.229
-0.063
-0.123
-0.063
-0.029
-0.127
0.086
0.182
0.244
0.039
0.043
0.215
0.810
1.430
-0.813
-0.785
0.345
-1.033
-0.171
-0.074
1.038
0.548
0.098
-0.130
-0.489
0.201
0.790
-0.872
-0.390
-0.201
0.205
0.885
1.657
0.483
-1.723
-0.030
0.206
0.493
-0.147
-0.083
0.036
0.095
0.114
-0.155
-0.241
-0.201
-0.226
-0.157
-0.410
0.046
0.133
0.320
0.172
0.193
0.076
0.034
-0.100
-0.130
-0.042
-0.042
0.022
-0.044
-0.170
0.015
0.124
-0.129
-0.006
0.077
-0.078
-0.182
0.096
0.031
-0.016
-0.010
-0.041
-0.122
-0.005
0.063
-0.087
0.064
0.078
0.150
-0.135
-0.063
0.070
0.155
-0.277
-0.083
0.212
0.023
0.412
1.149
-0.698
-0.537
1.175
1.457
0.190
-1.950
0.157
-1.659
-0.837
1.351
2.712
1.664
0.732
-0.089
-0.477
-1.565
-3.184
-0.315
2.870
1.273
2.071
0.117
-1.320
-1.723
-0.810
-0.378
0.030
0.313
0.221
0.221
0.367
0.407
0.433
0.340
0.443
0.197
0.270
0.091
0.116
0.108
0.064
0.092
-0.021
0.041
-0.147
0.060
-0.119
0.125
0.137
0.002
0.065
0.133
0.130
-0.042
0.194
0.037
0.172
0.080
0.020
-0.056
0.083
0.064
0.196
0.185
0.040
-0.081
-0.008
0.053
0.096
0.090
0.118
-0.250
-0.129
0.168
0.166
-0.049
0.053
0.115
0.129
-0.039
-0.361
-0.211
0.127
0.280
0.018
0.094
0.024
-0.019
-0.131
-0.067
-0.019
0.002
-0.051
-0.095
-0.205
-0.023
0.166
0.138
0.076
0.077
-0.113
-0.004
-0.198
0.134
0.072
-0.132
0.016
-0.136
0.023
0.095
0.148
0.111
-0.090
-0.003
0.021
-0.079
-0.339
0.033
0.374
0.152
-0.030
-0.224
0.027
0.060
0.035
0.065
0.148
0.060
-0.090
-0.068
0.001
0.042
0.065
0.114
-0.009
-0.031
0.092
0.073
0.102
-0.022
-0.025
-0.025
0.076
0.088
0.057
-0.023
0.052
0.045
-0.105
0.063
-0.015
0.105
-0.151
-0.038
0.173
0.149
0.049
-0.011
-0.083
0.025
0.067
0.030
-0.077
0.102
0.189
0.084
0.087
0.100
-0.324
-0.191
-0.003
0.142
0.183
-0.005
0.027
0.109
0.041
-0.199
-0.135
0.158
0.179
0.026
-0.024
-0.171
-0.006
0.093
0.088
0.111
0.013
0.129
0.180
-0.005
-0.273
-0.116
-0.162
0.037
0.150
0.197
0.125
-0.054
-0.036
0.022
0.035
0.012
-0.188
0.069
0.085
0.130
0.161
0.013
0.127
0.029
-0.118
-0.010
0.080
-0.138
0.005
-0.024
-0.069
0.113
0.067
0.064
0.024
-0.124
-0.044
-0.100
-0.140
-0.023
0.130
0.036
0.167
0.098
0.043
0.098
-0.038
0.056
-0.077
-0.094
-0.049
0.033
0.194
0.040
0.159
-0.018
-0.001
0.025
0.056
0.210
0.028
-0.106
-0.178
-0.120
0.018
-0.013
0.082
0.192
0.087
0.121
-0.049
0.098
-0.118
0.002
-0.082
-0.117
-0.098
-0.057
0.199
0.038
0.094
0.293
-0.064
0.013
0.001
-0.108
-0.002
0.078
0.091
-0.047
0.115
0.044
-0.059
0.111
-0.184
-0.261
0.057
0.250
0.222
0.123
-0.076
-0.107
-0.155
-0.044
0.077
-0.061
0.046
0.285
0.127
0.015
0.172
0.241
0.033
-0.271
-0.141
0.017
0.070
0.274
0.077
-0.061
-0.117
0.106
-0.158
-0.016
0.022
0.099
-0.054
-0.003
0.205
-0.048
-0.077
-0.108
0.142
0.100
0.137
0.087
0.032
-0.042
-0.095
-0.001
0.101
-0.026
0.101
0.211
0.175
0.055
-0.034
0.013
0.125
0.023
0.158
-0.009
-0.044
-0.094
-0.033
0.084
0.010
-0.095
-0.107
-0.009
0.076
0.132
0.064
0.165
0.028
-0.033
-0.143
0.049
0.032
0.002
0.181
-0.047
0.162
-0.037
0.212
0.161
0.000
-0.075
-0.035
0.013
0.130
0.028
0.073
0.060
-0.110
-0.045
-0.082
0.084
0.074
0.018
0.029
-0.054
-0.033
0.158
0.173
-0.029
-0.034
-0.025
0.045
0.124
-0.164
-0.092
0.033
0.261
0.141
0.100
0.016
-0.094
0.003
-0.193
-0.023
-0.043
0.080
-0.098
0.226
0.043
0.076
0.027
0.040
0.115
-0.037
0.072
0.095
-0.078
-0.053
-0.043
-0.133
0.063
0.148
0.043
0.083
0.187
0.084
-0.121
0.087
0.004
-0.075
0.070
0.228
-0.403
-0.167
0.208
0.315
0.181
-0.151
-0.038
-0.142
-0.024
0.044
-0.094
-0.094
0.003
0.265
0.080
0.140
0.069
-0.161
0.010
0.130
0.038
0.219
0.020
-0.060
-0.049
0.081
0.086
0.213
0.049
0.161
0.131
0.044
-0.001
-0.232
-0.024
0.034
0.017
0.086
0.133
-0.060
-0.070
-0.031
0.088
0.117
-0.089
-0.068
0.042
0.061
0.105
-0.075
0.034
0.144
0.076
-0.169
0.138
0.146
0.046
-0.017
-0.051
-0.236
-0.013
-0.033
0.086
0.105
0.100
0.045
0.083
0.169
-0.048
-0.021
0.155
0.220
-0.258
-0.105
0.135
0.251
0.183
0.048
-0.143
-0.109
0.016
-0.046
-0.008
-0.004
-0.063
0.014
0.078
0.180
0.178
-0.046
-0.119
0.033
0.238
-0.077
-0.193
0.043
0.059
0.020
0.038
0.042
-0.027
0.014
-0.038
0.144
0.005
-0.013
-0.034
-0.175
-0.082
0.008
0.142
0.076
0.030
0.152
0.146
-0.130
-0.113
-0.150
-0.206
0.017
0.159
0.323
0.154
-0.031
-0.206
-0.041
-0.028
0.059
-0.003
0.068
0.074
-0.138
0.099
0.192
0.117
0.085
0.057
0.026
-0.023
0.102
-0.246
0.020
0.119
-0.190
-0.016
0.102
0.071
-0.005
0.017
-0.033
-0.039
0.028
-0.128
-0.139
0.058
0.171
0.044
0.134
0.209
0.227
-0.264
-0.075
0.031
0.034
0.046
-0.167
-0.125
0.013
0.020
0.109
0.167
0.207
-0.027
0.011
-0.125
-0.090
0.124
0.167
0.068
0.030
-0.245
-0.011
0.094
0.179
0.017
0.085
0.070
-0.051
-0.044
0.024
-0.071
0.018
0.166
-0.040
-0.088
0.190
0.232
0.089
-0.097
-0.257
-0.011
0.081
0.047
0.229
0.130
0.065
-0.232
-0.121
-0.112
-0.008
0.157
0.176
0.071
0.002
0.234
0.031
-0.340
-0.171
0.050
0.102
0.147
-0.018
0.082
-0.158
-0.011
0.077
0.098
0.202
-0.001
0.004
0.028
0.074
-0.087
-0.015
-0.082
0.204
-0.021
-0.011
-0.030
-0.045
0.191
0.141
0.031
0.098
0.010
0.059
0.092
-0.013
-0.244
-0.229
0.098
0.162
0.285
-0.066
0.014
-0.057
-0.173
0.045
0.029
0.064
0.040
0.096
0.141
-0.012
-0.077
-0.137
0.004
0.212
0.191
0.086
-0.048
0.008
-0.202
-0.190
-0.016
-0.030
0.016
0.115
0.181
0.031
0.138
-0.085
0.034
0.076
0.335
-0.085
-0.289
-0.109
0.034
0.278
0.139
0.067
0.185
0.007
-0.242
-0.115
-0.055
-0.179
-0.305
0.060
0.273
0.279
0.136
0.071
-0.007
0.072
0.052
-0.062
-0.036
-0.075
0.046
0.157
-0.249
0.000
1.257
1.548
1.063
0.376
-0.012
-0.061
-0.042
-0.327
0.147
0.949
0.932
0.538
0.234
0.066
-0.320
-0.319
-0.327
-0.486
-0.491
-0.431
-0.394
-0.418
-0.301
-0.098
-0.115
-0.070
-0.147
-0.160
-0.030
-0.130
0.016
-0.102
0.180
0.061
0.223
0.248
0.330
0.405
0.145
0.014
0.124
0.286
0.221
0.274
0.220
0.261
0.122
0.078
0.172
0.042
0.023
0.043
0.071
0.016
-0.100
-0.126
-0.310
-0.389
-0.477
-0.464
-0.304
0.182
0.454
0.078
0.116
-0.023
-0.791
-3.112
-4.126
-2.907
0.544
1.814
2.003
1.692
0.965
-0.352
-1.014
-1.235
-0.563
0.421
1.389
1.832
2.249
2.655
2.608
1.959
0.252
-0.446
-0.307
-0.279
-0.795
-1.120
-1.018
-1.072
-1.073
-1.002
-0.836
-0.577
-0.466
-0.295
-0.093
0.049
0.354
0.191
0.829
0.894
-0.884
-0.629
0.723
1.746
-0.706
-0.884
-0.126
0.599
1.870
1.502
0.628
-1.991
0.306
1.984
0.873
-1.031
1.654
2.341
0.830
-2.148
-1.177
2.125
0.416
1.892
1.984
0.916
0.151
-0.242
-0.047
0.155
-0.666
-3.108
1.039
3.512
4.290
2.871
-2.039
-2.008
-0.447
0.317
0.111
-0.071
-0.165
-3.255
-1.265
1.822
2.705
2.188
1.153
0.040
-0.576
-0.659
-0.519
0.004
0.093
0.151
0.245
0.547
0.673
0.687
0.883
0.383
0.082
-0.106
-0.054
-0.220
-0.106
-0.307
-0.381
-0.538
-0.699
-0.408
-0.322
0.038
0.053
0.066
0.218
0.328
0.080
0.371
0.354
0.521
0.668
0.518
0.238
0.115
0.093
0.269
0.113
0.261
0.273
0.143
0.213
0.060
-0.040
-0.011
-0.134
-0.130
-0.100
-0.277
-0.048
-0.002
-0.125
-0.044
-0.207
-0.048
-0.089
-0.017
-0.116
-0.140
-0.152
-0.148
0.006
-0.013
-0.048
-0.163
-0.082
-0.181
-0.158
0.004
0.107
-0.171
-0.765
-1.068
-2.405
-3.690
-1.361
1.054
1.835
1.726
0.556
-0.093
-0.325
0.008
0.332
0.906
1.389
1.706
1.994
1.677
1.684
0.938
-0.084
0.987
1.171
0.560
0.043
-0.605
-1.067
-1.129
-1.032
-1.879
-2.292
-3.730
-2.694
2.414
4.034
3.372
1.155
-0.973
-3.427
-3.897
-1.545
1.412
2.582
2.863
1.959
1.538
1.460
1.451
1.449
0.537
-0.931
-1.477
0.152
0.572
0.551
0.888
1.376
1.170
0.414
-0.258
-2.451
-3.072
0.428
2.024
2.104
1.309
0.301
-0.272
-0.423
-0.792
-0.545
-0.195
0.079
0.339
0.875
1.210
0.198
0.618
0.160
0.357
0.501
0.455
0.357
0.118
-0.082
0.033
0.184
0.395
0.708
-0.062
-0.999
-0.553
0.119
0.643
0.501
0.334
0.026
0.078
0.003
-0.440
-0.111
0.063
0.155
0.000
0.097
0.269
0.204
0.007
0.104
0.019
-0.020
0.045
0.231
0.030
-0.120
-0.213
-0.364
-0.101
-0.001
0.072
0.249
-0.180
-0.301
-0.083
-0.202
0.067
0.001
-0.094
-0.257
-0.377
0.073
0.147
0.096
-0.104
-0.231
-0.167
-0.032
0.035
-0.012
-0.046
0.003
-0.041
-0.060
-0.313
0.049
0.152
0.091
0.024
-0.033
-0.045
0.087
-0.046
0.018
0.020
0.103
0.091
-0.312
-0.123
0.051
0.174
0.231
0.106
0.052
0.057
0.093
0.107
0.001
0.031
0.099
-0.113
-0.151
-0.010
0.312
0.152
0.081
0.157
-0.064
-0.066
-0.001
0.086
0.227
0.103
0.052
-0.133
-0.041
0.114
0.332
0.067
0.055
0.100
0.028
-0.061
0.181
0.038
0.025
0.055
0.156
-0.274
-0.176
0.091
0.213
0.054
-0.028
0.072
-0.056
0.126
-0.143
-0.088
0.002
-0.053
0.035
-0.033
0.048
0.067
0.021
0.019
-0.095
-0.255
0.020
0.117
0.005
0.144
0.008
0.134
-0.223
-0.226
0.035
-0.039
0.072
-0.064
-0.161
-0.093
-0.072
0.131
0.152
-0.010
-0.151
0.109
0.109
0.006
-0.252
-0.068
0.019
0.143
0.001
-0.039
0.122
0.021
0.063
0.091
-0.027
0.119
0.047
0.008
-0.321
-0.059
0.179
0.229
0.056
0.229
0.001
-0.227
-0.092
0.057
0.314
0.985
-0.858
-0.410
0.052
0.509
1.048
-0.895
0.203
-0.386
0.148
-0.858
0.132
0.268
0.241
0.673
-0.707
-0.357
0.815
1.315
0.978
0.635
0.098
0.268
-0.099
-1.971
-2.423
-1.453
1.730
3.103
0.167
-0.542
-0.689
-0.895
-0.583
-0.724
-0.692
0.988
0.698
-1.376
0.063
1.136
1.311
1.068
0.701
0.296
0.091
-0.152
-0.347
-0.327
-0.356
-0.248
-0.085
0.084
-0.131
-0.068
0.101
0.092
0.108
0.135
-0.019
-0.086
-0.016
0.007
0.015
-0.043
0.004
0.141
-0.071
-0.169
-0.138
0.327
0.160
-0.633
0.382
0.698
-0.635
-0.485
1.379
0.830
-1.379
0.363
-0.892
0.010
0.007
0.416
0.346
1.344
-1.159
-0.825
-0.166
0.181
0.900
1.622
1.285
0.501
-0.509
-2.026
-1.007
-0.005
-0.365
0.380
1.054
0.298
-0.626
-0.655
-0.447
-0.149
-0.093
-0.463
-0.239
0.027
0.303
0.522
0.455
0.520
0.540
0.452
0.230
0.245
0.131
0.119
-0.024
-0.068
-0.085
-0.012
-0.106
-0.030
0.021
0.010
-0.233
-0.068
-0.129
0.116
-0.009
-0.061
0.149
-0.057
0.588
0.252
-0.892
-0.270
0.291
1.346
1.324
-0.171
-1.641
-1.336
-0.047
0.759
1.552
0.854
-0.802
0.266
-1.394
-0.216
1.380
-1.778
0.423
1.700
1.598
0.907
0.151
-0.068
-0.020
0.268
0.485
-0.756
-3.455
-1.357
2.530
3.023
1.929
1.022
0.471
-0.498
-1.125
-1.226
-0.592
0.166
0.817
1.243
1.674
1.807
1.279
-1.128
-3.493
0.477
3.264
2.786
0.765
-1.129
-2.008
-2.245
-1.771
-0.810
0.168
0.804
1.320
1.541
1.652
1.590
1.484
1.063
0.715
0.246
0.114
-0.265
-0.118
-0.262
-0.292
-0.220
0.031
-0.011
0.043
-0.014
0.229
0.198
0.180
0.171
0.123
0.256
0.135
0.252
0.207
0.206
0.178
0.156
0.078
0.233
0.263
0.092
-0.120
-0.049
0.169
0.113
0.070
0.154
0.009
0.098
0.010
-0.019
-0.043
-0.117
0.147
0.056
-0.018
-0.020
0.127
0.045
0.000
0.077
-0.055
-0.023
-0.041
0.133
-0.006
-0.036
0.058
-0.002
-0.326
-0.195
0.001
-0.107
0.063
0.031
-0.117
-0.114
-0.022
0.103
-0.256
-0.270
-0.058
0.075
0.091
0.224
0.052
-0.018
-0.095
-0.042
0.061
-0.190
-0.165
0.050
0.100
0.218
0.008
-0.020
-0.053
-0.017
-0.001
0.053
0.068
0.088
0.004
-0.049
0.123
-0.025
0.127
0.117
0.204
0.201
-0.068
-0.312
-0.048
0.036
0.153
0.123
0.012
0.071
-0.002
-0.010
-0.035
0.101
0.215
0.203
0.240
0.018
-0.294
-0.003
0.184
0.203
-0.032
0.018
-0.029
0.095
-0.073
-0.031
0.000
0.063
-0.017
0.038
-0.068
0.166
0.077
0.070
0.078
-0.001
0.024
0.116
-0.027
-0.004
-0.005
0.019
0.105
0.053
-0.021
0.087
-0.054
-0.041
-0.026
0.206
-0.244
-0.261
0.047
0.166
-0.045
0.115
-0.074
0.062
-0.118
-0.122
0.047
0.137
0.056
0.051
0.169
0.198
-0.359
-0.064
0.113
0.043
0.121
0.134
0.041
-0.018
-0.074
-0.111
-0.054
-0.037
-0.060
0.133
0.081
0.021
-0.056
0.057
0.131
0.140
-0.195
-0.016
0.055
0.086
0.132
0.033
-0.029
-0.018
0.133
0.118
-0.232
-0.069
-0.033
0.033
0.242
0.299
-0.112
-0.228
-0.057
0.037
0.246
0.140
0.038
0.030
-0.102
0.071
-0.037
0.068
0.139
-0.066
0.061
0.172
0.088
-0.038
0.047
0.130
-0.229
0.112
-0.111
-0.075
0.052
0.095
0.140
0.077
0.050
-0.013
0.046
0.120
-0.039
-0.137
-0.092
0.118
0.075
0.087
0.123
0.182
0.016
-0.030
-0.018
-0.072
-0.217
0.018
0.155
0.184
0.194
0.112
-0.266
-0.317
0.026
0.021
0.118
0.024
-0.012
-0.028
-0.082
0.055
0.011
-0.057
0.045
-0.154
0.004
0.042
0.172
0.077
0.047
0.116
-0.086
-0.030
0.012
-0.034
0.037
-0.080
0.091
0.187
0.147
0.156
-0.261
-0.221
0.060
-0.006
0.150
0.143
0.044
-0.143
0.188
-0.069
-0.043
0.001
0.135
-0.129
0.047
0.151
0.129
0.257
0.047
-0.358
-0.138
0.192
0.114
0.050
-0.016
0.008
-0.023
-0.015
0.026
0.042
0.022
0.124
-0.076
-0.152
0.013
0.095
0.107
0.119
0.114
-0.049
-0.047
0.106
0.042
-0.003
0.035
0.020
0.053
-0.002
-0.039
0.040
0.008
0.065
0.019
0.004
-0.058
0.109
0.022
0.003
0.095
0.081
-0.226
-0.295
0.218
0.157
0.051
0.125
-0.001
0.068
0.030
-0.020
0.057
-0.099
0.011
-0.038
-0.080
0.179
0.020
0.114
0.040
-0.046
-0.057
0.013
-0.068
0.048
0.065
0.065
-0.251
0.014
0.094
0.191
0.142
-0.178
-0.135
-0.047
0.110
0.074
0.138
-0.027
-0.020
-0.015
-0.151
-0.090
0.130
0.003
0.049
0.117
-0.039
-0.031
0.017
0.044
0.027
-0.036
0.054
0.244
-0.025
-0.048
-0.063
0.097
0.086
0.119
-0.175
-0.107
-0.001
-0.027
0.023
0.131
0.041
0.031
-0.068
0.041
0.021
0.143
0.089
0.117
-0.267
-0.124
0.128
0.250
0.035
-0.005
-0.018
-0.076
-0.064
0.239
0.030
-0.194
-0.172
-0.044
0.138
0.183
0.250
0.221
-0.434
-0.174
0.022
0.260
0.206
0.185
-0.106
-0.146
0.011
-0.117
-0.023
0.028
-0.008
0.036
0.155
0.085
0.043
0.139
-0.018
-0.054
-0.010
-0.037
0.103
-0.129
-0.122
0.074
0.202
0.364
-0.079
-0.409
-0.063
0.151
0.037
0.052
0.143
0.153
-0.012
-0.146
-0.080
0.055
0.078
-0.009
0.061
-0.009
-0.034
0.076
0.053
-0.001
0.016
-0.006
0.079
0.068
0.046
-0.051
0.266
0.206
-0.385
-0.272
-0.143
0.109
0.196
0.225
-0.082
-0.094
-0.020
-0.075
-0.063
0.099
-0.054
0.069
0.024
0.163
-0.005
-0.105
0.004
0.201
0.293
-0.230
-0.369
0.084
0.069
0.372
0.005
0.046
-0.039
-0.082
-0.076
0.052
-0.049
0.111
0.181
0.153
-0.294
0.037
0.136
-0.331
-0.069
0.140
0.162
0.178
-0.052
-0.048
-0.070
-0.017
0.058
-0.091
0.016
0.039
0.069
0.012
0.027
0.116
0.078
0.152
-0.081
0.094
-0.012
0.036
-0.127
-0.141
-0.027
0.057
0.145
0.235
-0.080
-0.262
-0.045
0.089
0.125
0.133
-0.010
0.048
0.049
0.091
0.171
-0.348
-0.275
-0.036
0.252
0.263
0.102
0.049
-0.023
0.042
0.103
-0.100
-0.105
0.013
-0.084
-0.009
0.136
0.098
0.073
0.129
-0.128
0.011
0.181
-0.007
-0.265
-0.263
-0.000
0.088
0.024
0.142
0.030
-0.034
0.186
-0.007
-0.104
-0.146
0.148
0.193
0.222
-0.317
-0.073
0.062
0.099
0.050
0.070
-0.016
0.051
-0.007
-0.076
-0.103
-0.112
-0.057
-0.018
0.299
-0.263
-0.240
0.110
0.147
0.206
0.178
-0.032
-0.107
-0.018
0.137
0.179
0.068
-0.334
-0.235
0.054
0.263
0.097
0.114
0.057
-0.046
-0.143
-0.140
-0.027
0.230
-0.022
0.102
0.196
-0.265
-0.149
0.060
-0.017
0.124
0.117
0.110
0.039
0.020
-0.157
-0.051
-0.055
-0.063
0.116
0.099
0.176
0.045
-0.045
-0.127
0.033
0.003
0.074
0.255
-0.111
-0.016
-0.372
-0.075
0.205
0.129
0.202
-0.049
-0.049
0.128
-0.049
-0.097
-0.022
0.098
0.258
0.104
-0.191
-0.160
0.132
0.320
-0.270
-0.082
0.051
-0.019
0.058
0.158
-0.123
-0.225
0.014
0.201
-0.001
0.266
-0.067
-0.349
-0.027
0.180
0.083
0.272
0.189
-0.340
-0.328
0.071
0.287
0.083
0.245
0.129
-0.326
-0.307
-0.037
0.232
0.309
0.286
0.045
-0.526
-0.297
0.178
0.194
0.225
0.285
0.006
-0.552
-0.237
0.128
0.163
0.236
0.305
0.026
-0.442
-0.317
0.054
0.155
0.190
0.271
0.041
-0.321
-0.545
-0.025
0.228
0.097
0.232
0.291
0.401
0.172
-0.907
-0.529
0.139
0.386
0.411
0.329
0.346
-0.013
-0.501
-0.323
0.421
1.048
1.248
1.024
0.499
-0.411
-3.345
-1.912
1.985
2.800
0.476
-1.589
-0.709
0.164
0.147
0.702
0.718
-0.917
-1.219
0.095
1.023
0.512
0.198
0.270
0.257
0.675
0.982
1.022
0.646
0.016
-0.222
-0.223
-0.078
-0.076
-2.516
-3.899
0.397
3.444
3.618
2.489
1.326
-0.373
-1.185
-1.685
-0.877
0.061
0.916
-1.684
-1.008
2.711
4.052
4.234
0.050
-2.670
-1.725
-1.125
-0.606
-0.512
0.675
1.382
-1.461
0.651
0.125
1.681
2.243
1.870
1.216
0.577
0.335
0.085
0.357
0.279
0.193
0.109
0.041
-0.648
-0.013
0.280
0.230
-0.111
-2.568
-2.617
-2.131
-0.077
2.559
2.449
1.121
-0.506
-1.146
-1.256
-0.648
-0.109
0.490
1.360
2.002
2.322
2.317
1.896
1.478
1.133
0.643
0.294
-0.350
-0.783
-0.572
-0.513
-0.278
-0.280
-0.361
-0.097
0.080
-0.271
-0.314
-0.024
0.036
0.137
0.259
-0.234
-0.285
-0.011
0.013
-0.017
0.146
0.066
0.034
-0.307
-0.294
-0.076
0.099
0.096
0.160
0.269
0.038
0.082
0.114
0.220
-0.221
-0.159
0.108
0.275
0.166
0.152
0.051
0.206
-0.187
0.095
0.156
0.103
0.260
0.102
0.167
-0.241
-0.187
0.091
0.053
0.289
0.238
0.165
-0.109
-0.264
0.045
0.110
0.024
0.184
0.155
-0.398
-0.249
-0.080
0.177
0.042
0.096
0.119
-0.147
0.145
-0.005
-0.357
-0.236
0.070
0.182
0.235
0.214
-0.017
-0.248
-0.235
-0.003
0.102
0.047
-0.006
0.014
-0.065
0.013
-0.084
0.021
0.204
-0.208
-0.134
0.100
0.249
0.082
0.039
0.086
-0.079
0.066
0.268
0.009
-0.392
0.058
-0.083
0.280
-0.025
-0.328
-0.053
0.237
0.162
0.187
0.023
-0.031
0.041
0.009
0.246
0.114
-0.285
0.047
0.201
0.280
0.150
-0.172
-0.255
0.096
0.191
0.201
0.086
-0.289
-0.185
0.075
0.239
0.153
0.301
0.092
-0.346
-0.233
0.133
0.180
0.207
0.272
-0.054
-0.170
-0.272
-0.129
0.083
-0.021
0.068
0.114
-0.046
0.070
-0.136
0.019
-0.059
-0.107
0.103
0.286
-0.216
-0.077
0.033
0.124
0.117
0.111
0.101
0.294
-0.284
-0.259
-0.007
0.160
0.106
0.110
0.100
0.099
0.229
-0.314
-0.317
0.104
0.195
0.218
0.343
0.127
-0.356
-0.191
0.040
0.048
0.163
0.194
0.218
0.074
-0.167
0.514
0.162
-0.141
-0.732
0.945
-0.801
-1.014
-0.207
0.513
0.528
0.265
-0.067
-0.010
-0.205
-0.544
-0.319
-0.061
0.092
0.246
0.352
0.431
0.084
-0.151
-0.065
0.114
0.152
0.119
-0.037
-0.092
0.071
-0.081
0.111
0.046
-0.349
-0.005
0.102
0.231
-0.036
-0.292
-0.024
0.131
0.180
0.075
0.050
-0.307
-0.262
0.003
0.122
0.164
0.230
0.150
-0.323
-0.243
0.031
0.087
0.230
0.333
-0.011
-0.405
-0.088
0.002
0.038
0.148
0.109
0.106
0.113
-0.249
-0.287
-0.088
0.083
0.124
0.343
0.224
-0.081
-0.337
-0.224
0.175
0.336
0.170
0.202
0.062
-0.168
-0.222
-0.111
0.052
0.297
0.087
0.203
-0.184
-0.321
0.101
0.740
1.388
-0.335
-1.927
-0.554
0.217
0.369
0.473
0.173
0.201
0.116
-0.251
-0.427
-0.476
-0.245
0.124
0.283
0.385
0.380
-0.007
-0.221
-0.145
0.191
0.429
0.965
-0.220
0.284
0.845
-1.593
0.559
-0.067
-0.170
1.213
1.462
0.974
-2.390
-2.541
-0.270
0.941
0.973
0.671
-0.263
-0.300
-0.442
-0.323
-0.031
0.100
1.223
1.282
0.815
-1.256
-0.041
1.964
2.060
1.341
0.278
0.166
-1.358
-3.217
0.624
3.338
3.346
0.568
-0.549
-2.351
-3.790
-1.070
1.173
1.641
1.295
1.081
0.141
-0.887
-0.096
0.226
0.539
0.209
0.366
0.490
0.489
0.548
0.394
0.238
-0.026
-0.221
-0.032
0.262
0.343
0.320
0.300
0.372
-0.025
0.006
0.726
-0.232
0.005
0.395
1.276
-0.170
-0.613
0.040
0.454
0.700
1.489
1.442
-0.440
-1.991
-0.999
1.475
1.993
1.425
0.688
-0.557
0.204
0.029
0.247
-3.001
-1.214
2.059
2.855
1.647
-0.508
-1.474
-1.587
-1.221
-0.754
-0.431
0.226
0.440
1.392
2.195
2.055
1.386
0.807
0.256
-0.489
-1.091
-1.614
-1.599
-0.430
0.534
0.535
-0.017
-0.451
-0.849
-0.963
-0.685
-0.386
-0.213
0.172
0.104
0.625
0.809
0.938
0.936
0.638
0.516
0.501
0.249
0.032
-0.336
-0.696
0.355
1.780
1.496
0.693
0.008
-0.073
0.167
0.176
0.520
-1.478
-0.490
1.046
1.149
0.931
-2.460
0.552
0.248
2.514
1.676
-0.189
-0.804
-2.002
-0.416
0.348
-2.728
-0.245
2.232
2.128
2.515
1.857
-2.090
-0.127
1.114
1.116
0.888
0.031
0.476
-1.420
-1.579
-0.942
-0.536
0.166
0.457
0.606
0.670
0.540
0.741
0.438
-0.049
0.221
0.394
0.603
0.336
0.342
0.500
-0.081
-0.028
0.059
0.173
0.439
0.160
0.382
0.215
0.405
0.417
0.141
-0.159
0.103
0.299
0.230
0.280
0.311
-0.031
-0.236
0.029
0.334
0.271
0.152
0.012
0.170
-0.198
-0.237
-0.080
0.112
0.029
0.099
0.257
0.059
-0.494
-0.377
-0.132
0.065
0.239
-0.032
-0.052
-0.519
-0.545
0.007
0.071
0.095
-0.037
0.019
-0.371
-0.501
-0.163
0.106
-0.029
0.205
0.150
0.105
-0.405
-0.119
-0.103
-0.011
0.190
0.353
-0.082
-0.337
-0.199
0.081
0.153
0.316
-0.027
-0.259
0.016
0.047
0.115
0.111
0.152
-0.205
-0.123
0.133
0.232
0.264
0.264
-0.049
-0.421
-0.145
0.102
0.246
0.149
0.126
0.145
-0.168
0.089
0.265
0.307
-0.025
-0.146
-0.637
-0.077
0.225
0.385
0.222
0.048
-0.051
0.039
0.429
0.250
-0.904
-0.451
0.251
0.362
0.296
0.391
0.569
0.200
-0.300
-0.942
-0.297
0.194
0.363
0.414
0.114
0.264
0.330
-0.344
-0.345
-0.078
-0.029
0.163
0.285
-0.430
-0.550
0.145
0.295
0.449
0.461
0.128
-0.192
-0.197
-0.164
-0.328
-0.051
-0.383
-0.184
0.467
0.599
0.536
0.249
0.044
-0.231
-0.232
-0.108
-0.202
-0.150
-0.349
-0.173
0.322
0.287
0.243
0.074
-0.005
0.149
0.215
-0.061
-0.044
-0.302
-0.496
-0.315
0.179
0.392
0.350
0.312
0.238
0.137
-0.166
-0.096
-0.330
-0.352
-0.412
-0.387
0.299
0.341
0.406
0.473
-0.035
-0.154
-0.116
-0.134
-0.188
-0.308
-0.587
-0.153
0.358
0.352
0.344
0.337
0.061
-0.114
-0.103
-0.195
-0.085
-0.341
-0.235
0.289
0.412
0.388
0.061
0.178
-0.071
-0.035
0.008
-0.071
-0.032
0.111
0.680
-0.304
-0.306
0.126
0.426
0.689
0.307
-0.032
-0.329
-0.543
-0.526
0.052
0.274
0.213
0.181
0.035
-0.087
-0.221
0.019
0.055
-0.140
0.221
0.478
0.281
-0.603
-0.482
0.093
0.225
0.361
0.256
0.113
0.035
-0.201
-0.254
0.134
0.349
-0.004
-0.805
-0.314
0.143
0.556
0.551
0.257
0.103
-0.307
-0.660
-0.491
-0.049
0.375
0.323
0.209
0.368
0.132
-0.041
-0.188
-0.443
-0.582
-0.129
0.427
0.452
0.203
0.211
-0.072
-0.020
0.133
0.300
0.084
-0.189
-0.873
-0.277
0.215
0.483
0.279
0.316
0.172
0.508
0.221
-1.019
-0.604
-0.014
0.309
0.521
0.478
0.328
-0.084
-0.357
-0.372
-0.489
-0.014
0.250
0.315
0.253
0.228
0.346
0.064
-0.303
-0.341
-0.711
-0.219
0.250
0.404
0.543
0.610
0.252
-0.114
-0.409
-0.273
-0.522
-0.428
0.058
0.309
0.416
0.513
0.372
0.004
-0.101
-0.251
-0.477
-0.618
-0.005
0.340
0.359
0.271
0.351
0.244
-0.068
-0.261
-0.358
-0.724
-0.187
0.280
0.431
0.388
0.324
0.380
0.115
-0.234
-0.364
-0.488
-0.487
0.188
0.336
0.470
0.218
-0.029
-0.121
-0.179
-0.192
-0.031
-0.026
0.048
-0.025
-0.045
0.310
0.722
-0.157
-0.631
-0.244
0.088
0.308
0.156
0.080
-0.053
0.278
0.284
-0.070
-0.856
-0.517
0.124
0.366
0.289
0.176
0.114
0.037
0.400
0.220
-0.364
-0.863
-0.088
0.184
0.401
0.347
0.108
0.007
0.288
0.183
0.027
-0.724
-0.586
0.038
0.258
0.740
0.474
0.136
-0.236
-0.378
-0.719
-0.094
0.280
0.438
0.490
0.292
-0.050
-0.142
-0.241
-0.818
-0.257
0.170
0.469
0.450
0.423
0.302
-0.023
-0.215
-0.408
-0.496
-0.051
0.321
0.403
0.397
0.228
0.138
-0.145
-0.278
-0.639
-0.280
-0.007
0.346
0.386
0.527
0.039
-0.026
-0.088
-0.198
-0.546
-0.391
0.205
0.307
0.255
0.488
0.252
-0.007
-0.048
-0.317
-0.446
-0.399
0.112
0.394
0.253
0.494
0.241
-0.054
-0.104
-0.354
-0.292
-0.697
-0.137
0.347
0.432
0.262
0.321
0.184
0.150
-0.156
-0.289
-0.371
-0.673
-0.203
0.236
0.653
0.702
0.295
-0.085
-0.146
-0.849
-0.325
0.090
0.328
0.345
0.390
0.192
-0.034
-0.132
-0.213
-0.742
-0.214
0.178
0.488
0.475
0.281
0.134
-0.114
0.029
-0.098
-0.146
-0.536
-0.463
0.228
0.439
0.383
0.424
0.288
0.068
-0.182
-0.212
-0.239
-0.351
-0.474
0.153
0.270
0.483
0.330
0.253
0.112
0.017
-0.220
-0.350
-0.401
-0.504
0.125
0.513
0.504
0.352
0.091
-0.049
0.145
-0.012
-0.309
-0.623
-0.433
0.127
0.447
0.538
0.263
0.133
0.061
-0.139
-0.170
-0.250
-0.688
0.080
0.321
0.299
0.332
0.471
0.274
-0.151
0.012
-0.189
-0.249
-0.443
-0.009
0.274
0.420
0.437
0.259
0.028
0.009
-0.169
-0.140
-0.429
-0.569
0.027
0.338
0.325
0.347
0.277
0.130
-0.062
-0.225
-0.050
-0.248
-0.675
-0.084
0.380
0.490
0.265
0.327
0.141
-0.124
-0.213
-0.141
-0.612
-0.413
0.122
0.460
0.509
0.392
0.125
-0.020
-0.045
-0.133
-0.171
-0.646
-0.050
0.324
0.439
0.432
0.294
-0.019
-0.122
-0.098
-0.188
-0.414
-0.483
0.208
0.476
0.416
0.365
0.120
-0.120
-0.179
-0.159
-0.593
-0.549
0.156
0.372
0.457
0.379
0.200
-0.028
-0.182
-0.117
-0.065
-0.621
-0.228
0.265
0.387
0.498
0.161
0.264
0.102
-0.215
-0.048
-0.325
-0.576
-0.100
0.291
0.389
0.370
0.208
0.057
-0.105
-0.203
-0.221
-0.760
-0.248
0.184
0.491
0.480
0.233
0.290
0.014
-0.124
-0.237
-0.586
-0.392
0.191
0.483
0.440
0.335
0.085
-0.057
-0.033
-0.165
-0.069
-0.494
-0.217
0.323
0.413
0.233
0.215
0.141
-0.006
-0.031
-0.214
-0.341
-0.513
0.080
0.484
0.284
0.159
0.334
0.090
-0.023
-0.163
-0.085
-0.513
-0.354
0.177
0.324
0.356
0.326
0.451
0.116
0.097
-0.093
-0.804
-1.178
-0.109
0.465
0.729
0.553
0.301
-0.022
-0.169
-0.283
-0.208
-0.607
-0.241
0.325
0.438
0.271
0.483
0.057
-0.014
-0.023
-0.702
-0.276
0.251
0.457
0.378
0.204
0.013
-0.115
-0.161
-0.178
-0.513
0.071
0.321
0.451
0.352
0.100
-0.076
-0.193
-0.189
-0.142
-0.474
0.016
0.302
0.445
0.224
0.087
-0.118
-0.069
-0.211
-0.128
-0.535
-0.033
0.204
0.376
0.384
0.186
0.035
0.005
-0.113
-0.087
-0.426
-0.286
0.173
0.343
0.571
0.153
0.004
-0.006
0.008
-0.213
-0.238
-0.486
-0.004
0.497
0.524
0.253
0.042
0.213
0.698
1.287
0.266
-2.463
-0.072
1.027
1.572
1.189
-1.966
-2.610
0.156
1.903
2.073
1.544
-1.966
-2.171
-0.743
-0.657
-0.538
0.273
0.664
0.690
0.823
0.896
1.187
0.962
0.576
-2.076
-0.472
1.517
1.728
1.308
0.757
0.312
-0.014
-0.671
-0.923
-0.779
-0.056
-1.542
-3.039
-0.855
-1.068
-0.358
0.406
1.068
0.964
0.193
-0.771
-0.007
0.947
1.114
1.268
-0.745
-0.263
2.469
3.171
-1.142
-0.123
0.667
-0.684
1.060
-0.210
-0.828
-1.242
-1.236
0.244
0.989
-0.067
-1.444
0.259
0.998
1.901
1.808
0.589
0.845
0.745
-0.074
-0.272
-0.203
0.066
0.166
-0.042
-0.559
-2.637
-4.051
-0.386
2.951
4.002
2.741
0.424
-1.516
-3.042
-3.887
-2.594
-0.470
1.628
2.592
2.581
1.977
1.083
0.549
-0.114
-0.171
-0.079
-0.251
-0.093
0.177
0.546
0.683
0.450
0.550
0.307
0.110
0.097
-0.304
-0.010
0.302
0.390
0.295
0.256
-0.009
0.088
-0.120
-0.167
-0.052
0.011
0.409
0.386
0.349
0.104
-0.231
-0.272
0.129
0.296
0.407
0.162
0.212
-0.006
-0.022
-0.099
-0.300
-0.061
0.190
0.310
0.297
0.112
0.075
-0.014
-0.495
-0.268
0.173
0.235
0.181
0.150
0.158
-0.072
-0.143
-0.389
-0.041
0.101
0.260
0.154
0.116
-0.043
-0.149
-0.239
-0.441
-0.101
0.245
0.186
0.202
0.140
0.075
-0.107
-0.248
-0.385
0.073
0.481
0.184
-0.077
0.127
0.073
0.047
-0.138
-0.366
-0.129
0.081
0.405
0.104
0.118
0.039
-0.063
-0.149
-0.430
-0.204
0.290
0.262
0.244
0.208
0.560
0.483
-1.208
-0.840
-0.202
0.227
0.511
0.472
0.299
-0.104
-0.120
-0.259
0.196
0.679
1.348
0.912
0.584
0.410
0.382
0.155
-0.031
0.306
-2.763
-1.334
2.719
3.875
2.436
0.220
-1.299
-1.696
-1.552
-1.642
-3.671
0.768
3.474
4.260
1.818
-2.348
-1.668
0.042
1.594
0.684
-2.588
-1.866
0.087
1.302
1.060
0.755
0.754
0.738
0.556
0.410
0.107
0.200
0.140
0.462
-0.018
0.220
0.509
0.387
0.387
0.281
0.122
0.014
-0.040
-0.173
0.223
0.151
0.306
0.278
0.119
0.113
-0.372
-0.193
0.156
0.397
0.299
0.157
0.133
-0.010
0.103
-0.217
-0.329
0.039
0.287
0.251
0.189
0.017
0.064
-0.208
-0.083
-0.339
-0.199
0.288
0.187
0.156
-0.045
-0.104
-0.166
-0.056
-0.180
-0.166
0.068
0.166
0.166
0.087
0.005
0.165
0.224
0.175
0.305
-1.278
-0.937
0.141
0.564
0.518
-0.291
-0.101
-0.101
-0.044
0.073
-0.060
-0.116
-0.010
-0.168
-0.167
0.146
0.275
0.264
0.239
0.379
0.038
0.018
-0.065
-0.338
-0.169
0.074
0.122
0.108
0.159
0.062
0.114
-0.189
-0.171
-0.143
0.038
0.125
0.192
0.286
-0.106
0.009
-0.063
-0.184
-0.204
0.131
0.241
0.097
0.202
-0.021
-0.113
0.076
0.049
-0.411
-0.112
0.094
0.070
0.302
0.132
-0.118
0.090
0.009
-0.167
-0.248
0.134
0.114
0.246
0.096
0.127
-0.006
-0.028
-0.329
-0.102
0.140
0.190
0.283
0.148
0.068
-0.024
0.116
0.013
-0.229
-0.052
0.194
0.222
0.095
0.097
0.123
0.171
0.259
0.682
1.067
0.887
0.547
0.160
0.109
0.113
0.219
0.383
0.296
-0.409
-0.489
-0.753
-3.143
-3.836
0.814
3.206
2.515
0.883
-0.932
-2.756
-2.254
-0.931
0.181
0.915
1.311
1.796
1.498
1.429
0.818
1.331
1.596
-0.134
-0.173
-0.019
0.237
-0.576
-0.633
-0.327
-0.470
-0.103
0.265
0.275
0.113
-0.420
0.177
-0.401
1.195
1.621
0.390
-0.109
-2.054
-1.721
1.714
1.172
-1.676
-0.313
1.795
-0.205
-1.345
-0.541
0.440
1.535
1.322
-0.888
-2.203
-0.290
2.023
2.404
-0.190
-2.422
-0.375
0.926
1.196
0.299
0.078
-0.264
-0.272
-0.320
-0.136
-0.086
0.053
0.343
0.007
0.038
0.359
0.486
0.486
0.609
1.053
0.558
-1.236
-0.835
0.417
0.819
-0.728
-1.940
-0.256
0.660
0.741
1.294
0.245
0.198
-0.094
-0.626
0.245
0.720
0.693
-2.730
-2.313
2.067
2.921
-1.249
-1.306
0.555
-0.875
-0.985
-0.235
1.236
-0.055
-1.735
-0.937
-0.069
0.804
1.010
0.967
0.707
0.257
0.218
0.183
0.099
0.045
-0.104
-0.060
0.044
0.200
0.334
0.070
0.052
-0.008
-0.059
-0.195
0.142
0.137
0.166
0.181
-0.089
0.074
0.034
-0.062
-0.047
-0.220
-0.119
0.182
0.219
0.163
0.047
0.098
-0.163
-0.118
-0.014
-0.140
-0.069
0.203
0.192
0.059
0.068
-0.004
0.162
0.957
-0.687
-0.650
0.113
0.368
1.052
0.040
-1.260
-0.320
0.229
1.698
-0.636
0.170
0.201
0.766
-0.451
-2.299
1.432
-0.056
-0.003
0.527
0.460
0.641
0.940
0.561
0.538
-0.127
-0.173
0.357
0.524
0.760
0.748
0.804
0.562
0.229
-2.431
-0.887
1.414
-0.476
-1.797
-3.505
-1.192
2.897
2.220
0.678
-0.459
-0.844
-1.255
-0.890
-0.210
0.495
1.166
1.462
1.728
1.756
1.569
1.352
0.910
0.362
-0.075
-0.176
-0.107
-0.307
-0.361
-0.267
-0.400
-0.437
-0.059
-0.144
-0.121
-0.006
0.249
0.192
0.118
0.027
0.125
-0.022
0.057
-0.022
0.011
0.264
0.111
0.119
0.001
0.077
0.132
0.352
0.130
-0.061
0.177
0.247
0.476
0.469
0.552
0.585
0.122
-0.232
-0.134
-0.241
-0.014
0.668
0.865
1.369
0.771
-0.497
-3.365
-2.146
1.204
2.738
2.898
1.538
0.213
-0.781
-1.132
-0.482
-0.118
0.542
0.983
1.245
1.117
0.770
0.582
0.291
-0.043
-0.242
-0.229
-0.335
-0.453
-0.420
-0.344
-0.320
-0.148
-0.065
-0.215
-0.136
0.012
0.047
0.006
0.190
0.191
0.107
-0.056
-0.406
-0.442
-1.068
-2.252
-3.488
-3.286
0.438
2.862
2.740
1.462
0.100
-1.009
-1.251
-0.720
-0.057
1.192
2.031
2.557
2.790
2.873
2.470
1.993
1.434
0.748
0.417
-0.322
-0.570
-0.877
-1.034
-1.133
-1.193
-0.935
-0.795
-0.548
-0.601
-0.374
-0.351
-0.374
-0.205
-0.281
-0.249
-0.221
-0.290
-0.215
-0.068
-0.168
-0.130
-0.088
-0.017
-0.071
-0.220
0.088
0.151
0.142
0.248
0.219
0.118
0.253
0.282
0.236
0.269
0.395
0.374
0.380
0.253
0.233
0.420
0.343
0.497
0.383
0.219
0.225
0.159
0.360
0.248
0.301
0.209
0.269
0.239
0.381
0.046
0.217
0.169
0.015
-0.042
0.107
0.110
0.041
0.088
-0.020
0.030
-0.137
-0.106
-0.222
-0.159
-0.209
0.080
0.016
-0.013
-0.128
-0.220
-0.284
-0.077
-0.147
0.065
0.028
0.075
-0.058
-0.188
-0.099
-0.097
0.056
0.038
-0.072
-0.068
-0.113
-0.288
-0.285
0.014
0.075
0.163
-0.022
-0.075
-0.128
0.149
-0.050
-0.108
0.120
0.134
0.148
0.029
-0.028
0.048
0.128
-0.256
-0.020
0.182
0.225
0.129
0.181
-0.035
0.147
0.035
0.145
0.030
-0.115
0.143
0.044
0.235
0.030
0.056
0.016
-0.163
-0.060
0.035
0.028
0.207
-0.024
0.110
-0.041
0.045
-0.205
-0.234
0.088
0.194
0.099
-0.029
-0.019
0.050
-0.041
0.005
-0.268
-0.077
0.136
0.314
0.087
0.049
0.033
0.027
-0.179
-0.187
0.114
0.092
0.254
-0.018
-0.035
0.216
0.090
-0.064
-0.032
-0.076
0.073
0.253
-0.010
0.176
0.001
0.012
0.010
-0.082
0.076
0.081
-0.006
0.104
0.219
0.068
-0.015
0.062
0.045
-0.251
-0.077
0.199
0.046
0.201
0.096
-0.018
0.035
-0.085
-0.004
-0.088
-0.165
0.110
0.283
0.101
0.015
0.043
0.013
-0.225
-0.117
-0.015
0.064
-0.012
-0.016
-0.294
-0.125
0.110
0.047
0.064
0.066
-0.047
-0.146
-0.116
0.028
-0.131
-0.124
0.061
0.001
0.116
0.165
0.029
-0.168
-0.136
-0.193
0.065
-0.107
0.069
0.052
0.066
0.008
0.105
0.137
-0.199
-0.016
-0.045
0.054
0.197
0.228
-0.139
-0.116
0.060
0.208
0.108
0.026
0.292
-0.170
-0.058
0.044
0.142
-0.050
0.170
0.160
0.168
0.002
0.060
0.040
0.071
-0.043
-0.127
0.021
0.001
0.115
0.187
-0.014
0.098
0.060
-0.015
0.030
-0.034
0.012
-0.092
-0.084
0.110
0.082
0.154
0.060
0.052
-0.063
-0.138
0.020
-0.262
0.019
0.053
0.102
0.208
0.047
-0.053
-0.162
0.021
-0.064
-0.059
-0.095
-0.091
-0.009
0.130
0.174
-0.048
0.060
0.040
-0.188
0.089
0.164
0.106
-0.197
-0.036
0.008
0.051
0.071
0.053
0.074
-0.252
-0.034
0.019
0.214
-0.129
0.024
-0.021
0.298
0.074
0.104
-0.039
-0.205
-0.197
0.147
0.134
0.067
0.058
0.176
-0.020
-0.160
-0.040
0.349
-0.096
0.069
0.042
0.033
0.009
0.103
-0.001
0.084
0.004
-0.017
0.119
0.046
-0.042
0.141
0.239
-0.099
-0.412
-0.081
0.258
0.254
-0.025
-0.203
0.001
0.030
0.085
0.091
0.054
-0.105
-0.204
0.073
0.199
0.060
-0.014
0.065
-0.007
0.092
0.015
0.090
-0.002
0.042
0.188
-0.068
-0.037
-0.037
0.115
0.010
0.072
-0.051
0.014
-0.055
-0.049
0.044
-0.087
-0.100
0.150
0.102
0.059
0.060
0.102
-0.013
-0.131
0.001
0.186
-0.083
-0.003
-0.159
-0.077
0.119
0.134
0.170
-0.093
0.127
0.026
0.031
-0.003
-0.021
0.207
-0.051
0.163
-0.364
0.007
0.014
0.191
0.058
0.208
-0.054
0.038
0.050
-0.015
0.088
0.254
-0.076
-0.386
0.106
0.343
-0.080
-0.064
0.071
-0.020
-0.056
-0.065
0.132
-0.033
-0.058
0.019
0.074
-0.304
-0.012
0.092
0.292
0.099
0.049
0.129
-0.040
-0.025
0.030
0.139
0.052
0.061
0.150
0.121
-0.192
-0.189
0.079
0.264
0.129
0.054
-0.023
-0.328
0.061
0.112
0.018
0.255
-0.006
-0.101
-0.034
0.130
0.037
0.001
0.002
-0.080
-0.003
0.112
0.015
0.097
0.112
-0.019
0.072
-0.039
0.085
-0.269
-0.326
0.023
0.171
0.073
0.209
-0.021
-0.047
-0.008
0.010
-0.068
0.053
0.101
0.004
0.164
0.021
0.165
-0.000
0.090
0.182
-0.112
-0.218
0.077
0.012
0.054
0.223
0.137
-0.542
-0.272
0.152
0.132
0.131
0.137
-0.018
-0.189
-0.198
0.028
0.210
0.042
0.130
0.093
0.005
-0.074
0.047
0.015
0.133
0.107
-0.130
-0.059
0.034
0.055
0.129
0.043
0.069
0.025
-0.072
0.011
-0.013
0.018
0.026
0.267
1.032
0.794
0.105
0.023
0.416
0.840
0.577
0.469
0.280
-0.126
-3.261
-1.477
2.155
2.854
1.599
-0.090
-1.177
-1.620
-1.519
-1.100
-0.571
0.053
0.631
0.907
1.164
1.204
1.009
0.821
0.556
0.439
0.106
0.011
-0.127
-0.226
-0.160
-0.352
-0.174
-0.037
0.001
-0.097
0.053
0.203
0.219
0.233
0.249
-0.040
0.104
0.301
0.357
0.164
-0.032
0.098
0.301
0.257
0.249
0.194
0.164
-0.028
0.110
0.128
0.141
0.177
0.010
0.148
0.131
0.075
0.117
0.079
-0.012
0.052
0.003
-0.024
0.002
0.126
0.092
0.220
0.331
0.400
0.744
0.792
0.655
0.290
0.165
0.001
-0.102
-0.507
-1.233
-1.563
-1.405
-1.580
-1.279
-0.106
0.676
0.448
-0.367
-0.834
-0.960
-0.684
-0.295
0.116
0.664
0.881
1.227
1.476
1.244
1.076
0.592
0.389
0.242
0.048
-0.093
0.027
-0.309
-0.378
0.132
0.801
0.961
0.542
0.202
-1.930
-2.332
2.030
3.246
-0.174
0.983
0.842
0.139
-1.174
-2.529
-3.169
-1.661
1.855
2.241
-0.050
1.184
1.201
0.576
-0.154
-0.008
-0.066
0.135
-0.095
-0.302
0.113
-2.990
-3.311
1.521
3.469
2.660
0.814
-0.782
-1.203
-1.890
-1.201
-0.402
0.578
1.148
1.617
1.797
1.752
1.644
1.316
0.568
0.451
0.339
0.129
-0.091
-0.064
0.424
1.021
0.754
-1.476
-1.929
0.388
1.544
1.609
1.098
0.402
-2.667
-1.802
1.300
1.955
1.368
0.604
-0.961
-1.306
-1.128
-0.768
0.366
1.131
-1.440
0.851
2.089
2.010
1.294
0.611
-0.075
0.042
-2.350
-1.964
1.458
2.622
1.710
0.807
-1.716
-1.657
-1.301
-0.718
0.024
1.487
1.672
1.308
1.072
0.780
-0.350
-3.143
-1.692
1.387
2.551
1.691
0.646
-0.570
-1.084
-1.184
-0.965
-0.456
-0.071
0.256
0.707
0.704
0.877
0.830
0.906
0.663
0.530
0.344
0.209
0.100
-0.149
-0.113
-0.070
0.023
-0.225
-0.182
0.014
0.125
-0.195
0.010
0.075
0.073
0.094
-0.041
-0.021
-0.032
0.030
-0.099
0.018
-0.023
-0.012
-0.036
0.045
-0.103
-0.090
-0.036
0.086
-0.052
-0.213
-0.133
0.099
0.257
-0.318
-0.028
0.187
0.224
-0.055
-0.252
-0.201
0.075
-0.039
0.123
0.045
0.075
0.004
-0.041
0.129
-0.050
-0.046
-0.083
0.074
0.111
0.029
0.101
0.169
-0.033
-0.017
-0.108
0.039
0.023
0.101
0.060
0.063
0.225
-0.043
0.005
-0.069
-0.104
0.022
0.227
-0.171
-0.055
0.128
0.052
0.064
0.411
0.297
-0.431
-0.439
-0.139
-0.146
0.108
0.381
0.275
0.368
0.139
-0.384
-0.213
-0.320
-0.080
0.095
0.128
0.063
0.330
0.106
0.018
0.208
-0.448
-0.368
-0.075
0.157
0.087
0.220
0.273
0.199
-0.107
-0.047
0.024
0.201
0.185
-0.202
-0.203
0.031
0.311
0.068
-0.103
0.148
0.064
0.094
-0.151
-0.040
0.037
0.105
0.198
0.168
-0.250
-0.242
0.069
0.134
0.256
0.282
0.081
-0.029
-0.060
0.008
-0.033
-0.056
0.174
0.109
0.066
-0.386
-0.149
0.139
0.094
0.129
0.177
-0.570
-0.180
0.141
0.046
0.187
0.191
-0.035
-0.550
-0.160
0.107
0.309
0.180
0.132
0.003
-0.211
-0.214
0.184
-0.001
0.188
0.142
-0.012
0.015
0.072
0.077
-0.309
-0.050
0.075
0.153
0.196
0.067
-0.021
-0.072
-0.078
-0.202
-0.122
0.170
0.035
0.139
0.179
0.151
0.175
-0.120
-0.103
0.117
0.147
0.209
-0.134
-0.328
0.146
0.329
0.276
0.170
-0.258
-0.241
-0.030
0.122
0.013
0.073
0.151
0.102
0.076
-0.056
-0.129
-0.266
0.016
0.197
0.348
0.140
0.126
-0.246
0.123
-0.027
0.080
0.000
-0.032
-0.332
-0.094
0.269
0.185
0.153
-0.007
-0.465
-0.071
0.058
0.059
0.133
-0.135
-0.036
0.147
0.064
0.034
0.003
-0.242
0.011
0.184
0.098
0.182
0.175
-0.284
-0.153
0.007
0.125
0.036
0.064
-0.117
-0.110
0.075
-0.087
0.116
0.243
0.149
-0.408
-0.188
0.102
0.207
0.371
0.582
-0.011
-0.156
-0.873
-0.153
0.325
0.429
0.353
-0.184
-0.515
-0.129
0.332
0.291
-0.177
-0.277
-0.177
0.065
1.249
1.634
1.055
-0.425
-2.570
-1.101
0.718
1.367
0.054
-0.900
-0.083
-0.014
0.021
0.122
0.792
0.516
-1.768
-1.076
0.928
1.552
1.514
1.234
0.346
-0.844
0.717
1.129
-2.385
-3.299
1.314
3.193
0.912
-2.142
-1.140
-0.294
0.299
0.127
0.357
-1.647
-1.776
0.153
1.311
1.943
1.681
0.036
-0.167
0.265
0.062
0.129
0.139
0.007
-0.001
-0.152
-0.323
-0.190
0.217
0.237
-0.196
0.047
0.163
0.310
0.283
0.018
0.087
-0.127
0.012
0.550
-0.209
-0.267
0.512
-0.381
1.078
-0.041
0.576
0.314
-1.208
-1.335
1.171
1.943
-0.033
0.030
-2.326
-0.603
0.617
-0.800
-0.046
0.420
0.581
-0.009
-0.253
-0.149
-0.307
0.005
0.178
0.356
0.377
0.375
0.401
0.118
0.122
0.100
0.161
0.169
0.132
0.072
-0.160
-0.153
-0.022
0.065
0.105
0.000
-0.122
-0.267
0.009
0.264
0.121
0.136
0.042
-0.081
-0.077
-0.016
0.060
0.066
0.119
-0.237
0.007
0.193
0.029
-0.001
0.019
0.060
-0.122
-0.218
-0.037
0.110
0.068
0.023
0.252
-0.202
-0.111
0.800
0.827
-0.935
0.095
-0.639
-0.039
0.160
1.344
0.616
-1.609
-0.779
0.387
1.369
1.716
0.755
-1.041
-1.297
-0.968
1.181
2.327
1.497
0.499
-0.009
0.023
-0.125
-0.161
0.028
-0.765
-0.506
0.865
0.599
-2.506
0.292
-1.038
-0.002
2.088
1.479
1.250
0.003
-0.594
-0.940
-0.543
0.065
-3.027
-0.274
3.245
4.129
3.112
1.416
-0.044
-0.059
0.011
-0.418
-0.527
-0.138
0.336
0.558
0.211
-2.925
-2.005
1.475
2.338
1.708
0.636
-0.754
-1.183
-1.188
-1.050
-0.601
-0.263
0.261
0.710
1.004
1.004
1.213
1.182
1.020
0.736
0.290
0.438
0.149
0.146
-0.320
-0.108
-0.001
0.058
0.082
-0.159
-0.056
-0.044
0.009
-0.055
0.240
0.181
0.140
-0.094
-0.051
0.089
0.033
0.110
0.089
0.107
-0.106
-0.234
-0.185
-0.027
0.118
-0.037
0.081
-0.027
0.023
-0.171
-0.036
0.086
0.024
0.121
0.045
-0.036
-0.053
0.044
-0.004
0.195
0.055
0.128
-0.127
-0.152
-0.020
-0.129
-0.046
0.109
0.094
-0.088
0.078
-0.098
-0.209
-0.128
-0.012
0.081
0.109
0.155
0.017
-0.072
0.020
0.124
0.166
-0.006
-0.052
-0.009
0.093
0.003
0.134
-0.014
0.038
0.121
0.052
-0.204
0.033
0.076
0.080
0.248
0.058
0.071
-0.065
0.056
-0.004
-0.048
0.054
0.129
0.009
-0.052
0.034
0.059
0.077
0.211
0.056
0.033
0.037
-0.012
-0.079
-0.155
0.024
0.085
0.138
0.202
0.174
0.066
-0.110
0.040
0.135
0.014
0.229
0.271
0.293
0.081
-0.219
-0.068
-0.208
-0.148
0.024
0.077
0.081
-0.076
0.000
-0.006
-0.029
0.002
-0.063
-0.083
0.040
-0.034
-0.085
0.083
0.154
0.160
0.129
0.247
0.045
-0.075
-0.274
-0.171
-0.046
0.107
0.288
0.038
0.135
-0.050
0.061
-0.040
-0.025
0.008
-0.049
-0.035
0.043
0.053
0.093
-0.033
0.083
0.030
0.009
-0.019
-0.161
-0.065
0.074
0.055
0.007
-0.010
0.121
0.032
-0.032
0.064
-0.071
0.048
0.062
0.001
0.096
0.022
-0.082
-0.113
0.036
0.088
0.006
0.125
0.017
0.010
0.003
-0.020
-0.023
0.084
0.060
0.120
0.042
-0.064
0.028
0.019
0.052
0.097
0.050
0.083
0.059
0.065
0.129
-0.013
0.100
0.004
0.031
0.058
0.028
0.104
0.190
-0.012
0.103
0.055
-0.052
0.065
-0.024
-0.353
-0.112
0.026
0.122
0.041
0.097
0.001
-0.002
-0.077
-0.160
-0.071
0.024
-0.037
0.148
0.120
0.016
0.031
0.017
-0.024
-0.051
-0.127
0.032
0.083
-0.040
0.103
-0.107
0.034
-0.164
-0.236
0.073
0.168
0.040
-0.008
-0.004
-0.121
-0.084
-0.033
0.188
-0.005
-0.061
-0.041
-0.075
-0.046
-0.035
0.097
-0.029
-0.022
-0.061
0.109
0.077
0.048
0.160
0.040
-0.001
0.004
0.024
-0.048
0.022
-0.066
0.051
0.009
0.109
-0.013
-0.003
-0.067
-0.039
0.088
-0.044
-0.047
0.003
-0.045
-0.011
0.146
-0.025
-0.029
0.022
0.087
0.176
0.056
-0.050
0.041
-0.071
0.072
0.009
-0.005
-0.148
-0.007
-0.011
0.054
0.059
0.011
0.009
-0.018
0.064
0.041
-0.147
0.062
-0.049
0.218
0.148
0.055
0.091
-0.012
0.073
-0.038
0.086
0.057
0.010
-0.103
-0.102
0.011
0.185
0.121
0.128
0.075
-0.040
-0.099
0.135
0.057
0.009
-0.079
0.048
0.105
-0.082
-0.077
-0.045
-0.001
-0.019
-0.139
0.064
0.072
-0.073
-0.011
0.156
0.078
-0.099
-0.026
-0.075
-0.060
0.142
0.120
0.022
0.060
0.159
0.099
0.070
0.184
-0.130
-0.037
-0.065
-0.094
0.092
-0.090
0.074
0.179
0.073
-0.092
-0.148
-0.091
0.012
0.016
0.141
-0.078
0.024
-0.015
0.196
0.104
0.014
-0.100
-0.074
0.036
0.024
0.110
0.043
0.006
0.184
0.031
0.046
-0.108
0.035
-0.034
0.015
0.041
0.029
-0.083
0.073
0.007
-0.035
0.062
0.013
0.011
0.065
0.053
-0.031
0.065
-0.016
-0.025
0.165
0.095
-0.091
-0.059
0.009
0.071
0.152
-0.075
0.098
-0.018
-0.064
0.099
0.036
0.042
0.020
-0.067
0.010
0.117
-0.076
0.018
0.106
0.082
-0.080
-0.049
-0.102
0.095
-0.034
0.072
0.017
-0.007
0.075
-0.001
0.056
0.048
-0.094
0.046
-0.054
0.094
0.153
0.107
0.020
0.036
-0.072
-0.090
0.090
-0.060
0.000
0.048
-0.030
0.098
0.084
0.043
-0.012
-0.055
0.022
0.036
0.080
-0.029
0.043
0.030
0.079
0.035
0.010
0.039
0.120
-0.082
-0.127
-0.019
-0.011
0.142
0.058
-0.049
0.106
0.127
-0.032
-0.018
-0.156
0.007
0.086
-0.035
0.103
0.040
0.228
-0.049
-0.115
-0.014
0.016
0.059
0.086
0.031
0.130
-0.033
0.061
-0.030
0.011
0.051
0.109
0.135
-0.031
-0.016
-0.043
0.102
0.174
0.128
-0.113
0.029
0.032
0.024
0.140
-0.033
-0.030
0.063
0.049
-0.054
-0.112
0.068
0.004
-0.071
0.053
0.056
0.006
-0.042
0.097
0.072
-0.054
0.031
0.098
0.146
0.014
0.134
0.015
0.145
-0.006
-0.012
-0.070
-0.034
0.000
-0.009
0.201
0.101
-0.073
0.055
-0.087
0.062
0.150
0.006
-0.038
0.009
0.032
0.104
-0.051
0.089
0.085
-0.036
0.011
0.058
0.009
-0.090
-0.060
-0.123
0.046
-0.025
0.082
0.148
0.057
-0.017
-0.030
0.033
0.171
0.171
0.031
-0.218
0.097
0.042
0.063
0.287
0.104
-0.011
0.056
-0.076
0.094
-0.058
-0.070
-0.002
-0.011
0.063
0.017
0.013
0.079
0.017
-0.052
-0.018
-0.164
-0.128
0.029
0.034
0.113
0.112
0.194
-0.049
-0.048
-0.016
0.073
0.235
0.159
0.007
-0.135
-0.042
0.007
0.048
0.098
0.038
0.066
0.044
0.023
0.101
-0.110
-0.011
-0.004
-0.247
-0.317
-0.136
0.165
0.405
0.140
-1.208
-0.427
0.412
0.509
0.470
1.084
1.414
1.070
-2.389
0.143
1.623
-1.809
-1.207
0.545
1.350
2.193
1.718
0.121
-0.531
-0.566
-2.107
-2.162
-0.709
0.376
1.663
0.844
-0.038
-0.455
-0.667
-0.585
-0.307
-0.288
-0.157
-0.106
0.091
0.139
0.101
0.220
0.414
0.424
0.366
0.218
0.242
0.261
0.188
0.128
0.322
0.130
0.020
0.018
-0.079
0.064
-0.024
0.057
-0.062
-0.061
0.171
0.143
0.103
0.007
-0.053
0.073
0.044
0.089
-0.044
-0.095
-0.147
0.049
-0.048
-0.170
0.102
0.062
-0.014
-0.030
-0.034
-0.045
-0.053
-0.065
0.055
0.064
-0.094
0.148
0.144
0.013
0.128
-0.103
-0.108
-0.005
-0.056
0.037
0.021
-0.025
-0.017
0.075
0.051
0.030
0.119
0.020
-0.057
-0.218
-0.048
-0.031
0.048
0.178
0.231
0.066
0.024
-0.001
0.071
0.113
0.072
0.056
-0.017
-0.098
0.010
0.241
0.173
0.048
0.044
-0.160
-1.281
-0.800
0.227
0.602
0.584
0.308
-0.039
-0.363
-0.126
-0.009
0.129
0.202
0.111
0.299
0.319
0.248
0.264
0.673
-0.384
-0.268
0.086
-0.052
0.061
0.062
0.032
-0.189
-0.183
-0.229
-0.032
0.010
0.066
-0.081
-0.050
0.114
-0.121
0.038
0.125
0.019
-0.077
0.048
-0.004
0.021
0.085
-0.212
-0.138
0.010
0.204
0.102
0.186
0.094
0.080
-0.009
-0.023
0.104
0.028
0.004
0.053
0.263
0.239
0.173
0.092
0.041
0.036
-0.132
0.093
0.000
0.101
0.052
-0.041
0.164
-0.057
-0.318
-0.379
-0.134
-0.028
0.149
0.897
1.497
1.298
-0.395
-0.899
-0.974
0.107
1.340
-2.387
-1.984
0.890
2.036
0.890
0.849
-0.315
0.318
0.313
-0.333
-1.714
-2.689
1.222
2.191
2.931
2.178
0.233
-2.440
-0.411
0.973
1.529
0.586
0.169
0.154
-0.061
-2.379
-3.935
0.182
3.124
3.026
1.496
-0.040
-1.048
-1.253
-1.130
-0.808
-0.237
0.456
0.732
1.043
1.132
1.118
0.792
0.590
0.431
0.377
0.260
-0.069
-0.016
-0.245
-0.177
-0.117
-0.098
0.020
0.109
0.102
0.281
-0.030
0.142
0.334
0.221
0.311
0.191
0.201
0.176
0.284
0.156
-0.064
0.049
0.297
0.147
0.191
-0.092
0.226
0.303
0.128
0.006
0.111
0.064
0.065
-0.002
0.124
0.032
-0.034
0.092
-0.013
0.062
-0.000
-0.016
-0.052
-0.040
-0.035
0.056
0.181
-0.034
-0.047
-0.151
-0.044
-0.100
0.010
0.014
0.005
-0.112
-0.095
0.010
-0.029
0.027
-0.060
-0.170
-0.212
-0.238
0.014
-0.017
-0.003
-0.014
-0.002
-0.018
-0.086
-0.033
-0.032
0.026
-0.027
0.016
0.087
0.104
-0.048
0.022
-0.414
-0.053
0.212
0.147
-0.027
-0.045
0.078
0.026
-0.058
-0.042
-0.003
0.128
0.097
0.091
-0.051
0.044
0.098
0.774
-0.424
0.382
-0.225
-0.234
0.536
0.933
1.295
0.891
0.408
-2.793
-1.713
0.945
1.843
2.221
1.883
0.888
-0.202
-1.744
-3.469
-0.974
0.886
1.498
0.352
-0.316
0.165
0.927
1.576
0.929
-2.588
-1.800
0.371
0.934
0.679
0.524
0.510
0.323
0.214
-0.329
-0.207
0.074
0.192
0.354
0.313
0.164
-0.012
0.155
0.288
0.122
0.239
0.229
0.098
0.262
0.215
0.292
0.189
0.124
-0.218
-0.007
0.156
0.274
0.177
-0.009
0.139
0.047
0.030
-0.050
0.007
0.077
0.075
0.014
0.125
0.001
0.089
0.015
0.099
-0.078
-0.026
0.029
0.067
-0.032
-0.390
-0.092
-0.004
0.062
-0.016
-0.075
-0.054
0.042
-0.037
-0.143
-0.056
-0.102
0.127
0.142
-0.024
-0.100
-0.349
-0.084
-0.022
0.141
0.096
0.071
0.041
-0.151
-0.086
0.084
0.046
-0.131
-0.023
0.083
0.224
0.184
-0.249
0.000
0.116
0.426
0.097
0.065
0.366
1.176
1.043
0.568
0.289
0.013
0.318
0.180
0.461
0.473
0.224
0.235
0.304
0.008
-0.106
-0.345
-0.228
-0.393
-0.474
-0.498
-0.527
-0.407
-0.212
-0.173
-0.066
0.039
0.042
-0.216
0.114
0.036
0.391
0.224
0.417
-0.667
-3.167
-2.156
2.766
4.329
3.622
1.146
-0.697
-1.433
-2.282
-0.143
-0.568
-1.097
1.001
3.037
3.607
3.357
2.558
1.604
0.800
-0.027
-0.304
-0.582
-0.292
-1.513
-0.372
0.392
-0.704
0.131
0.498
0.502
-2.462
-1.862
0.828
2.116
1.990
0.957
-1.388
-1.355
-0.865
-0.645
-0.812
-0.100
0.201
0.455
1.179
0.576
0.917
-0.194
0.279
0.521
1.257
1.953
1.780
-1.606
-0.884
1.476
-1.206
-0.600
1.482
2.501
1.987
-0.992
-1.876
-0.222
0.912
2.267
1.080
-0.881
-0.400
0.652
1.580
1.471
0.809
0.278
-2.563
-2.548
0.869
2.337
1.921
0.805
-0.091
-0.641
-1.008
-1.132
-0.763
-0.269
-0.213
0.179
0.562
0.554
0.546
0.406
0.263
0.270
0.042
-0.022
-0.073
-0.102
-0.075
0.356
-0.517
-1.344
-0.402
0.489
1.173
0.082
-1.505
0.353
-0.211
0.247
0.874
-0.508
-0.059
-0.166
-0.319
0.028
0.207
0.196
-0.054
0.206
0.276
0.204
1.164
0.844
-1.301
-0.839
-0.248
0.197
0.541
0.558
0.401
0.062
-0.121
-0.186
-0.066
-0.314
-0.069
0.017
0.108
0.231
0.112
0.057
0.007
0.059
0.136
-0.094
-0.012
0.086
-0.115
-0.112
-0.148
-0.098
0.098
-0.064
-0.064
0.009
-0.094
0.043
-0.029
-0.049
-0.025
0.027
0.010
0.186
1.167
0.955
0.548
-1.499
0.429
-0.656
-1.836
-0.099
0.893
1.056
0.536
0.194
0.438
0.788
0.534
-1.965
-1.980
1.594
1.867
1.405
1.694
1.086
0.272
-3.114
-1.686
1.074
3.116
2.430
1.046
-1.938
-3.201
-0.687
1.077
1.993
1.540
-0.964
-1.169
-0.172
0.198
1.310
1.764
-0.771
-1.904
-0.177
1.606
0.870
-0.502
0.704
1.731
1.510
0.798
0.176
-0.039
0.015
0.330
0.552
0.567
0.660
0.730
0.457
-2.718
-2.892
2.001
3.775
2.630
0.438
-1.220
-2.060
-2.049
-1.443
-0.631
0.350
1.038
1.531
1.848
1.982
1.403
1.143
0.921
0.543
0.252
-0.145
-0.368
-0.362
-0.319
-0.196
-0.134
-0.033
0.056
-0.103
0.101
0.038
0.107
0.452
0.135
0.176
0.114
0.172
0.206
0.170
-0.012
0.153
0.135
0.013
0.163
0.012
-0.089
0.033
0.088
0.283
0.278
0.013
0.012
0.030
0.175
0.070
0.092
-0.109
0.043
0.241
0.174
0.034
-0.032
0.010
0.004
-0.076
-0.225
-0.097
-0.002
0.113
0.006
0.025
-0.067
-0.195
-0.170
-0.079
-0.042
0.088
-0.179
-0.054
0.020
-0.035
0.033
-0.037
-0.120
-0.010
-0.017
-0.050
-0.141
-0.016
0.013
-0.157
-0.071
0.133
-0.006
0.037
-0.170
-0.095
0.095
0.092
0.041
0.032
-0.180
0.016
0.015
0.122
-0.065
-0.083
0.008
0.052
0.082
0.045
-0.001
-0.004
0.067
0.027
-0.066
0.076
0.101
0.007
0.140
0.320
0.199
0.046
0.023
0.066
0.094
-0.081
0.136
0.174
-0.008
-0.028
0.017
0.050
0.030
0.110
-0.044
0.038
0.135
0.079
-0.041
-0.128
-0.057
0.112
0.186
0.053
0.136
0.091
0.067
-0.132
0.046
0.067
0.071
0.125
-0.072
-0.066
0.109
-0.026
0.157
-0.110
0.013
-0.164
-0.096
0.179
0.003
-0.069
-0.129
0.136
0.088
-0.082
0.062
0.079
-0.013
-0.182
-0.086
0.034
0.193
-0.137
0.066
-0.017
0.030
0.147
-0.022
0.069
-0.059
0.052
0.003
0.057
-0.009
0.176
0.003
-0.004
-0.041
0.049
-0.063
-0.014
-0.073
-0.008
-0.059
0.132
0.130
-0.048
-0.060
-0.020
0.024
0.083
0.167
-0.068
0.025
-0.003
-0.065
-0.011
-0.017
0.102
0.055
0.044
-0.097
-0.002
0.118
0.051
-0.067
0.025
-0.059
0.141
0.133
-0.065
0.087
0.057
0.151
0.005
-0.075
-0.024
0.014
0.190
0.085
-0.133
-0.125
-0.074
0.001
0.178
0.027
0.090
0.070
0.151
-0.049
-0.091
-0.086
0.024
0.177
-0.039
-0.024
0.202
0.131
-0.073
-0.006
-0.001
0.020
0.068
-0.065
0.176
0.079
-0.093
0.069
0.031
0.030
0.033
0.194
-0.070
0.030
-0.064
-0.061
-0.014
-0.019
-0.081
0.101
0.077
-0.028
0.129
0.192
0.020
-0.082
0.011
-0.014
0.117
0.071
0.096
-0.095
0.172
0.028
0.100
-0.017
-0.110
-0.112
0.017
0.060
0.059
0.010
-0.106
0.051
-0.035
-0.103
-0.013
0.131
0.102
-0.016
0.014
-0.013
0.078
0.140
0.199
-0.162
-0.063
0.112
0.006
0.123
0.106
0.036
-0.012
-0.064
0.038
-0.054
-0.113
0.084
0.096
0.163
-0.048
0.176
0.021
0.116
-0.004
0.036
0.167
-0.060
-0.118
-0.080
0.076
0.032
0.074
0.049
0.007
-0.123
-0.155
0.025
0.038
0.026
0.173
-0.030
-0.026
0.068
0.023
0.093
0.123
-0.101
0.078
0.105
0.069
-0.028
-0.007
-0.029
0.136
-0.041
-0.131
-0.067
0.106
0.144
-0.067
0.032
0.008
-0.036
0.048
-0.059
-0.032
0.083
0.125
0.175
0.132
0.065
-0.040
-0.059
0.028
0.063
-0.018
-0.056
0.058
0.015
-0.058
0.086
-0.019
-0.100
-0.096
0.069
0.117
0.181
-0.037
-0.089
0.107
0.000
-0.044
-0.012
0.073
0.035
0.117
-0.014
0.048
0.045
-0.059
0.095
-0.033
-0.007
-0.016
-0.103
0.045
0.139
0.087
-0.036
0.036
-0.003
-0.046
-0.077
0.132
0.110
-0.145
0.107
-0.022
0.115
0.131
0.111
0.031
-0.008
-0.067
0.028
0.071
0.106
0.063
0.053
0.023
0.080
-0.233
0.018
0.083
0.020
0.066
0.069
-0.046
0.096
0.013
-0.006
-0.050
0.018
0.015
0.118
0.000
-0.033
-0.009
0.071
0.016
-0.011
-0.099
-0.075
-0.036
0.145
0.080
0.006
-0.014
-0.045
-0.067
0.002
0.022
-0.021
0.085
0.093
0.017
0.052
-0.074
-0.094
0.110
0.027
-0.042
-0.055
0.010
0.169
0.071
0.107
-0.073
-0.212
0.002
0.066
0.165
0.078
0.128
0.071
-0.089
-0.068
0.115
0.079
0.055
-0.163
-0.039
-0.029
0.210
0.066
-0.003
-0.099
0.023
-0.036
-0.036
-0.018
-0.056
-0.029
0.049
0.070
0.149
-0.055
-0.094
-0.012
0.026
-0.023
-0.097
0.097
0.004
-0.007
0.068
0.029
0.036
0.035
-0.047
-0.050
-0.066
0.099
0.182
0.044
0.003
0.055
0.032
0.031
-0.087
0.037
0.026
0.011
0.074
-0.017
-0.004
0.115
0.022
-0.035
0.099
0.137
0.043
0.026
-0.010
-0.012
0.101
0.018
-0.002
-0.096
-0.120
0.150
0.066
-0.013
0.040
-0.159
-0.056
0.114
0.147
-0.018
-0.003
-0.074
0.084
0.063
0.006
0.175
0.072
0.102
0.128
-0.151
-0.017
0.089
0.039
-0.097
0.055
0.120
0.034
0.104
0.040
-0.089
-0.033
0.047
0.097
-0.079
0.126
0.154
-0.103
-0.217
0.038
0.111
0.098
0.134
-0.009
0.049
-0.140
0.080
0.093
-0.100
-0.020
0.104
0.002
0.078
0.064
0.158
-0.084
-0.005
0.003
-0.030
0.112
0.044
-0.047
-0.027
0.032
0.069
0.102
0.177
-0.105
-0.064
-0.068
0.001
0.016
0.057
0.072
-0.067
-0.043
0.002
0.023
0.043
0.005
0.146
0.128
-0.052
-0.104
-0.076
0.084
0.052
0.063
-0.008
0.034
0.180
-0.053
-0.020
-0.008
0.087
0.002
0.040
-0.039
-0.058
-0.058
-0.019
0.049
-0.056
0.132
0.073
-0.048
0.028
-0.009
-0.019
-0.027
-0.074
0.128
0.110
-0.076
0.165
0.024
0.024
0.023
-0.061
0.037
0.026
-0.075
0.090
0.532
0.894
1.189
0.817
0.400
0.107
0.132
0.273
0.388
0.410
0.477
0.492
0.278
-0.533
-3.456
-2.986
0.663
2.792
-0.893
-1.180
-0.629
-0.515
-0.927
-0.832
-0.607
-0.049
0.681
1.096
1.506
1.520
1.581
1.531
1.129
0.839
0.663
0.359
-0.012
-0.180
-0.214
-0.193
-0.462
-0.355
-0.200
-0.164
-0.064
0.099
-0.027
0.056
0.190
0.191
-0.004
-0.230
-0.049
0.113
0.222
0.044
0.023
0.074
0.077
-0.054
-0.123
-0.023
-0.001
0.031
0.025
0.040
-0.059
0.091
0.071
0.036
-0.029
0.136
0.113
0.180
0.100
0.115
0.172
-0.023
-0.033
0.161
0.115
0.060
0.047
0.074
0.228
0.059
-0.131
-0.041
0.099
0.135
0.038
-0.189
-0.054
-0.024
0.115
0.082
0.009
0.015
-0.012
0.029
0.001
-0.037
-0.001
-0.025
0.001
-0.069
-0.130
0.015
-0.049
-0.033
0.030
0.222
0.022
-0.022
0.127
0.059
0.120
0.448
-0.027
-0.955
-0.699
0.031
0.456
0.327
0.235
-0.059
-0.129
-0.184
-0.153
-0.012
-0.072
0.013
0.029
0.026
0.232
-0.011
0.097
0.181
0.129
-0.029
0.069
0.033
0.004
0.027
-0.077
-0.003
-0.014
0.073
0.179
0.020
0.008
0.022
0.081
0.058
0.046
0.050
0.174
0.138
0.294
0.364
0.075
0.080
0.275
0.276
0.457
0.824
0.707
0.397
0.306
0.214
0.174
0.201
0.051
-0.695
-0.504
0.332
-1.687
-3.679
-0.144
3.117
3.086
1.174
-0.122
-1.033
-1.019
-0.603
-0.847
-0.937
2.252
-1.218
-0.715
1.352
3.383
0.516
0.569
1.341
0.640
-0.338
-1.048
-0.823
-3.021
-0.664
2.949
3.436
2.217
-0.865
-1.304
0.221
0.411
1.153
0.267
-3.103
-2.232
-0.219
0.796
0.671
0.074
-0.126
0.127
0.410
0.061
0.304
0.674
0.892
0.904
0.623
0.521
0.432
0.263
-0.078
-0.042
0.005
-0.215
-0.140
-0.100
0.090
0.010
0.130
-0.017
-0.132
-0.058
0.009
0.146
0.131
0.151
0.008
0.260
-0.059
0.082
0.116
0.101
-0.109
-0.266
0.124
0.239
0.289
0.034
-0.105
0.084
0.074
-0.051
-0.063
0.127
0.171
-0.024
0.145
0.125
0.061
-0.033
-0.201
-0.019
0.194
0.238
-0.030
-0.032
-0.176
0.024
-0.023
0.220
-0.021
0.028
0.100
0.170
-0.264
-0.278
0.115
0.175
0.109
-0.179
-0.134
0.063
0.021
0.059
0.086
0.154
0.102
-0.267
-0.050
0.156
-0.057
0.003
-0.118
-0.109
0.002
0.089
0.104
0.200
0.068
-0.195
-0.184
-0.032
-0.048
0.029
-0.020
0.125
0.036
0.241
-0.321
-0.212
0.210
0.089
0.239
0.642
0.077
-0.511
0.400
-0.164
-1.105
0.502
1.909
1.446
-0.513
-2.475
-2.290
-0.425
1.066
1.056
1.274
0.335
-1.096
-0.890
0.355
0.645
0.314
0.877
0.975
0.390
-1.030
-1.602
1.321
2.125
1.693
0.746
0.092
-0.077
-0.143
-0.212
-0.094
-0.040
-0.178
-0.205
-1.793
-3.478
1.452
3.668
3.478
0.038
-2.621
-2.742
-1.616
0.449
1.222
0.758
-0.652
-1.898
1.712
2.462
1.649
2.266
3.042
1.861
-0.943
-0.743
-0.730
-1.334
-2.482
-1.710
-0.179
0.795
1.083
0.578
0.200
0.031
-0.222
-0.384
-0.098
0.200
0.379
0.626
0.288
0.388
0.623
0.685
0.542
0.404
0.096
0.020
-0.135
0.183
0.280
0.029
0.015
-0.314
-0.146
0.128
0.151
0.123
0.041
-0.098
-0.015
0.001
0.149
0.314
-0.058
-0.134
-0.144
0.071
0.058
0.215
0.596
0.273
-1.466
-0.350
0.378
0.215
0.026
0.014
-0.102
0.144
0.011
-0.322
-0.204
-0.258
-0.047
0.156
0.311
-0.027
-0.024
-0.059
0.108
0.008
0.227
-0.052
-0.000
0.021
0.075
-0.255
-0.173
0.019
-0.015
0.138
-0.041
0.255
-0.131
-0.303
-0.179
0.119
0.176
0.103
0.205
-0.188
-0.116
-0.027
-0.048
0.166
0.255
-0.007
-0.116
-0.242
0.179
0.063
0.039
0.202
-0.059
-0.109
0.074
0.022
0.026
0.290
-0.076
-0.093
0.102
0.166
-0.259
-0.014
0.155
0.054
0.140
0.085
-0.093
-0.091
-0.006
0.013
0.121
0.165
0.277
-0.199
-0.183
0.055
-0.022
-0.172
0.235
0.295
0.068
0.613
1.393
1.148
0.442
0.067
-1.271
-2.967
-0.897
2.024
2.956
1.881
0.662
-2.355
-3.725
-0.581
1.383
1.270
0.708
0.036
-0.199
-0.437
-0.656
-0.596
0.206
0.281
0.289
0.601
0.830
0.639
0.654
1.686
1.491
0.865
-2.527
-0.745
1.753
2.083
0.799
-0.303
-0.887
-1.795
0.696
0.180
-2.311
-0.656
0.891
1.696
0.879
-0.300
0.364
0.614
0.148
0.272
-0.046
-0.594
-3.048
-0.392
2.102
2.830
2.968
2.147
0.531
-0.527
-1.731
-3.596
-0.771
2.227
3.592
0.581
-1.674
-0.354
0.385
0.665
0.069
-0.233
-0.108
0.185
0.576
0.553
0.836
0.951
1.187
0.741
0.472
0.309
0.519
0.359
0.457
0.470
0.399
0.268
-0.148
-0.725
-1.477
0.061
-3.059
-2.104
2.464
3.654
2.483
-0.133
-1.432
-1.634
-1.417
-0.581
-0.008
0.609
1.385
2.011
2.055
1.703
1.288
1.068
0.697
0.462
-0.114
-0.438
-0.381
-0.412
-0.410
-0.088
-0.650
-0.388
-0.141
0.168
0.317
0.134
0.084
0.169
0.173
0.379
-0.056
-0.083
0.202
0.103
-0.199
-0.080
0.199
0.235
0.264
0.206
-0.211
0.221
0.103
-0.225
-0.201
0.062
0.246
0.249
0.172
0.186
-0.275
-0.004
0.169
0.333
0.209
-0.022
-0.241
0.064
0.130
0.228
0.381
-0.155
-0.185
0.022
0.117
0.346
-0.171
-0.199
0.586
-0.033
1.188
1.085
0.507
-0.412
-3.031
-0.595
2.290
2.670
1.514
0.280
-2.973
0.190
0.335
1.565
1.223
-1.982
0.194
1.200
0.858
-2.373
-1.517
1.373
2.010
1.739
1.500
0.591
-0.596
-2.973
-2.888
0.682
1.921
2.359
2.027
0.995
0.295
0.008
-0.296
-0.163
-3.037
-1.396
2.411
3.046
2.332
0.894
-0.275
-0.701
-0.861
-0.692
-0.291
-0.261
0.175
0.594
1.038
1.163
0.864
0.588
0.499
0.494
0.520
0.345
0.258
0.162
0.008
0.054
0.144
0.092
0.396
0.068
-0.057
0.271
0.235
0.285
0.119
0.102
0.136
0.196
0.446
-0.101
-0.052
0.090
0.022
0.245
0.235
0.012
-0.162
-0.058
0.100
0.039
0.167
-0.057
-0.258
-0.081
0.170
-0.050
0.076
0.178
-0.185
0.022
-0.051
-0.359
-0.151
0.033
0.117
-0.041
0.197
-0.108
-0.388
-0.214
-0.236
0.041
0.008
0.084
0.015
-0.281
-0.210
0.022
0.107
0.118
0.074
-0.139
-0.202
-0.063
0.090
0.190
0.248
-0.176
-0.144
-0.110
0.098
0.386
-0.119
-0.228
-0.112
-0.011
0.341
-0.181
-0.035
0.018
0.032
0.287
-0.136
-0.304
-0.070
0.154
0.063
0.349
0.056
-0.220
-0.011
0.181
0.209
0.059
-0.154
-0.093
0.098
0.225
0.368
-0.037
-0.179
0.045
-0.012
0.195
0.291
-0.176
-0.077
0.048
0.237
0.386
0.198
-0.301
-0.208
0.097
0.181
0.385
0.157
-0.247
-0.130
0.029
0.199
0.300
-0.237
-0.052
0.129
0.074
0.339
-0.009
-0.417
-0.053
0.138
0.314
0.146
0.334
-0.269
-0.219
-0.061
0.132
0.103
0.309
0.052
-0.345
-0.232
-0.011
0.116
0.259
0.421
-0.263
-0.378
-0.135
0.042
0.073
0.087
0.274
-0.289
-0.202
0.225
0.152
0.164
0.167
-0.296
-0.272
0.047
0.143
0.234
0.203
-0.344
-0.187
-0.029
0.008
0.072
0.141
-0.161
-0.171
-0.078
0.017
0.127
0.221
-0.018
-0.398
-0.144
0.089
0.192
0.234
0.377
-0.296
-0.168
-0.038
0.047
0.246
0.342
-0.275
-0.194
-0.100
0.161
0.151
0.392
0.126
-0.397
-0.173
0.108
0.210
0.174
0.253
-0.146
-0.085
0.064
0.079
0.106
0.293
0.071
-0.326
-0.118
0.089
0.187
0.160
0.230
-0.225
-0.122
0.038
0.051
0.151
0.160
-0.025
-0.238
-0.080
0.138
0.208
-0.016
0.124
-0.331
-0.029
0.058
0.090
0.205
0.099
-0.333
0.001
0.047
0.124
0.146
0.175
-0.265
-0.313
0.086
0.223
0.179
0.149
0.129
-0.289
-0.195
-0.001
0.003
0.079
0.262
-0.182
-0.203
0.161
0.119
0.032
0.095
0.098
-0.297
-0.203
0.100
0.324
0.197
0.122
-0.190
-0.048
-0.007
0.030
0.059
0.263
0.018
-0.199
-0.117
0.148
0.244
0.077
0.155
0.131
-0.208
-0.071
0.066
-0.013
0.199
0.246
0.002
-0.244
-0.032
0.032
0.227
0.116
0.150
-0.149
-0.231
0.051
0.059
0.117
0.277
0.022
-0.262
-0.134
0.043
0.051
0.122
0.334
-0.004
-0.342
-0.137
0.116
0.131
0.159
0.369
-0.172
-0.212
-0.009
0.133
0.133
0.021
0.361
-0.116
-0.356
-0.113
0.098
0.166
0.140
0.256
-0.171
-0.293
0.087
-0.061
0.133
0.247
0.175
-0.307
-0.164
-0.007
-0.002
0.216
0.280
-0.005
-0.340
-0.098
0.075
0.225
0.148
0.327
-0.115
-0.315
-0.120
-0.042
0.117
0.037
0.067
0.239
-0.020
-0.360
-0.142
0.040
0.055
0.026
0.173
0.197
-0.087
-0.176
-0.002
-0.032
0.193
0.090
0.094
0.127
-0.283
-0.269
-0.054
0.314
0.132
0.077
0.158
0.003
-0.190
-0.151
-0.233
0.163
0.201
0.331
-0.032
-0.246
-0.020
0.139
0.102
0.062
0.105
0.096
-0.180
-0.227
0.106
0.173
0.101
0.289
0.090
-0.157
-0.258
-0.024
0.026
0.096
0.172
0.243
-0.177
-0.204
-0.148
-0.007
0.134
0.166
0.142
0.148
-0.015
-0.049
-0.307
-0.083
0.112
0.144
0.025
0.068
0.198
-0.224
-0.245
-0.214
0.140
0.250
0.158
0.191
-0.070
-0.120
-0.206
0.057
-0.007
0.270
0.206
-0.032
-0.250
-0.089
-0.101
0.101
0.145
0.184
0.093
0.179
0.112
-0.134
-0.186
-0.201
-0.067
0.092
0.275
0.178
0.110
0.204
-0.142
-0.428
-0.219
0.212
0.149
0.137
0.093
0.091
-0.014
-0.216
-0.088
-0.014
0.240
0.182
0.216
0.131
-0.163
-0.193
-0.124
-0.121
0.054
0.249
0.158
-0.024
-0.137
-0.079
-0.012
-0.150
0.132
0.187
0.237
0.075
-0.151
-0.200
0.004
0.240
0.140
-0.006
0.164
0.081
-0.209
-0.068
-0.153
-0.159
0.152
0.245
0.099
0.178
0.192
-0.269
-0.186
-0.037
0.253
0.154
0.157
-0.087
0.179
0.128
-0.026
-0.196
0.080
-0.125
-0.039
0.120
0.056
0.073
0.099
0.089
0.273
0.024
-0.229
-0.144
-0.193
-0.069
0.296
0.260
0.056
-0.017
0.198
0.173
-0.211
-0.224
0.101
-0.123
-0.104
0.092
0.203
0.183
0.169
0.085
0.122
-0.105
-0.171
-0.104
-0.153
-0.225
0.306
0.466
0.183
0.072
-0.142
-0.194
0.018
0.141
0.031
-0.056
0.001
0.145
0.261
0.066
-0.074
-0.249
-0.094
0.158
0.178
0.039
-0.196
-0.022
0.140
0.116
0.075
0.120
0.113
-0.123
-0.203
0.070
0.063
-0.039
0.103
0.072
0.073
0.148
-0.045
0.107
-0.002
-0.060
0.089
-0.089
0.076
0.056
0.066
-0.082
-0.016
-0.009
0.015
0.084
0.106
-0.074
-0.129
0.040
0.184
-0.005
0.019
-0.267
-0.050
0.034
-0.056
0.036
0.041
0.046
0.206
-0.080
0.006
0.052
-0.073
0.063
0.171
0.097
0.048
-0.246
0.030
0.024
-0.043
0.031
0.190
-0.044
0.019
0.176
-0.111
-0.056
0.033
-0.062
-0.100
0.043
0.178
-0.042
0.027
0.046
-0.137
-0.178
-0.035
0.041
0.079
0.083
-0.102
0.023
0.087
-0.020
0.015
-0.031
0.011
0.142
-0.082
-0.008
0.025
-0.015
0.107
0.090
0.055
-0.078
-0.105
-0.132
0.048
-0.033
0.008
0.144
0.057
-0.063
-0.071
0.119
0.034
-0.063
0.054
0.122
-0.027
-0.057
0.003
0.178
0.011
-0.109
0.034
0.191
-0.045
-0.123
0.030
-0.016
-0.119
0.081
-0.002
-0.012
0.132
0.136
-0.042
0.017
-0.348
-0.023
0.116
0.166
0.072
0.083
-0.064
-0.038
0.027
-0.016
-0.059
-0.056
0.137
0.093
0.163
0.044
0.035
0.031
-0.036
-0.083
-0.046
0.187
0.070
0.185
-0.131
-0.187
0.064
0.177
0.088
0.031
0.111
-0.036
-0.049
0.039
0.037
0.080
-0.041
-0.244
0.076
0.064
0.118
0.043
0.076
0.054
-0.027
-0.074
-0.105
0.031
0.046
-0.093
0.076
0.094
0.064
0.111
-0.009
0.031
0.162
-0.108
0.086
-0.060
0.051
-0.052
0.134
0.121
0.012
-0.076
-0.140
-0.048
0.115
0.216
0.116
-0.015
0.065
-0.076
0.130
0.004
0.055
0.123
0.071
-0.045
-0.048
-0.116
-0.105
0.108
0.190
0.030
0.044
0.083
0.082
-0.045
-0.050
-0.076
0.232
-0.122
0.005
0.120
0.105
-0.122
-0.051
-0.090
0.012
0.094
0.143
-0.028
0.106
0.026
-0.026
0.029
0.100
0.239
-0.033
0.033
0.063
0.007
-0.312
-0.104
0.243
1.203
1.573
1.026
0.538
-0.336
-3.325
-1.400
1.326
1.983
1.478
0.377
-0.250
-0.807
-1.066
-0.240
-0.872
-0.552
0.356
1.212
1.300
0.529
-1.814
-0.622
0.713
1.698
1.506
0.575
-0.140
0.276
0.608
0.389
-2.697
-1.973
1.616
3.475
2.822
1.242
-0.006
-0.634
-0.645
-0.463
-0.404
-0.364
0.143
0.770
1.298
0.868
0.425
0.461
0.130
-0.149
-0.375
-1.076
-2.726
-3.531
-3.988
-2.530
2.584
4.234
3.037
0.877
-1.132
-1.673
-1.543
-0.645
0.515
1.290
1.949
2.346
2.271
2.201
1.656
1.250
0.837
0.323
0.006
-0.530
-0.572
-0.628
-0.596
-0.554
-0.545
-0.410
-0.339
-0.135
-0.193
-0.213
-0.083
-0.100
0.091
-0.139
-0.093
-0.236
-0.082
-0.104
-0.124
-0.124
-0.089
0.064
-0.099
-0.123
-0.132
0.028
-0.078
0.056
-0.131
0.156
-0.002
0.045
0.145
0.002
0.053
0.175
0.011
0.088
0.216
0.177
0.225
0.134
0.172
0.012
-0.085
0.179
0.367
0.163
0.061
0.033
0.137
0.049
0.039
0.099
0.229
0.100
0.002
0.067
0.088
0.101
0.039
0.090
0.081
-0.006
-0.196
0.082
0.019
0.124
0.018
-0.164
-0.142
-0.162
0.203
0.062
0.035
-0.095
0.026
-0.075
0.140
0.038
-0.032
-0.069
-0.040
0.014
-0.046
-0.041
-0.028
-0.114
-0.020
0.139
-0.060
0.023
0.162
0.039
0.046
-0.190
-0.150
0.179
0.258
1.253
-0.766
-1.189
-0.215
0.186
0.481
0.308
0.325
0.103
-0.043
0.079
0.023
0.863
1.277
1.019
0.597
0.156
-2.341
-2.587
-0.113
1.742
1.737
0.942
0.105
-0.481
-1.160
-0.949
-0.799
-0.430
-0.052
0.197
0.434
0.574
0.552
0.547
0.433
0.375
0.245
0.139
-0.118
-0.208
0.085
-0.023
-0.092
-0.208
0.017
-0.057
0.132
0.022
-0.170
-0.062
0.099
0.048
0.118
0.127
0.113
0.122
0.095
0.017
0.013
0.020
0.049
0.162
0.063
0.082
0.050
-0.003
-0.150
0.075
0.197
0.176
-0.023
-0.006
-0.053
0.054
-0.050
0.276
0.162
-0.173
-0.021
0.198
-0.074
0.080
-0.005
0.178
0.032
-0.013
-0.022
-0.035
-0.047
0.053
0.117
0.099
-0.014
0.025
0.042
0.127
-0.008
-0.006
-0.060
0.187
-0.044
-0.107
0.027
-0.041
-0.065
0.079
-0.065
-0.016
-0.073
-0.067
-0.025
0.082
-0.004
0.015
-0.085
0.036
0.015
-0.010
0.118
0.160
-0.148
-0.119
0.047
-0.128
0.049
0.052
0.016
-0.057
0.017
0.078
0.059
0.054
0.029
-0.073
0.102
0.033
-0.263
-0.097
0.104
0.185
0.083
-0.058
0.000
0.025
0.075
-0.068
0.048
0.035
-0.024
0.025
0.113
0.158
-0.064
-0.028
0.179
0.151
0.010
-0.178
-0.032
0.115
0.026
0.109
0.107
0.026
0.112
-0.107
0.015
0.045
0.168
0.118
0.070
0.569
0.583
-0.697
-1.182
-0.423
0.323
0.647
0.339
0.395
-0.576
-0.429
0.875
0.195
0.223
-1.295
-0.217
0.371
0.727
1.164
-1.206
-0.659
-0.074
0.321
0.320
0.281
0.676
-0.547
-0.465
-0.150
-0.057
0.091
0.144
0.163
0.311
0.180
-0.021
0.056
0.091
-0.012
0.017
-0.016
-0.109
-0.116
0.060
0.080
0.108
-0.001
0.694
0.845
0.952
0.712
0.310
0.195
-0.065
-0.002
-0.361
-2.440
-3.560
-1.265
1.432
2.053
0.835
-0.111
-0.925
-1.365
-1.140
-0.799
-0.235
0.334
0.646
0.964
1.043
0.992
0.977
0.693
1.026
1.596
1.415
0.831
-2.048
-2.553
-0.031
1.314
1.102
0.519
-0.098
-0.612
-0.792
-0.731
-0.558
-0.214
0.018
0.172
0.094
0.201
1.171
-0.241
-0.318
0.145
0.164
0.140
-0.110
0.079
-0.101
-0.021
-0.182
-0.037
-0.205
0.038
0.099
0.028
0.115
-0.055
0.019
0.122
0.224
0.276
0.115
0.046
0.033
0.123
0.024
-0.019
0.115
0.242
0.215
0.105
0.019
0.184
0.080
0.114
0.117
-0.059
0.094
0.216
0.111
-0.063
0.147
0.107
-0.009
0.069
0.071
0.032
0.067
-0.070
0.265
0.031
-0.070
-0.060
0.071
-0.169
-0.088
-0.031
0.050
0.062
0.052
0.045
-0.078
-0.105
-0.023
-0.050
-0.077
0.031
0.051
0.043
-0.065
-0.045
0.033
-0.021
0.029
0.026
0.012
-0.048
0.072
0.045
-0.074
-0.069
-0.111
-0.067
0.075
0.143
0.069
0.019
0.004
0.087
-0.049
0.203
-0.030
0.017
0.261
0.335
0.477
-0.330
-0.893
-0.779
0.005
0.490
0.441
0.368
0.153
0.524
0.875
0.609
0.498
0.259
-0.576
-2.718
-1.317
0.426
1.252
1.526
1.726
0.814
-0.639
-1.367
-1.105
-0.636
-0.697
-0.576
-0.295
0.232
0.168
0.209
0.121
0.105
0.054
-0.008
-0.208
-0.065
-0.031
0.012
0.201
0.176
0.405
0.530
0.322
0.440
0.402
0.258
0.417
0.171
0.013
0.021
-0.017
-0.176
-0.070
-0.013
-0.163
-0.037
-0.115
-0.172
-0.191
-0.063
-0.199
0.044
0.024
0.166
-0.198
-0.191
-0.025
0.074
0.000
-0.080
-0.153
-0.099
0.034
0.052
0.092
0.069
0.058
-0.058
0.040
0.039
-0.001
0.099
0.096
0.116
-0.220
0.151
0.064
0.261
0.463
0.595
0.544
0.876
0.701
0.352
0.226
0.205
0.292
0.334
0.498
0.400
0.331
0.234
0.026
-0.049
-0.241
-0.216
-0.267
-0.291
-0.268
-0.293
-0.192
-0.211
-0.103
-0.235
-0.026
-0.061
-0.006
0.098
0.244
0.247
0.152
0.051
0.119
0.098
0.118
0.057
0.070
0.237
0.200
0.365
0.383
0.128
0.113
0.199
0.183
0.222
0.239
0.186
0.152
0.162
0.101
-0.020
0.128
-0.002
0.054
0.042
-0.049
-0.092
-0.070
-0.097
0.002
-0.074
-0.081
-0.136
-0.052
-0.055
-0.055
-0.125
-0.085
-0.164
-0.181
-0.057
-0.055
0.046
-0.134
-0.144
-0.280
-0.090
-0.103
-0.036
-0.045
-0.151
-0.013
-0.123
-0.202
-0.052
-0.000
-0.101
-0.138
0.026
-0.042
-0.189
-0.161
-0.018
-0.159
-0.089
0.129
0.025
-0.171
0.044
0.052
0.056
0.004
-0.028
-0.080
-0.003
0.091
-0.021
0.037
-0.187
-0.192
-0.106
0.012
-0.053
-0.046
0.131
0.154
-0.035
-0.058
-0.108
-0.014
0.057
0.118
0.050
0.110
-0.082
-0.008
-0.108
-0.022
-0.079
0.011
0.036
0.086
0.011
0.066
-0.061
-0.143
-0.056
-0.027
0.136
-0.020
-0.123
0.082
0.190
0.061
-0.004
-0.072
0.211
0.154
-0.091
-0.025
0.058
0.001
-0.164
0.029
-0.028
-0.128
0.105
-0.020
-0.073
-0.026
-0.094
-0.026
-0.129
-0.086
-0.075
0.031
0.020
-0.107
-0.028
0.021
0.088
-0.075
-0.021
0.153
0.055
-0.049
-0.006
0.172
0.033
0.005
0.073
0.088
-0.034
0.085
-0.041
-0.058
-0.007
0.171
-0.031
0.056
0.026
0.003
-0.036
0.015
0.043
-0.076
0.041
0.070
0.001
-0.139
0.021
0.068
-0.018
0.077
-0.003
-0.057
0.010
-0.060
0.058
0.025
-0.010
0.004
-0.017
0.020
0.027
0.075
0.010
0.219
-0.068
-0.048
0.010
0.053
0.141
0.004
0.029
-0.041
0.201
0.082
0.002
0.045
-0.009
0.086
0.246
-0.067
-0.045
-0.060
-0.024
0.055
-0.026
0.217
-0.017
0.043
-0.104
0.076
0.141
-0.056
0.031
-0.048
0.066
0.011
0.038
0.004
0.147
0.112
-0.014
0.029
-0.029
-0.009
0.030
-0.030
0.091
-0.023
0.022
0.032
0.054
0.017
0.036
0.040
-0.022
-0.033
-0.002
0.091
0.100
-0.023
0.073
-0.120
0.000
-0.013
-0.053
0.055
0.143
0.002
0.011
0.032
-0.066
-0.039
-0.013
-0.058
-0.038
0.228
0.020
0.056
-0.034
-0.123
0.077
-0.039
0.086
0.088
0.158
0.079
0.004
0.006
0.109
-0.048
0.156
-0.105
0.040
-0.095
-0.074
0.017
0.001
0.050
0.007
0.055
0.102
0.060
0.009
-0.056
0.013
0.139
0.046
0.055
-0.045
-0.074
0.075
0.041
0.054
0.034
0.020
-0.032
0.053
0.037
-0.017
0.128
-0.048
0.110
0.090
0.013
0.053
0.133
0.130
0.020
-0.076
0.032
0.059
-0.040
0.125
0.053
0.074
-0.050
0.095
-0.105
-0.092
0.017
0.182
0.319
0.094
0.009
0.016
-0.090
-0.034
0.097
0.038
0.080
0.023
0.014
0.016
0.019
-0.036
0.086
-0.094
-0.025
0.127
-0.176
-0.018
-0.166
-0.022
-0.001
-0.040
-0.016
-0.091
0.105
0.095
-0.011
0.022
-0.087
0.086
0.122
0.109
0.048
-0.001
0.014
0.049
0.030
-0.037
0.199
0.156
-0.035
0.017
-0.037
0.080
0.090
0.034
0.035
0.050
0.043
-0.049
-0.046
0.272
0.072
0.317
0.151
-0.008
0.256
0.149
0.075
-0.046
0.116
0.003
-0.263
-0.302
0.126
0.171
0.279
-0.011
-0.226
-0.148
-0.200
-0.167
-0.236
-0.339
0.035
-0.176
0.073
0.138
0.368
0.163
-0.028
-0.025
-0.126
-0.037
-0.062
-0.025
0.089
0.065
0.075
-0.025
0.114
0.156
0.172
-0.098
0.086
-0.123
-0.055
0.060
0.169
0.063
-0.063
-0.035
0.038
0.029
0.136
0.134
0.156
0.055
0.023
0.139
0.059
-0.015
0.014
-0.121
0.148
0.089
0.149
-0.097
0.037
-0.034
-0.088
-0.030
-0.056
0.016
0.120
-0.246
-0.021
0.087
0.066
-0.047
-0.095
0.011
-0.046
0.031
0.148
0.005
0.054
0.103
-0.013
-0.035
0.078
-0.042
-0.111
0.049
0.071
0.057
-0.021
0.132
0.096
0.168
0.094
0.034
0.004
-0.017
-0.009
0.071
0.216
-0.058
0.025
0.115
0.084
0.021
-0.010
0.000
0.048
-0.092
0.020
0.151
0.073
0.072
-0.001
-0.112
0.029
0.263
0.024
-0.062
0.092
0.035
0.159
0.016
-0.037
-0.027
-0.017
-0.119
0.110
0.117
-0.125
0.062
-0.064
-0.058
0.111
-0.000
-0.030
0.063
0.009
0.099
-0.031
0.031
0.052
0.021
-0.003
-0.041
-0.060
-0.016
-0.104
0.003
-0.015
-0.019
0.112
-0.066
-0.208
0.016
0.012
0.066
-0.119
-0.013
0.085
-0.073
-0.007
0.043
0.057
0.102
0.056
0.023
0.044
-0.258
-0.124
-0.067
0.120
0.151
0.202
0.389
0.332
0.144
-0.065
-1.274
-0.494
0.671
1.280
1.084
0.418
-0.144
-1.428
-1.852
-3.566
-4.153
-0.524
3.277
4.362
-1.229
0.094
0.715
-1.497
-3.182
-2.664
-0.094
2.846
4.204
4.505
4.439
4.277
4.091
3.886
3.675
2.523
0.775
-0.874
-2.214
-2.907
-3.046
-2.992
-2.525
-2.077
-1.308
-0.756
-0.236
0.084
-0.015
0.383
0.566
0.753
0.624
0.524
0.352
0.485
0.303
0.355
0.317
0.276
0.441
0.583
0.570
0.596
0.704
0.714
0.676
0.711
0.728
0.702
0.702
0.701
0.671
0.546
0.602
0.660
0.469
0.421
0.500
0.518
0.443
0.479
0.395
0.402
0.229
0.290
0.138
0.148
0.076
-0.016
-0.095
-0.128
0.025
0.047
-0.002
0.024
-0.267
-0.227
-0.178
-0.180
-0.205
-0.102
-0.136
-0.230
-0.347
-0.390
-0.222
-0.267
-0.238
-0.221
-0.175
-0.328
-0.310
-0.336
-0.245
-0.169
-0.352
-0.171
-0.117
-0.075
0.260
0.389
-0.017
-0.397
-1.902
-0.652
0.341
0.601
0.564
0.140
0.149
-0.268
-0.269
-0.666
-0.176
0.108
0.449
1.219
-0.279
-0.517
0.692
1.170
0.901
0.082
-2.602
0.068
2.187
2.029
-2.007
-1.190
0.123
0.494
0.601
0.256
-0.287
-0.390
-0.466
-0.119
0.345
0.293
0.289
0.252
0.292
0.231
0.200
0.200
0.017
0.041
0.092
-0.051
-0.071
0.182
0.227
0.374
0.428
0.506
-0.102
-0.592
-0.961
-0.329
0.174
0.103
0.256
0.330
0.408
0.452
-0.073
-0.492
0.650
0.136
-2.288
-1.129
0.471
1.036
1.110
0.611
0.136
-0.150
-0.255
-0.116
-0.022
0.182
0.191
0.048
0.167
0.242
0.169
0.287
0.276
0.215
0.035
-0.099
-0.036
-0.107
-0.095
0.061
0.024
-0.065
-0.112
-0.177
-0.123
-0.069
0.012
-0.076
0.015
-0.171
0.005
-0.030
0.042
-0.169
-0.273
0.017
-0.007
-0.134
-0.037
-0.135
-0.020
-0.165
-0.205
0.081
-0.036
-0.040
-0.006
-0.132
-0.118
-0.076
-0.008
0.152
-0.086
0.054
-0.127
-0.099
0.066
-0.023
0.090
0.246
0.069
0.009
0.099
0.009
0.033
0.064
0.200
0.185
0.001
0.209
0.072
0.239
0.072
0.017
0.211
0.102
-0.056
0.015
0.072
-0.027
0.155
0.123
0.092
0.186
0.063
0.056
0.096
0.017
0.023
0.025
0.041
0.066
0.042
0.133
-0.032
-0.026
0.192
0.150
-0.044
-0.111
0.011
-0.049
0.004
0.046
0.072
0.037
0.013
0.073
-0.141
-0.032
-0.035
0.028
0.083
-0.146
-0.033
-0.153
-0.052
0.010
0.025
0.142
-0.181
-0.094
-0.072
0.195
0.099
-0.102
-0.020
-0.113
0.096
0.090
-0.081
0.037
-0.025
-0.095
0.021
0.082
-0.101
0.114
0.066
0.029
0.028
-0.008
-0.131
0.016
0.021
0.064
-0.045
0.114
0.153
0.212
-0.035
-0.011
0.017
-0.044
0.084
0.037
-0.007
-0.035
0.030
0.057
0.170
0.014
-0.028
0.075
0.088
0.052
0.164
-0.053
0.058
0.112
-0.014
0.069
0.185
0.059
-0.203
-0.091
0.043
0.067
0.114
0.026
0.122
-0.003
0.026
0.017
0.003
0.022
0.144
-0.157
-0.141
0.168
0.048
0.051
0.045
0.144
0.093
-0.080
-0.091
-0.007
0.024
-0.058
0.052
0.125
0.028
0.083
-0.028
-0.125
0.121
0.032
0.112
-0.039
-0.055
-0.091
-0.006
-0.018
-0.071
0.050
-0.080
0.039
0.048
-0.022
-0.076
-0.019
0.028
0.095
-0.046
0.062
-0.082
0.079
0.037
0.051
0.070
-0.030
0.067
0.031
0.015
-0.041
0.038
0.062
0.019
-0.077
0.004
-0.032
0.083
0.013
-0.078
0.107
-0.086
0.014
-0.011
0.079
0.306
0.015
-0.306
-0.033
0.093
0.068
0.084
0.059
0.013
0.068
0.183
0.011
-0.083
0.006
0.016
-0.098
0.082
-0.044
0.117
0.070
-0.027
-0.015
-0.037
0.056
0.124
0.040
0.011
-0.000
0.117
-0.005
-0.103
-0.019
0.051
0.075
0.113
0.005
-0.039
-0.065
0.088
0.025
-0.006
0.126
0.119
-0.062
-0.144
0.005
0.108
0.007
-0.064
0.012
-0.011
0.131
0.103
-0.080
0.115
0.100
-0.014
-0.042
-0.065
-0.061
-0.082
0.081
-0.065
-0.039
0.061
0.061
0.022
0.135
0.267
0.569
-0.431
-0.523
-0.039
0.255
-0.029
0.072
0.465
-0.094
-0.169
-0.111
-0.175
0.090
-0.037
0.034
0.137
0.161
0.134
-0.416
0.019
0.118
0.241
0.266
-0.134
-0.001
-0.061
0.079
0.037
-0.027
0.634
-0.141
-0.643
-0.308
-0.028
0.218
0.278
0.127
0.202
0.776
-0.008
-0.088
-1.040
-1.139
0.002
0.427
0.540
0.417
0.205
-0.060
-0.173
0.076
-0.057
-0.242
-0.057
0.301
0.495
0.282
0.122
-0.189
0.015
0.208
-0.060
0.075
0.012
0.000
0.049
-0.031
-0.309
-0.141
-0.137
-0.096
-0.000
-0.158
-0.088
-0.026
0.094
0.037
0.082
-0.183
-0.154
0.131
0.230
0.182
0.191
0.236
-0.161
-0.166
0.210
-0.140
-0.176
-0.107
0.294
0.334
-0.041
-0.089
-0.063
0.026
0.097
0.589
1.282
0.555
-0.056
-0.736
-0.744
-0.504
-0.320
0.078
0.371
0.413
0.204
-0.146
-0.423
-0.549
-0.351
-0.441
-0.713
-0.394
0.732
0.989
0.657
-0.145
-0.568
0.089
0.508
0.244
-0.048
0.241
0.133
0.143
-0.005
0.116
0.007
-0.040
-0.106
0.004
0.024
-0.088
-0.067
0.049
0.023
0.074
0.149
0.077
0.050
-0.145
-0.022
-0.610
-0.109
0.123
-0.254
0.016
0.257
0.033
0.271
-0.117
-0.132
-0.053
0.253
0.579
-0.017
-0.646
-0.347
0.019
-0.054
0.140
0.345
0.180
0.274
0.671
-0.638
-0.676
0.138
1.100
0.060
-0.386
-0.826
-0.294
0.822
1.579
0.636
-1.255
-2.084
-0.472
0.566
0.333
0.129
0.148
-0.142
-0.212
-0.215
-0.076
-0.200
0.065
0.301
0.245
0.262
0.181
0.495
0.497
-0.078
0.863
1.243
-1.121
-2.436
-0.464
0.498
0.798
0.519
-0.064
-0.227
-0.218
-0.224
-0.124
-0.183
0.031
0.089
0.206
0.163
0.181
0.341
0.267
0.117
0.009
-0.133
0.068
0.109
0.048
-0.088
0.049
-0.096
-0.116
-0.035
-0.046
0.091
-0.025
0.062
0.050
0.030
0.123
-0.052
0.032
0.105
0.017
-0.014
-0.056
-0.099
0.014
0.041
0.017
0.056
0.086
-0.053
0.047
-0.071
-0.048
-0.028
0.113
0.077
0.090
0.116
0.096
-0.055
-0.137
0.059
-0.018
0.018
0.032
0.205
0.028
-0.188
0.025
-0.022
0.021
0.193
0.156
0.757
-0.650
-0.432
-0.236
-0.004
0.259
0.178
0.126
0.092
0.023
-0.039
-0.147
0.080
-0.011
-0.038
-0.019
0.172
0.083
0.133
-0.024
0.096
-0.021
0.054
0.032
-0.076
-0.100
0.048
-0.091
0.018
0.129
0.074
-0.148
-0.143
0.234
0.154
0.020
-0.045
-0.034
0.046
0.070
0.242
0.172
0.091
-0.017
-0.047
-0.139
-0.055
0.040
-0.002
0.131
0.149
0.154
-0.007
-0.023
-0.136
-0.092
-0.024
0.056
-0.031
0.187
0.137
-0.127
-0.124
0.027
0.004
0.198
0.105
0.072
-0.004
-0.029
0.000
0.047
0.033
0.016
0.122
-0.014
0.230
-0.034
0.054
0.100
-0.075
0.018
0.071
0.018
0.029
0.039
0.052
0.046
-0.031
0.233
-0.158
-0.186
0.028
0.069
-0.019
0.011
0.060
0.058
0.076
0.091
-0.160
-0.083
0.169
-0.074
-0.049
0.107
0.169
-0.019
0.015
-0.139
0.161
-0.159
-0.178
0.049
0.120
0.165
0.017
-0.095
-0.135
0.025
0.068
0.057
0.099
0.233
0.010
-0.150
-0.113
0.086
0.098
0.005
-0.012
0.143
0.221
0.014
-0.130
-0.161
-0.044
-0.145
0.143
-0.004
0.184
-0.013
-0.138
0.008
-0.002
0.051
-0.133
0.150
0.123
0.090
-0.033
-0.098
0.038
0.140
-0.007
0.008
-0.050
-0.018
-0.019
-0.034
0.155
0.046
0.007
0.046
0.010
-0.173
0.080
0.001
-0.056
0.063
0.141
-0.080
0.180
0.082
0.111
0.044
0.004
0.058
0.096
0.025
-0.046
-0.028
0.152
-0.005
0.005
0.128
0.038
-0.002
0.034
-0.173
-0.001
0.033
0.103
0.034
-0.049
0.123
-0.012
-0.032
-0.031
0.096
0.034
0.097
0.031
0.012
-0.150
0.125
-0.004
0.120
0.130
0.084
0.001
0.006
-0.036
0.039
0.027
-0.058
-0.041
0.089
0.067
0.108
-0.009
-0.241
0.023
0.019
0.040
0.089
0.112
-0.042
0.032
0.068
-0.023
0.006
0.041
0.122
-0.013
0.077
0.177
-0.255
-0.157
0.101
0.105
0.208
-0.152
-0.038
-0.018
-0.045
-0.003
-0.051
0.166
-0.065
-0.211
0.068
0.018
0.110
0.047
0.071
-0.054
-0.064
