0.003
-0.101
-0.157
0.225
0.232
-0.008
-0.095
-0.112
-0.105
0.045
0.089
-0.029
-0.017
0.065
0.038
0.084
-0.070
-0.149
-0.045
0.042
-0.027
-0.100
0.002
0.042
0.056
-0.128
-0.127
0.027
0.127
-0.184
-0.116
0.114
0.153
-0.085
-0.092
-0.035
-0.007
-0.114
0.123
0.055
0.029
0.007
-0.056
0.011
0.066
-0.085
-0.060
-0.144
0.221
0.016
0.003
-0.114
-0.287
0.142
0.140
0.014
-0.162
-0.075
-0.070
-0.032
-0.061
0.034
-0.035
-0.071
-0.038
-0.007
0.016
-0.166
0.038
0.013
-0.067
-0.051
0.046
0.039
-0.107
0.019
0.090
-0.037
0.017
-0.125
-0.004
-0.038
-0.129
0.003
-0.113
-0.015
-0.103
-0.178
0.251
-0.008
-0.096
-0.088
0.014
-0.081
0.016
-0.139
0.029
-0.056
-0.000
0.031
0.044
0.073
-0.005
-0.013
-0.191
-0.026
-0.015
0.105
-0.221
0.002
0.141
0.015
-0.224
0.105
0.134
-0.194
-0.117
0.004
0.014
-0.027
0.088
-0.058
-0.033
-0.054
0.068
-0.009
0.004
-0.073
-0.164
-0.038
0.042
-0.034
-0.054
-0.084
0.234
-0.120
-0.155
0.008
-0.052
-0.024
0.227
0.015
-0.156
-0.062
-0.092
-0.272
0.214
0.422
-0.522
0.262
0.095
-0.074
0.012
-0.325
0.174
0.240
0.015
-0.031
-0.222
-0.060
-0.002
0.063
-0.033
-0.113
0.136
-0.060
-0.048
-0.084
0.017
-0.017
0.061
0.033
-0.086
-0.122
-0.124
0.099
0.257
-0.158
-0.056
-0.148
-0.105
0.006
0.004
0.136
-0.055
-0.100
-0.057
0.051
0.039
-0.010
-0.073
-0.026
-0.049
-0.039
-0.016
0.106
-0.047
0.050
-0.016
-0.142
0.190
-0.088
-0.056
0.023
-0.129
-0.065
0.095
-0.230
-0.013
0.098
-0.024
-0.123
-0.105
0.113
0.016
-0.073
0.021
-0.028
-0.025
0.029
-0.261
0.144
0.296
-0.052
-0.544
0.071
0.251
-0.050
0.156
-0.180
-0.054
-0.096
-0.086
-0.001
0.122
-0.143
-0.223
0.379
0.286
-0.213
-0.252
-0.005
-0.118
0.018
-0.058
0.130
-0.102
-0.065
0.057
-0.073
-0.200
0.023
0.028
0.149
0.114
-0.227
-0.189
-0.023
-0.023
0.158
0.262
0.004
-0.132
-0.074
0.127
-0.049
-0.164
-0.166
0.066
0.064
0.021
-0.012
-0.065
0.088
0.032
-0.055
-0.037
-0.053
-0.146
-0.016
-0.024
0.154
0.029
0.083
-0.053
-0.032
0.006
-0.077
-0.048
0.049
-0.019
-0.067
-0.049
0.020
0.082
-0.067
-0.102
-0.042
-0.001
0.029
0.023
-0.086
-0.025
0.005
-0.052
-0.089
0.008
-0.063
0.062
-0.008
0.151
-0.001
-0.063
-0.027
-0.064
0.042
-0.098
-0.120
0.021
0.013
-0.120
0.041
0.095
0.011
0.019
-0.165
-0.127
-0.046
0.095
-0.061
-0.018
0.052
-0.053
-0.140
-0.166
0.135
0.251
-0.009
-0.235
-0.070
-0.122
0.073
0.072
-0.076
-0.016
-0.046
0.005
-0.106
0.091
0.104
-0.037
-0.097
-0.026
-0.017
-0.248
-0.236
-0.159
0.865
-0.194
-0.605
0.397
0.113
-0.051
-0.173
-0.201
-0.101
0.002
0.014
0.108
0.105
0.082
-0.069
-0.195
-0.234
0.045
0.125
-0.038
-0.121
-0.107
-0.088
0.074
0.029
-0.019
0.009
0.051
-0.073
-0.070
-0.120
0.105
-0.073
-0.153
0.128
0.185
-0.186
-0.152
-0.068
-0.066
0.016
0.058
-0.051
0.017
0.172
-0.163
-0.220
-0.096
-0.092
0.103
0.141
-0.087
-0.039
0.004
0.012
-0.058
-0.030
0.045
-0.047
0.036
-0.038
-0.049
-0.070
-0.079
0.124
-0.013
-0.073
0.018
-0.019
-0.068
-0.061
-0.105
0.185
-0.007
-0.044
-0.072
0.029
-0.109
-0.058
0.055
0.003
-0.005
-0.064
-0.240
0.030
0.151
-0.032
-0.166
0.102
0.132
-0.109
-0.119
-0.098
-0.110
-0.168
0.026
0.429
0.016
-0.164
-0.255
-0.151
0.129
-0.009
-0.168
-0.073
-0.137
0.212
0.104
-0.110
-0.076
-0.063
0.045
-0.015
-0.005
-0.006
-0.006
0.096
-0.065
-0.058
-0.036
-0.051
0.040
0.061
-0.013
-0.278
0.099
0.137
-0.054
-0.254
-0.130
0.224
0.120
-0.007
-0.011
-0.083
-0.252
0.050
0.109
-0.072
0.100
-0.308
-0.190
0.373
0.018
-0.024
0.023
-0.179
-0.139
-0.047
-0.025
0.109
0.071
-0.062
-0.069
-0.076
-0.001
-0.117
-0.093
0.138
-0.203
-0.036
0.196
-0.051
-0.045
0.009
-0.073
-0.036
0.077
-0.035
-0.001
-0.128
-0.031
-0.029
-0.078
-0.041
0.140
-0.046
0.088
0.018
-0.020
-0.074
-0.053
-0.103
-0.154
0.144
0.198
0.130
-0.048
-0.113
-0.017
-0.075
-0.155
-0.022
-0.096
-0.021
-0.008
0.154
0.028
-0.092
-0.179
-0.004
0.210
0.051
-0.195
0.072
0.008
-0.090
-0.134
0.016
0.033
-0.027
-0.212
0.146
0.106
-0.101
-0.241
-0.007
0.045
-0.049
0.018
0.062
-0.088
-0.178
-0.210
0.051
0.110
-0.082
0.045
0.150
-0.057
-0.187
-0.050
0.079
-0.586
0.372
0.750
-0.333
-0.522
-0.147
0.403
0.069
-0.146
-0.066
0.023
0.091
-0.084
-0.008
-0.004
-0.087
-0.162
-0.065
0.093
-0.023
0.072
-0.217
-0.207
-0.121
0.169
-0.084
-0.114
0.314
0.115
-0.237
-0.031
-0.035
-0.069
-0.091
0.036
0.166
-0.078
-0.073
-0.053
-0.193
-0.224
0.052
0.123
0.105
0.033
-0.059
-0.050
-0.135
-0.125
-0.173
0.075
0.104
-0.055
-0.083
-0.041
-0.058
0.072
0.112
-0.014
-0.082
-0.114
0.024
-0.022
-0.123
-0.108
0.186
0.061
-0.000
-0.111
-0.029
-0.008
-0.113
-0.022
-0.057
-0.039
-0.062
-0.013
0.159
0.052
-0.112
-0.151
-0.082
-0.092
0.069
0.014
-0.084
0.035
-0.030
0.096
-0.082
-0.062
-0.075
-0.199
-0.100
0.198
0.055
-0.086
-0.125
-0.146
-0.029
-0.093
0.021
0.047
-0.025
-0.025
-0.482
0.672
0.177
-0.508
-0.405
0.483
0.190
-0.094
-0.241
-0.109
0.145
-0.038
-0.088
0.113
0.021
0.078
-0.075
-0.077
-0.070
-0.146
0.033
0.071
-0.044
-0.095
-0.180
0.186
-0.233
0.072
0.185
-0.175
-0.092
0.084
0.096
-0.015
-0.069
-0.106
-0.006
-0.067
-0.060
-0.052
-0.127
-0.072
0.229
-0.026
0.016
0.016
-0.062
-0.201
-0.060
0.073
0.067
-0.035
-0.069
0.058
0.161
-0.150
-0.093
0.062
-0.096
-0.076
-0.100
-0.096
0.306
-0.005
-0.114
-0.244
0.197
0.117
-0.083
0.009
-0.104
-0.048
-0.090
0.070
-0.068
-0.013
-0.064
0.038
-0.006
0.039
0.040
-0.040
-0.016
-0.073
0.018
-0.097
-0.088
-0.093
0.028
0.127
0.039
-0.102
-0.125
-0.046
-0.091
-0.029
0.086
0.039
-0.079
-0.231
0.210
0.128
0.190
-0.220
-0.178
-0.117
-0.038
-0.206
-0.078
0.760
-0.095
-0.323
-0.111
0.005
-0.072
-0.030
-0.029
0.005
-0.008
-0.031
-0.152
0.029
0.183
0.001
-0.155
-0.189
-0.007
-0.072
0.096
0.089
0.069
-0.196
-0.027
0.158
0.051
-0.009
-0.035
-0.127
0.005
-0.075
-0.201
-0.169
0.043
0.235
0.104
-0.114
-0.003
-0.068
-0.180
0.027
0.098
-0.051
-0.175
-0.143
0.360
0.145
-0.081
-0.069
-0.100
-0.153
-0.178
-0.102
0.608
0.048
-0.224
-0.121
-0.026
-0.040
-0.096
-0.002
0.023
-0.096
-0.038
-0.052
-0.051
0.104
-0.084
-0.040
-0.130
-0.003
0.132
-0.051
-0.067
-0.117
-0.008
0.226
0.047
-0.073
-0.087
-0.015
0.111
-0.032
-0.109
-0.062
-0.060
0.021
0.115
-0.258
-0.203
0.212
0.173
-0.189
-0.171
0.113
-0.009
-0.111
-0.061
0.095
-0.079
-0.054
-0.051
0.083
0.036
-0.190
-0.006
0.050
-0.002
-0.280
0.057
0.258
-0.056
-0.028
-0.171
-0.008
0.132
0.044
-0.040
-0.094
-0.001
0.119
-0.247
0.133
0.001
-0.111
-0.247
0.204
-0.004
-0.094
0.024
-0.073
-0.045
0.022
-0.091
-0.001
-0.004
0.033
0.139
-0.174
-0.179
-0.183
0.023
0.019
0.052
0.009
-0.048
-0.052
0.048
0.087
-0.128
-0.145
0.203
-0.059
-0.266
0.049
0.187
-0.089
-0.001
0.016
0.010
0.004
-0.092
-0.163
0.021
0.046
0.012
-0.033
-0.010
-0.121
0.021
0.095
-0.088
-0.075
-0.056
-0.002
-0.048
-0.049
0.029
0.043
0.109
-0.160
-0.082
-0.123
-0.079
0.344
-0.043
-0.159
-0.040
-0.260
0.105
0.020
0.021
0.121
0.043
0.032
-0.111
-0.374
-0.034
0.354
0.008
-0.078
-0.157
-0.145
-0.057
0.113
-0.053
0.019
0.077
-0.122
-0.073
0.004
0.035
-0.051
-0.218
0.117
-0.012
-0.090
0.046
-0.136
0.027
0.038
-0.025
-0.019
0.053
0.001
-0.065
-0.068
0.014
-0.022
-0.018
0.062
-0.028
-0.020
-0.047
0.008
0.003
-0.123
-0.068
-0.057
0.137
0.010
-0.020
-0.089
0.033
-0.006
-0.090
-0.101
-0.062
0.177
0.048
0.060
-0.120
-0.172
0.033
0.068
-0.134
-0.101
-0.076
0.163
-0.012
-0.170
-0.098
0.084
-0.004
-0.157
0.009
0.090
0.205
0.018
-0.171
-0.248
-0.252
0.252
0.124
0.095
-0.190
-0.200
0.133
-0.237
0.155
-0.087
0.022
0.036
-0.051
-0.133
-0.024
0.057
-0.084
0.106
0.093
-0.127
-0.136
0.047
0.027
-0.056
-0.006
-0.065
0.059
0.042
0.006
-0.014
-0.179
0.062
0.059
0.005
-0.043
-0.122
-0.220
0.116
0.144
0.173
-0.034
-0.373
-0.144
0.126
-0.038
0.040
0.013
-0.027
-0.125
-0.120
0.089
0.134
-0.161
-0.099
-0.055
-0.185
-0.076
0.195
0.031
-0.066
-0.263
-0.169
0.565
-0.361
-0.087
0.620
-0.275
-0.317
-0.051
0.122
0.068
0.053
0.113
0.135
0.012
-0.330
-0.057
0.214
-0.167
-0.107
-0.019
-0.097
0.070
0.059
-0.053
-0.175
-0.067
0.207
-0.085
0.001
0.045
-0.036
-0.145
0.000
-0.122
0.071
0.141
-0.048
0.056
-0.097
-0.023
0.068
0.029
0.013
-0.055
-0.328
0.021
0.221
0.007
-0.089
-0.074
-0.004
0.126
-0.049
0.001
-0.044
-0.036
-0.097
0.093
0.011
0.059
-0.183
-0.164
-0.043
0.004
-0.021
0.235
-0.028
-0.140
-0.123
-0.114
0.006
-0.038
0.012
-0.012
0.077
0.034
0.016
-0.056
0.010
-0.077
0.021
0.050
0.082
0.173
-0.279
-0.304
0.492
0.038
-0.192
-0.112
-0.039
-0.090
-0.036
0.101
0.045
-0.025
-0.107
0.025
0.015
-0.053
0.047
-0.111
-0.229
-0.016
0.059
0.043
-0.054
-0.014
-0.004
-0.109
-0.080
-0.054
-0.035
0.238
0.108
-0.052
-0.190
-0.146
0.061
0.152
0.019
-0.011
-0.075
-0.122
0.006
0.031
0.086
-0.054
-0.111
0.014
-0.050
-0.068
-0.026
-0.179
0.075
-0.024
-0.017
0.278
-0.164
-0.274
-0.183
0.406
-0.000
-0.156
-0.097
-0.041
0.288
-0.053
-0.091
0.109
-0.056
-0.075
-0.051
-0.058
0.156
-0.025
-0.028
-0.047
-0.044
-0.011
-0.221
-0.004
0.203
-0.093
-0.058
0.012
0.072
-0.171
-0.096
0.015
-0.036
0.161
-0.133
-0.154
0.100
-0.206
-0.075
0.004
0.238
-0.005
-0.155
-0.178
0.013
-0.057
0.041
0.119
-0.356
-0.167
0.349
0.196
-0.145
-0.563
0.140
0.169
-0.186
-0.179
0.197
0.088
-0.006
-0.031
-0.029
-0.232
0.117
0.146
-0.190
-0.029
-0.013
-0.298
0.020
0.325
-0.212
-0.276
0.160
0.230
-0.039
-0.131
-0.117
-0.138
-0.217
0.038
0.199
-0.095
0.056
-0.009
0.063
-0.150
0.043
-0.233
-0.088
0.171
-0.117
-0.174
0.088
0.073
0.073
0.000
-0.096
-0.088
-0.195
0.162
0.119
-0.054
-0.066
-0.026
-0.246
-0.095
0.013
0.111
-0.003
-0.008
-0.060
-0.107
-0.132
-0.056
0.126
0.014
-0.030
-0.009
0.093
0.027
-0.060
0.063
-0.102
0.061
-0.097
-0.134
-0.058
0.033
-0.052
0.063
0.088
-0.111
-0.057
-0.126
-0.522
0.602
0.384
-0.536
-0.050
0.419
-0.110
-0.096
-0.097
-0.009
-0.012
0.128
-0.012
-0.053
0.072
-0.161
-0.026
-0.064
-0.037
0.224
-0.078
-0.135
-0.155
-0.402
-0.197
0.700
0.160
-0.591
0.022
0.228
0.098
-0.193
-0.096
-0.049
-0.022
-0.074
0.058
0.024
0.055
0.060
0.110
-0.118
-0.093
-0.167
0.009
0.024
-0.093
-0.126
0.065
0.017
0.063
0.132
-0.007
-0.159
-0.066
-0.072
-0.138
0.238
-0.179
0.003
0.150
-0.214
0.126
0.267
0.070
-0.152
-0.207
-0.139
-0.130
0.127
-0.015
0.063
-0.133
-0.068
0.010
0.133
0.010
-0.131
-0.140
-0.072
0.057
-0.055
-0.064
-0.111
0.084
-0.042
0.047
-0.116
-0.089
-0.212
-0.202
0.753
0.008
-0.325
-0.287
-0.114
0.243
-0.109
0.101
0.298
-0.204
0.040
0.057
-0.063
-0.093
-0.080
-0.015
-0.112
0.262
0.112
0.079
-0.294
-0.145
0.014
0.041
0.076
0.007
-0.034
0.027
-0.185
0.004
0.141
-0.028
-0.198
-0.255
-0.118
0.118
0.065
0.109
0.098
-0.310
-0.358
0.111
0.018
-0.004
-0.028
0.057
-0.035
0.119
-0.068
-0.006
-0.058
-0.135
-0.037
0.047
-0.007
-0.172
-0.121
0.332
0.183
-0.168
-0.186
-0.077
0.051
0.023
-0.006
0.154
-0.085
-0.057
-0.116
-0.131
-0.095
0.076
0.004
0.017
-0.055
-0.038
-0.154
0.049
0.072
-0.078
-0.120
-0.060
-0.038
-0.178
0.109
0.329
-0.149
-0.117
0.220
-0.325
-0.062
0.272
-0.141
-0.045
0.050
-0.208
0.084
-0.009
-0.082
-0.069
0.053
0.053
-0.064
-0.059
-0.012
-0.099
0.055
-0.055
-0.053
-0.059
-0.085
-0.063
0.269
0.090
-0.143
-0.170
-0.061
-0.037
0.024
0.010
0.157
-0.059
0.031
0.016
-0.199
-0.042
-0.078
0.066
0.105
-0.120
-0.175
0.030
-0.022
0.053
-0.021
-0.165
0.015
0.168
0.073
0.026
-0.110
-0.433
0.305
0.334
-0.417
-0.037
0.675
-0.194
-0.179
0.290
-0.258
-0.210
-0.095
-0.017
0.093
0.131
0.202
-0.024
-0.235
-0.103
0.082
-0.031
-0.035
-0.127
-0.228
0.006
-0.121
0.177
0.070
0.010
-0.140
0.008
-0.011
0.043
-0.108
-0.007
0.014
-0.288
0.313
0.268
-0.162
-0.145
-0.118
-0.029
-0.028
-0.093
0.119
0.022
0.049
0.023
-0.149
-0.013
-0.004
-0.027
0.139
-0.027
-0.125
-0.188
-0.313
0.312
0.269
0.049
-0.175
0.001
-0.119
0.015
-0.055
-0.110
-0.078
0.029
-0.182
0.124
0.098
-0.081
0.013
0.019
-0.056
-0.145
-0.048
-0.129
0.054
-0.189
0.228
0.294
-0.137
-0.396
-0.013
0.358
-0.016
-0.048
-0.195
-0.093
-0.008
0.039
0.100
-0.021
-0.067
-0.080
-0.004
-0.066
0.012
-0.048
0.017
0.032
-0.151
0.068
-0.057
0.025
0.202
-0.149
-0.358
-0.295
0.083
-0.201
0.750
0.103
-0.245
-0.142
-0.146
0.052
0.075
-0.016
0.010
0.023
0.002
-0.110
0.014
0.214
-0.063
-0.230
0.268
0.044
-0.183
-0.092
-0.091
0.002
-0.054
0.096
-0.066
-0.113
0.047
0.065
0.049
-0.007
-0.125
-0.076
0.009
-0.149
-0.170
0.222
0.030
-0.031
-0.095
-0.032
-0.070
0.097
0.075
0.007
-0.557
0.740
0.114
-0.566
0.446
0.181
-0.241
-0.115
-0.086
-0.138
0.022
0.095
0.257
0.124
-0.221
-0.252
-0.081
-0.000
-0.102
-0.011
0.056
0.035
-0.061
-0.086
-0.007
0.101
-0.126
-0.180
0.014
-0.192
-0.218
0.164
0.581
-0.276
-0.411
-0.249
0.223
0.344
-0.005
-0.146
-0.257
0.130
0.129
-0.087
-0.196
-0.037
0.189
0.072
-0.128
0.003
-0.047
0.016
-0.060
-0.176
0.012
0.066
-0.005
-0.032
0.084
-0.124
-0.132
-0.248
-0.106
0.438
0.009
-0.052
0.048
-0.385
-0.082
0.137
-0.040
0.037
-0.096
-0.173
0.166
0.142
0.097
-0.123
-0.244
-0.165
-0.061
0.262
0.096
-0.154
-0.179
-0.083
0.151
0.055
-0.348
-0.045
-0.043
-0.053
-0.057
0.165
-0.167
0.072
0.043
-0.077
-0.011
-0.221
0.068
0.339
-0.056
-0.070
-0.055
0.037
-0.029
0.028
0.087
0.007
0.056
-0.146
-0.327
0.194
0.121
0.033
-0.220
-0.253
-0.324
0.443
0.227
-0.349
0.337
-0.227
-0.241
-0.134
0.173
0.071
-0.187
0.451
-0.283
-0.399
0.148
0.177
-0.092
-0.060
0.084
-0.052
-0.153
-0.100
-0.177
0.052
0.327
-0.021
-0.084
0.046
-0.288
-0.122
0.094
0.053
0.336
0.080
-0.170
-0.356
0.162
-0.011
0.098
-0.104
-0.195
-0.169
-0.008
-0.081
-0.153
0.281
-0.004
-0.004
-0.127
-0.122
-0.025
0.003
0.012
-0.076
0.065
-0.017
-0.020
-0.163
0.136
0.151
-0.192
-0.157
0.133
0.142
-0.048
0.012
-0.045
-0.171
0.023
-0.131
0.025
0.176
0.006
-0.085
-0.098
-0.222
0.127
0.040
0.001
-0.102
0.070
0.003
-0.086
-0.061
0.102
-0.021
-0.151
0.040
-0.183
-0.050
0.239
0.081
-0.223
-0.366
-0.006
0.411
-0.029
-0.168
-0.027
-0.051
0.031
-0.102
-0.467
0.461
0.645
-0.210
-0.551
-0.097
0.138
0.120
0.042
-0.098
-0.143
-0.054
-0.049
0.181
0.092
-0.041
-0.148
0.026
-0.061
-0.219
-0.167
-0.060
0.172
0.004
-0.006
-0.002
-0.034
0.023
-0.051
-0.138
-0.173
-0.023
0.205
0.157
-0.034
-0.161
-0.049
0.101
-0.116
-0.018
-0.110
0.207
0.182
-0.147
-0.129
-0.101
-0.056
-0.087
0.060
-0.003
-0.063
-0.044
0.013
-0.045
-0.406
0.031
0.555
-0.128
-0.551
0.468
-0.197
-0.217
-0.030
0.225
-0.044
-0.052
-0.263
-0.034
0.390
-0.106
-0.113
0.042
-0.041
-0.206
-0.200
-0.298
-0.057
0.359
0.030
0.172
-0.036
0.003
-0.300
0.126
-0.068
0.043
0.226
-0.025
-0.049
-0.213
0.167
0.085
-0.121
-0.059
0.038
-0.099
-0.117
-0.037
-0.159
-0.088
-0.029
-0.038
0.075
0.064
0.097
-0.063
-0.093
-0.058
0.290
-0.102
-0.199
-0.068
-0.041
0.127
-0.031
-0.006
-0.050
-0.031
0.064
-0.056
-0.074
-0.090
0.151
-0.186
-0.199
0.023
0.025
0.006
-0.011
-0.058
-0.141
-0.081
0.095
-0.157
-0.030
0.376
-0.156
-0.107
-0.012
-0.074
0.056
-0.145
-0.521
0.147
0.639
0.123
-0.273
-0.192
0.020
0.035
0.084
-0.016
-0.191
-0.050
0.283
-0.059
-0.308
-0.167
-0.202
0.621
-0.073
-0.310
-0.008
-0.225
0.139
-0.147
-0.183
0.624
0.007
-0.200
-0.252
-0.096
0.039
0.052
-0.187
-0.155
0.288
0.267
-0.298
-0.333
-0.025
0.008
0.083
0.141
-0.275
-0.209
0.028
0.011
0.060
0.187
0.096
-0.156
-0.096
-0.056
-0.050
0.011
-0.063
0.026
0.169
-0.066
-0.065
0.035
-0.175
-0.065
-0.118
0.018
0.080
-0.113
-0.067
-0.249
0.095
0.282
0.047
-0.404
-0.101
0.198
-0.283
0.238
0.076
0.076
0.018
0.007
0.068
-0.092
-0.148
-0.089
0.137
0.051
0.079
0.039
-0.085
-0.086
0.013
-0.038
-0.115
-0.116
-0.136
-0.074
-0.045
-0.114
0.042
0.012
-0.197
-0.019
0.154
0.088
-0.045
-0.113
-0.407
0.148
0.697
-0.104
-0.432
-0.091
0.194
0.190
-0.144
-0.163
0.015
-0.080
-0.105
0.113
0.166
-0.005
0.097
-0.103
-0.090
-0.291
-0.252
0.177
0.227
0.064
-0.057
-0.085
-0.218
0.064
-0.010
0.014
-0.115
-0.038
-0.035
-0.002
0.028
-0.077
0.138
-0.143
0.033
0.184
-0.130
-0.016
-0.167
0.056
0.266
0.008
-0.257
-0.224
0.108
0.159
-0.105
0.013
-0.068
-0.133
-0.128
0.014
0.103
-0.080
-0.081
-0.029
-0.126
-0.047
0.603
0.070
-0.161
-0.203
-0.047
0.010
-0.069
-0.244
0.021
0.351
-0.148
-0.803
1.047
0.115
-0.308
-0.784
0.312
0.328
0.172
-0.051
0.015
-0.150
-0.212
-0.042
0.230
0.101
0.027
-0.006
-0.128
-0.329
-0.185
0.294
0.103
0.086
-0.020
-0.147
-0.095
0.218
-0.113
-0.118
-0.198
0.057
0.178
-0.033
0.082
0.230
-0.073
-0.314
-0.123
0.071
-0.182
0.176
0.055
-0.138
-0.118
-0.032
0.147
0.080
-0.049
0.028
-0.079
-0.084
-0.018
0.003
0.124
0.085
-0.115
-0.014
0.038
-0.049
-0.108
-0.133
0.092
0.076
-0.127
-0.042
0.003
-0.041
-0.002
-0.041
-0.104
-0.224
-0.210
0.428
0.048
-0.095
-0.055
-0.222
0.108
-0.189
-0.105
0.242
0.229
-0.111
-0.141
-0.114
0.111
0.004
-0.063
0.092
-0.157
0.169
0.013
-0.151
-0.064
-0.107
-0.212
0.144
0.269
0.175
-0.217
-0.255
-0.119
0.058
-0.041
-0.009
0.088
0.063
-0.106
-0.040
-0.086
-0.107
-0.007
-0.002
0.087
0.007
0.020
-0.013
-0.075
-0.055
0.015
-0.023
-0.121
-0.099
0.234
-0.069
-0.205
-0.308
0.369
0.409
-0.247
-0.720
0.520
0.168
-0.144
-0.368
0.336
0.398
-0.273
-0.081
0.049
-0.195
-0.026
0.024
-0.081
-0.350
0.339
0.316
-0.247
-0.433
0.002
0.196
0.124
-0.113
-0.192
-0.039
0.019
-0.049
0.177
0.049
-0.026
-0.139
-0.051
-0.125
-0.020
0.084
0.082
-0.079
-0.044
-0.104
-0.083
0.076
-0.077
-0.125
0.169
0.036
-0.149
-0.079
0.122
0.047
0.029
0.006
-0.048
-0.228
-0.057
0.276
0.035
-0.226
0.094
-0.107
-0.279
0.025
-0.080
-0.028
-0.034
-0.162
-0.089
0.086
0.084
0.176
-0.074
-0.130
-0.177
-0.068
0.022
0.022
0.200
0.060
-0.041
-0.051
-0.155
-0.071
0.033
-0.059
-0.394
0.195
0.270
0.040
0.037
-0.093
-0.147
-0.098
-0.004
0.077
-0.029
-0.024
-0.080
-0.010
0.051
-0.002
0.038
-0.189
-0.154
-0.344
0.421
0.167
-0.137
-0.149
0.014
-0.037
-0.067
0.005
-0.013
-0.088
0.043
0.068
0.081
-0.169
-0.137
0.097
0.314
-0.207
-0.401
0.084
0.095
0.125
0.068
-0.286
-0.023
0.314
-0.051
-0.190
-0.176
0.190
-0.077
-0.179
-0.128
0.305
0.012
-0.074
-0.054
0.085
-0.058
-0.219
-0.053
0.064
0.041
-0.003
-0.079
-0.192
0.152
0.167
-0.037
-0.169
0.013
-0.389
0.671
-0.029
-0.641
-0.209
0.802
0.042
-0.314
-0.080
0.009
-0.087
-0.117
-0.215
0.005
0.614
0.037
-0.278
-0.262
-0.305
0.019
0.013
0.128
-0.036
-0.063
0.024
-0.025
-0.167
0.039
0.060
0.299
-0.054
-0.156
-0.131
-0.173
-0.068
0.242
-0.003
-0.145
0.160
0.037
-0.047
-0.205
-0.114
0.032
-0.020
-0.244
0.213
0.126
-0.039
-0.448
-0.002
0.427
0.012
-0.085
-0.207
-0.119
0.276
0.070
-0.071
0.128
-0.035
-0.322
-0.130
0.125
0.144
0.079
-0.088
-0.100
-0.156
0.043
-0.218
-0.242
0.263
0.123
-0.218
0.219
0.230
-0.280
-0.204
-0.178
-0.057
0.068
0.008
0.034
0.157
0.038
0.019
-0.111
-0.185
-0.185
0.116
0.024
0.007
0.064
-0.245
0.237
0.104
-0.208
-0.096
-0.033
0.141
-0.240
-0.141
0.372
0.207
-0.092
-0.221
-0.086
-0.012
0.048
0.080
-0.043
0.211
-0.210
-0.012
-0.230
-0.296
-0.065
0.377
0.176
-0.315
0.157
0.172
-0.383
-0.180
-0.045
0.370
-0.079
-0.061
0.043
-0.031
-0.156
0.021
-0.009
-0.041
-0.002
0.089
-0.330
-0.172
0.389
0.118
-0.205
-0.279
0.055
-0.034
-0.063
-0.288
0.050
0.129
0.214
-0.333
-0.487
0.774
-0.102
-0.520
0.464
0.028
-0.205
-0.076
-0.041
-0.007
-0.158
0.070
0.284
-0.133
-0.123
-0.102
-0.074
0.018
0.039
-0.060
-0.066
0.027
-0.013
-0.313
0.164
0.546
0.065
-0.207
-0.234
-0.066
0.006
0.057
-0.099
-0.025
0.044
0.120
0.272
-0.246
-0.364
-0.063
-0.215
-0.175
0.074
0.114
0.004
-0.085
-0.132
0.203
0.038
-0.028
-0.280
-0.059
0.241
-0.050
-0.264
-0.087
0.020
0.027
-0.018
0.288
-0.025
-0.260
-0.218
0.126
0.030
-0.089
0.098
-0.206
-0.033
0.503
-0.025
-0.169
-0.169
0.001
-0.161
0.179
0.116
-0.038
-0.130
-0.343
0.241
0.404
-0.094
-0.180
0.031
-0.082
-0.102
0.001
-0.045
0.017
-0.142
-0.041
0.285
0.198
-0.093
-0.363
-0.206
-0.281
-0.019
0.344
0.212
-0.092
-0.219
-0.198
-0.131
0.007
-0.015
0.070
-0.044
0.020
-0.019
-0.083
0.033
-0.103
0.063
-0.407
-0.126
0.413
0.123
-0.151
-0.133
0.036
-0.080
0.057
0.003
-0.089
0.310
-0.030
-0.207
-0.080
-0.014
0.017
-0.101
-0.013
0.051
-0.043
-0.058
-0.281
0.323
0.253
-0.182
-0.364
0.194
0.138
-0.050
-0.018
-0.157
-0.233
0.097
0.164
-0.081
-0.049
-0.077
-0.234
-0.539
0.551
0.661
-0.205
-0.432
-0.189
0.083
-0.024
0.028
0.187
-0.028
-0.077
-0.030
-0.141
0.011
-0.187
-0.137
0.101
-0.071
0.320
0.120
-0.368
-0.250
0.133
-0.032
-0.093
0.238
0.096
0.076
-0.060
-0.026
-0.071
-0.061
-0.076
-0.433
0.539
0.201
-0.432
-0.364
0.513
0.362
-0.345
-0.164
0.145
0.079
-0.065
-0.050
-0.188
0.033
-0.024
-0.178
0.146
0.214
0.015
-0.407
-0.003
0.219
-0.540
0.138
0.458
-0.168
-0.392
-0.158
0.501
-0.005
-0.228
0.222
0.109
-0.054
-0.077
-0.203
-0.150
-0.067
-0.138
0.371
-0.014
-0.079
-0.002
-0.270
-0.022
0.029
-0.107
-0.169
0.172
0.442
-0.031
-0.202
-0.174
-0.190
0.033
0.152
-0.214
-0.154
0.049
0.282
0.090
-0.229
-0.104
-0.024
-0.170
-0.027
0.087
-0.152
0.133
-0.041
0.144
0.117
-0.199
-0.136
-0.089
-0.064
0.092
0.075
0.025
-0.103
-0.056
-0.096
-0.079
0.236
0.115
-0.133
0.075
-0.107
-0.258
-0.215
0.056
0.103
0.035
0.058
-0.147
-0.086
-0.062
-0.048
0.009
-0.116
-0.115
-0.105
-0.052
0.135
0.049
-0.043
0.025
-0.019
-0.111
-0.039
0.102
0.123
0.106
-0.341
0.227
0.221
0.016
-0.171
-0.225
-0.344
0.339
0.233
-0.233
-0.073
-0.218
-0.144
0.454
0.011
-0.181
-0.219
-0.091
0.008
-0.002
-0.000
0.044
0.018
-0.076
-0.052
-0.124
-0.479
0.473
0.483
-0.095
-0.366
-0.297
-0.254
0.140
0.124
0.046
0.217
0.074
-0.094
-0.100
-0.110
-0.074
0.055
-0.122
-0.113
-0.023
0.113
0.078
0.014
-0.141
0.154
0.030
0.017
-0.095
-0.238
-0.275
0.309
0.099
0.086
0.027
-0.289
-0.157
0.058
0.122
-0.084
-0.048
-0.245
0.207
-0.062
-0.121
0.060
0.107
-0.090
-0.114
-0.166
-0.013
0.106
0.036
-0.057
-0.362
0.105
0.208
0.192
-0.137
-0.203
-0.165
0.280
-0.265
-0.165
0.462
0.218
-0.227
-0.267
-0.132
-0.039
0.050
-0.120
0.283
0.043
-0.092
-0.099
-0.035
0.091
-0.056
-0.127
-0.006
0.001
0.010
-0.057
-0.090
0.049
0.241
0.033
-0.124
-0.276
-0.015
0.134
0.000
-0.145
0.020
0.072
-0.050
-0.164
-0.115
-0.013
-0.045
0.025
0.064
-0.112
0.081
0.113
-0.236
-0.008
-0.001
-0.131
0.172
0.126
-0.111
0.032
-0.357
0.021
0.441
-0.186
-0.119
-0.108
-0.025
0.027
-0.112
0.187
0.069
-0.156
-0.269
-0.234
0.051
0.475
-0.073
-0.136
-0.511
0.113
0.572
-0.190
-0.254
-0.018
-0.379
0.337
0.179
-0.008
-0.193
-0.017
-0.011
0.009
-0.169
-0.120
0.051
-0.007
-0.085
0.127
-0.045
-0.032
-0.042
-0.297
0.027
0.570
0.084
-0.345
-0.051
-0.287
-0.375
0.315
0.504
0.015
-0.458
0.206
0.065
-0.305
0.014
0.137
0.040
-0.093
-0.080
-0.089
0.030
0.004
0.013
-0.025
-0.136
-0.067
-0.069
-0.222
-0.002
0.437
0.011
-0.105
-0.166
-0.147
-0.035
-0.020
0.083
0.171
-0.391
0.182
0.277
0.064
-0.088
-0.316
0.187
-0.015
-0.042
0.191
-0.040
-0.016
-0.294
-0.031
0.186
-0.083
0.172
-0.210
-0.360
0.350
-0.255
0.171
0.424
-0.367
-0.777
0.601
0.132
-0.038
-0.009
-0.218
0.164
0.144
0.102
-0.102
-0.063
-0.115
-0.137
-0.038
-0.117
-0.108
0.213
0.156
-0.019
-0.142
-0.158
-0.084
0.050
0.098
0.074
-0.271
0.051
-0.081
-0.218
0.338
0.132
-0.214
-0.179
0.078
-0.037
-0.269
0.104
0.258
0.045
-0.161
-0.255
0.489
0.021
-0.296
-0.024
0.033
0.088
-0.034
-0.084
-0.103
0.090
0.077
0.129
-0.181
-0.198
0.258
-0.047
-0.204
-0.034
-0.059
-0.094
-0.026
0.014
-0.283
0.216
0.208
-0.090
-0.055
-0.176
-0.110
-0.012
0.001
-0.052
0.121
0.000
-0.009
-0.134
-0.016
0.134
0.034
-0.032
-0.401
0.119
0.434
-0.018
-0.340
-0.097
0.143
0.084
-0.064
-0.021
0.063
0.051
-0.092
-0.122
0.032
0.166
0.270
0.008
-0.328
-0.278
-0.115
0.009
0.050
0.041
-0.220
0.211
0.177
-0.060
-0.158
-0.228
-0.062
0.116
0.074
-0.001
-0.180
-0.095
-0.089
0.153
0.467
0.014
-0.163
-0.209
-0.413
0.303
0.323
-0.111
-0.311
-0.113
0.047
0.089
0.094
-0.075
-0.194
-0.019
-0.043
-0.054
0.028
-0.204
0.287
-0.270
-0.031
0.357
-0.141
0.051
-0.178
0.087
0.086
0.023
0.010
-0.029
-0.060
-0.137
-0.046
0.143
-0.066
-0.136
-0.055
0.162
0.020
-0.173
-0.341
-0.244
0.590
0.159
-0.192
-0.144
0.025
-0.013
0.087
-0.092
-0.020
-0.100
0.125
0.126
-0.008
-0.488
-0.260
0.411
0.156
-0.156
-0.006
0.025
-0.102
-0.159
-0.065
-0.045
-0.070
0.167
0.076
0.024
-0.155
-0.235
-0.096
0.058
0.216
-0.122
0.531
-0.121
-0.327
-0.181
-0.110
0.091
0.299
-0.108
-0.043
-0.098
-0.175
-0.057
0.018
0.302
-0.039
-0.347
-0.112
-0.083
0.042
0.029
0.098
0.020
0.025
-0.007
-0.083
0.016
-0.103
-0.110
0.330
-0.150
-0.346
-0.114
0.230
-0.015
0.197
-0.359
-0.363
0.456
0.356
-0.220
-0.389
-0.029
0.019
-0.014
0.200
0.130
-0.118
-0.265
0.016
-0.034
-0.135
0.023
0.125
-0.045
-0.083
-0.047
-0.081
-0.007
-0.102
-0.213
0.380
0.165
0.027
-0.139
-0.231
-0.218
0.126
0.083
-0.043
-0.049
0.203
0.066
-0.306
-0.000
0.157
0.173
-0.150
-0.003
-0.030
-0.222
-0.051
0.022
0.050
0.080
-0.221
0.063
0.331
-0.087
-0.538
0.227
0.088
-0.165
-0.093
0.019
-0.054
0.097
-0.125
-0.075
0.103
0.074
-0.084
-0.506
0.183
0.591
-0.002
-0.232
-0.178
-0.318
0.069
0.249
-0.127
0.344
0.148
-0.214
-0.260
-0.144
-0.031
0.049
0.214
-0.058
-0.177
-0.054
-0.017
0.077
-0.127
-0.013
-0.114
-0.015
0.151
-0.141
0.014
-0.026
-0.011
0.095
-0.148
-0.052
0.132
-0.304
-0.001
0.109
-0.040
0.073
0.041
-0.179
-0.082
-0.259
-0.135
0.299
0.005
0.345
-0.371
-0.084
0.063
-0.148
0.003
0.159
-0.055
-0.113
-0.222
-0.178
-0.098
0.155
0.119
0.039
-0.072
0.033
0.029
-0.315
-0.077
-0.027
-0.048
-0.090
-0.494
0.782
0.118
-0.157
0.168
0.192
-0.488
-0.280
-0.181
0.121
0.296
0.020
-0.220
-0.225
0.057
0.103
0.071
0.032
-0.163
0.043
0.137
-0.157
-0.223
0.008
-0.100
0.068
0.323
-0.107
-0.030
-0.084
0.076
-0.094
-0.207
-0.306
0.092
0.598
-0.463
-0.568
0.563
0.672
-0.260
-0.344
-0.097
-0.199
-0.023
0.129
0.115
-0.036
0.060
0.084
-0.123
-0.082
-0.040
-0.261
-0.182
0.062
0.199
0.283
0.052
-0.171
-0.345
-0.153
0.378
0.300
-0.131
-0.029
-0.022
-0.187
-0.029
0.310
-0.153
-0.169
0.046
0.160
-0.039
-0.144
-0.067
-0.082
0.120
0.001
-0.060
0.007
0.014
0.048
-0.041
-0.199
0.177
0.089
-0.207
-0.176
0.081
-0.130
-0.210
0.445
0.182
-0.106
-0.070
-0.300
0.047
0.296
0.032
-0.215
-0.328
0.375
0.334
-0.022
-0.368
-0.167
-0.128
0.098
0.428
0.033
-0.154
-0.130
-0.164
-0.152
0.111
0.248
0.066
-0.149
0.028
-0.311
-0.192
0.272
0.305
-0.154
-0.080
-0.095
-0.066
-0.041
0.003
-0.101
-0.112
0.062
0.276
-0.054
-0.397
-0.396
0.338
0.700
-0.455
-0.492
0.306
0.153
-0.176
-0.105
-0.025
0.150
0.103
-0.047
-0.061
-0.248
0.258
0.333
-0.189
-0.152
-0.150
-0.219
-0.048
0.201
0.057
-0.053
-0.114
-0.057
0.002
0.100
-0.042
-0.742
-0.061
0.667
0.368
-0.119
-0.363
-0.355
-0.093
0.261
0.160
-0.134
-0.133
-0.029
0.003
0.006
-0.097
-0.144
-0.222
-0.068
0.409
0.257
-0.463
-0.079
0.045
-0.166
-0.127
0.026
0.150
0.158
-0.089
-0.126
-0.262
0.245
-0.073
-0.190
0.422
0.481
-0.340
-0.792
0.534
0.068
-0.164
-0.069
-0.086
0.037
-0.037
-0.039
0.119
0.073
-0.037
-0.226
-0.270
-0.022
0.055
0.101
0.032
-0.086
-0.024
-0.188
0.059
0.140
-0.075
0.023
-0.055
-0.360
0.328
0.215
-0.221
-0.079
0.109
-0.071
-0.218
-0.106
0.118
0.018
-0.046
-0.221
0.135
0.130
0.104
-0.266
0.090
-0.022
-0.260
-0.020
0.360
0.058
-0.152
-0.217
0.059
0.202
-0.111
-0.080
-0.102
-0.116
-0.067
0.131
0.086
-0.172
0.010
0.098
-0.109
0.056
-0.070
-0.019
-0.119
-0.107
0.419
0.178
-0.131
-0.258
-0.194
-0.170
0.053
-0.297
0.055
0.385
-0.082
-0.204
-0.293
0.034
0.036
-0.035
0.010
-0.090
0.051
-0.134
-0.082
0.104
0.109
0.024
-0.247
-0.433
0.037
1.022
-0.077
-0.627
-0.472
0.619
0.077
-0.101
-0.144
-0.263
0.051
0.076
0.375
-0.317
-0.234
0.049
0.157
-0.399
-0.192
0.432
-0.041
-0.085
0.162
0.242
-0.198
-0.212
-0.285
-0.171
0.043
0.445
0.277
-0.068
-0.394
-0.221
0.125
0.026
-0.061
0.046
-0.056
-0.045
-0.044
-0.634
0.354
0.962
-0.196
-0.272
-0.150
-0.133
-0.091
-0.281
0.267
0.303
-0.011
-0.119
0.001
-0.222
-0.144
0.276
0.125
-0.096
-0.064
-0.397
-0.073
0.330
0.240
0.018
-0.008
-0.106
-0.269
-0.068
0.091
0.090
0.003
-0.087
0.179
0.326
-0.408
-0.058
-0.059
0.107
0.002
-0.143
-0.024
0.012
-0.124
0.115
0.222
0.021
-0.045
-0.236
-0.285
0.421
0.181
-0.080
-0.166
0.018
-0.147
-0.045
-0.035
-0.168
-0.537
0.671
0.475
-0.231
-0.356
0.081
0.074
-0.018
-0.213
-0.196
-0.032
0.219
0.037
0.014
0.038
-0.055
-0.306
-0.053
0.264
0.104
-0.324
0.212
0.021
-0.449
-0.180
0.338
0.258
0.380
0.102
-0.467
-0.283
0.331
0.010
-0.138
-0.067
-0.066
0.079
-0.087
-0.011
-0.017
-0.060
-0.124
-0.157
-0.086
0.025
0.044
-0.035
0.039
0.070
-0.007
0.033
0.005
0.074
-0.252
0.058
-0.236
-0.205
0.415
0.095
-0.256
0.323
0.081
-0.269
-0.131
-0.071
-0.142
0.008
0.091
0.369
-0.279
-0.177
0.323
-0.025
-0.371
-0.128
0.286
0.357
-0.077
-0.411
-0.018
0.368
-0.147
-0.069
-0.170
0.055
0.003
-0.216
-0.111
0.228
0.069
-0.045
-0.037
-0.080
-0.144
-0.107
0.020
0.053
0.027
-0.114
-0.116
-0.057
0.256
-0.083
-0.120
-0.352
-0.025
0.465
0.113
-0.236
-0.093
-0.085
-0.175
-0.026
0.336
-0.355
-0.044
-0.020
0.166
0.003
-0.144
-0.441
0.040
0.736
0.306
-0.394
-0.504
-0.255
0.294
0.125
0.297
-0.136
-0.144
-0.031
-0.108
0.049
-0.139
0.150
-0.132
-0.211
-0.041
0.328
0.070
-0.334
-0.250
0.005
0.225
0.204
-0.042
-0.196
-0.049
0.028
0.090
0.012
-0.081
-0.108
-0.152
-0.204
0.145
0.143
0.018
-0.042
0.081
-0.146
-0.101
0.042
0.125
-0.145
-0.090
0.092
-0.029
-0.041
-0.029
-0.113
-0.045
-0.010
0.089
-0.039
-0.149
-0.296
0.506
0.191
-0.238
-0.256
-0.350
0.165
0.475
0.548
-0.167
-0.276
-0.187
-0.183
-0.093
0.061
-0.072
0.179
0.182
-0.146
-0.184
-0.097
-0.002
0.066
-0.438
-0.035
0.932
-0.206
-0.608
-0.653
0.625
0.660
-0.365
-0.451
0.166
0.323
-0.081
-0.466
-0.238
0.103
0.489
0.034
-0.078
-0.109
-0.211
-0.135
-0.058
-0.116
-0.016
-0.302
0.324
0.400
-0.119
-0.221
-0.277
-0.132
0.003
0.089
-0.014
0.052
0.028
-0.060
0.023
0.066
-0.121
-0.001
-0.340
-0.206
0.273
0.351
0.048
-0.235
-0.213
-0.230
-0.245
0.409
-0.109
0.251
0.152
-0.108
-0.208
-0.450
0.421
0.409
-0.247
-0.355
-0.084
0.113
-0.015
0.066
0.060
-0.121
-0.186
-0.118
-0.001
-0.115
0.055
-0.181
0.062
0.227
-0.057
-0.310
0.088
0.045
-0.119
-0.325
0.341
0.206
-0.113
-0.261
0.087
0.311
0.046
-0.111
-0.052
-0.108
-0.145
0.183
-0.043
-0.123
-0.020
0.142
0.164
-0.148
-0.183
-0.021
0.105
0.177
-0.296
-0.167
0.194
-0.064
-0.016
0.093
-0.153
-0.137
0.011
0.040
-0.014
-0.158
-0.478
-0.143
0.955
-0.037
-0.568
-0.141
0.482
-0.217
-0.380
-0.107
0.541
0.158
-0.197
-0.398
0.014
0.097
0.539
-0.031
-0.049
-0.056
-0.169
-0.198
-0.248
0.223
0.358
-0.155
-0.201
0.244
0.274
-0.244
-0.228
-0.262
0.051
0.056
-0.004
0.095
0.096
-0.228
-0.209
-0.015
0.044
-0.000
-0.150
-0.090
0.146
0.142
-0.105
-0.438
-0.142
0.301
0.119
0.242
-0.135
-0.148
-0.210
-0.166
0.141
0.055
0.229
0.033
-0.154
0.042
0.236
-0.094
-0.228
-0.318
-0.090
0.348
0.289
-0.105
-0.224
0.015
-0.002
-0.342
0.051
0.475
-0.222
-0.115
0.291
-0.162
-0.239
-0.121
-0.067
0.070
0.006
0.166
0.026
-0.103
-0.100
-0.110
-0.009
0.136
0.019
-0.087
0.000
-0.049
-0.060
-0.083
-0.067
-0.120
-0.035
-0.033
-0.193
0.027
0.459
0.037
-0.368
-0.221
0.163
-0.162
-0.029
0.044
0.005
-0.109
-0.064
-0.135
0.452
0.028
-0.159
-0.079
-0.352
-0.011
0.198
-0.070
-0.015
-0.378
0.142
0.482
-0.001
-0.353
0.044
0.024
-0.120
-0.140
-0.077
0.101
-0.121
-0.024
0.199
0.037
0.142
-0.253
-0.139
0.090
-0.210
-0.297
0.293
0.223
-0.181
-0.093
-0.041
-0.048
-0.372
0.049
0.825
-0.353
-0.691
0.194
0.381
-0.080
-0.194
-0.077
0.005
-0.237
0.134
0.339
0.067
-0.158
-0.210
-0.054
-0.142
-0.049
0.244
-0.043
-0.211
-0.113
0.069
0.205
0.165
0.029
-0.102
-0.036
-0.458
0.030
0.501
-0.044
-0.276
-0.157
-0.145
0.192
-0.202
0.313
0.025
-0.078
-0.159
-0.111
0.119
0.262
-0.083
-0.108
0.002
-0.204
0.009
-0.014
-0.018
0.011
0.212
-0.024
-0.693
0.265
0.244
0.087
-0.173
-0.290
0.102
-0.009
0.068
0.061
-0.090
0.004
-0.008
0.112
-0.169
-0.135
-0.006
-0.026
-0.394
-0.026
0.684
-0.300
-0.360
0.171
0.165
-0.099
-0.225
0.007
0.105
0.055
0.084
-0.334
-0.114
0.329
0.263
-0.212
-0.249
-0.061
0.015
0.018
-0.003
-0.101
0.163
0.005
-0.259
0.015
0.005
-0.139
0.427
0.323
-0.353
-0.367
-0.047
-0.053
0.100
0.107
0.006
-0.006
-0.069
-0.022
-0.043
-0.037
-0.109
0.018
0.068
-0.131
-0.062
0.022
-0.051
-0.058
-0.102
0.128
-0.107
-0.228
0.191
0.334
-0.069
-0.211
-0.117
0.005
0.156
-0.121
-0.013
-0.199
0.150
0.292
-0.294
-0.222
0.093
0.085
-0.218
-0.063
0.277
0.026
-0.260
-0.160
-0.051
0.257
-0.092
0.021
0.179
-0.031
-0.221
-0.308
0.045
-0.116
0.157
0.107
-0.214
0.249
0.043
-0.041
-0.231
-0.046
-0.038
0.024
-0.433
0.176
0.581
0.072
-0.332
-0.272
0.019
0.000
-0.256
-0.448
0.448
0.565
-0.076
-0.304
-0.216
0.009
-0.104
-0.098
0.139
0.131
-0.144
-0.043
-0.277
-0.047
0.225
0.019
-0.122
-0.051
-0.189
0.192
0.079
-0.154
-0.003
0.070
-0.018
-0.039
-0.019
-0.104
-0.192
0.129
0.493
0.042
-0.128
-0.298
-0.161
-0.135
0.203
0.017
-0.144
0.095
-0.076
-0.127
0.152
-0.005
-0.072
-0.096
-0.108
-0.028
0.083
0.013
-0.045
-0.029
-0.102
-0.150
0.063
0.112
0.244
0.118
-0.322
-0.274
-0.174
-0.419
0.309
0.917
-0.085
-0.272
-0.451
-0.091
0.195
0.061
0.031
-0.112
-0.117
-0.134
0.067
0.081
0.072
-0.185
-0.003
-0.013
-0.079
-0.073
0.075
0.015
-0.382
0.084
0.297
-0.034
-0.114
-0.212
-0.093
0.390
0.277
-0.238
-0.117
-0.159
0.017
0.000
-0.096
-0.005
0.093
-0.076
0.002
-0.235
0.260
0.163
-0.285
-0.024
-0.042
-0.229
-0.076
0.147
-0.085
0.089
0.311
-0.036
-0.191
-0.060
-0.029
-0.050
-0.043
-0.077
0.004
-0.004
-0.105
-0.220
0.096
0.055
0.208
-0.079
-0.141
-0.008
-0.128
-0.047
0.354
0.007
-0.780
0.840
0.045
-0.557
0.483
0.259
-0.368
-0.107
-0.045
-0.360
0.029
0.592
0.216
-0.367
-0.454
-0.270
0.275
0.397
0.177
-0.313
-0.328
-0.019
-0.108
0.012
0.108
-0.003
-0.079
-0.005
-0.066
0.050
-0.276
0.170
0.217
-0.104
-0.191
-0.197
0.289
0.035
0.054
0.035
-0.030
-0.032
-0.009
-0.191
0.145
-0.024
-0.317
0.290
-0.019
-0.178
0.719
-0.254
-0.638
0.001
0.258
0.048
-0.098
0.070
-0.170
0.082
0.046
-0.127
-0.070
-0.158
0.109
0.148
-0.146
-0.192
0.007
-0.161
0.016
0.101
0.095
0.031
-0.073
-0.222
-0.130
0.087
0.268
0.011
-0.170
-0.216
0.078
0.169
0.283
-0.155
-0.205
-0.247
0.254
0.162
-0.070
-0.068
-0.245
-0.131
0.073
0.046
-0.222
0.016
0.269
0.055
-0.118
-0.188
-0.293
-0.072
0.434
0.285
-0.047
-0.320
-0.179
-0.059
0.190
0.013
-0.199
-0.314
0.693
0.062
-0.186
-0.447
-0.283
0.444
0.086
-0.300
-0.328
0.338
0.396
-0.062
-0.127
-0.087
-0.303
-0.289
0.346
0.166
-0.117
-0.091
0.315
-0.125
-0.608
0.105
0.150
-0.003
-0.087
0.066
0.134
-0.177
-0.117
-0.006
-0.097
-0.137
0.272
-0.018
-0.035
0.038
0.109
-0.241
-0.026
0.133
-0.088
-0.169
-0.241
0.068
0.342
0.134
-0.154
-0.216
-0.196
-0.069
-0.065
0.104
-0.039
0.034
0.395
-0.129
-0.318
-0.144
0.533
-0.005
-0.422
0.051
0.150
0.013
-0.092
-0.113
-0.036
-0.052
0.342
0.147
-0.137
-0.131
-0.233
-0.124
-0.196
-0.071
0.231
0.224
0.098
-0.060
-0.060
-0.183
-0.042
-0.092
0.159
-0.138
0.081
-0.174
-0.205
0.302
0.591
0.080
-0.474
-0.415
-0.196
-0.041
0.169
0.093
0.115
0.069
0.069
-0.115
0.027
-0.131
-0.124
-0.188
0.157
0.103
0.002
-0.249
-0.496
0.386
0.176
0.217
0.469
-0.316
-0.673
0.484
0.145
-0.123
-0.285
-0.120
0.134
0.045
0.053
-0.084
0.037
0.084
0.112
-0.384
-0.137
0.202
-0.151
0.195
-0.313
0.025
-0.214
0.395
0.367
-0.246
-0.425
0.017
0.131
-0.126
0.081
0.020
0.081
0.087
-0.151
-0.068
0.168
-0.076
-0.199
-0.391
0.084
0.446
-0.182
-0.080
0.260
-0.109
-0.121
-0.119
-0.048
-0.073
0.120
0.060
0.020
-0.046
-0.325
0.069
0.391
-0.115
-0.404
0.123
0.212
-0.053
-0.205
-0.111
-0.148
0.290
0.287
-0.128
-0.304
-0.186
0.100
0.158
-0.072
-0.284
0.122
0.195
-0.169
0.190
0.041
-0.252
-0.179
-0.193
-0.038
-0.006
0.589
0.229
-0.440
-0.160
0.112
-0.076
-0.003
0.051
0.046
-0.115
-0.086
-0.072
0.171
0.017
-0.235
0.176
0.104
-0.219
-0.169
-0.182
0.007
0.152
-0.063
0.311
-0.164
-0.190
-0.077
0.068
0.066
0.004
-0.193
-0.164
-0.074
0.217
0.244
-0.019
-0.146
-0.259
-0.137
0.330
0.218
-0.146
-0.168
-0.016
-0.103
0.126
-0.042
-0.087
0.026
0.062
-0.371
0.354
0.188
-0.148
-0.128
-0.180
-0.204
0.129
0.234
-0.227
0.166
-0.045
-0.124
-0.063
-0.040
-0.351
-0.032
0.486
0.120
-0.170
-0.242
0.057
0.050
0.131
-0.207
-0.233
0.492
0.035
-0.315
-0.373
0.042
-0.104
0.335
0.084
-0.149
-0.297
0.117
0.034
-0.126
-0.547
0.338
0.465
0.168
-0.154
-0.194
-0.102
-0.172
-0.056
0.006
0.014
0.007
0.106
-0.120
-0.203
0.042
0.139
-0.178
-0.214
-0.242
0.564
0.068
-0.373
0.170
-0.142
-0.127
0.139
0.271
-0.132
-0.373
0.320
0.156
-0.323
-0.022
0.031
-0.056
-0.062
0.031
-0.087
-0.227
0.282
0.180
-0.392
-0.258
0.258
0.013
0.057
0.003
-0.218
-0.310
0.476
0.007
-0.198
0.275
-0.078
-0.125
-0.149
0.164
0.003
-0.140
0.029
0.030
-0.032
-0.091
-0.209
-0.082
0.119
-0.029
-0.078
-0.054
-0.050
-0.059
-0.098
0.222
0.004
-0.344
-0.043
0.182
0.234
0.144
-0.209
-0.245
0.004
0.220
0.242
-0.238
-0.180
0.105
0.024
0.015
-0.113
-0.180
-0.332
0.276
0.423
0.070
-0.654
0.055
0.346
0.330
-0.341
-0.688
0.165
0.360
-0.118
-0.150
0.165
-0.038
-0.161
-0.105
-0.034
0.083
0.066
-0.194
-0.227
0.014
0.241
0.105
-0.142
-0.030
-0.069
-0.228
0.232
0.306
0.100
-0.169
-0.236
0.016
-0.087
-0.172
0.077
0.176
0.010
-0.028
-0.238
-0.218
-0.273
0.054
0.515
0.454
-0.159
-0.275
-0.501
-0.300
0.486
0.453
-0.192
-0.194
-0.128
-0.024
0.124
0.196
-0.134
-0.141
0.061
-0.138
-0.024
-0.056
-0.322
-0.070
0.377
-0.142
0.069
0.140
-0.091
-0.134
-0.151
-0.038
-0.029
0.078
0.004
-0.210
0.055
0.426
-0.206
-0.317
-0.160
-0.131
0.235
-0.001
-0.182
0.337
-0.083
-0.377
-0.324
0.509
0.265
-0.105
-0.261
-0.192
0.020
0.070
-0.005
-0.008
0.118
0.020
0.013
-0.026
-0.147
-0.205
-0.050
0.195
-0.026
-0.272
0.315
0.066
-0.328
-0.210
0.278
0.048
0.143
-0.145
-0.183
-0.144
-0.123
0.112
-0.001
-0.326
0.458
0.378
-0.214
-0.255
-0.191
-0.123
-0.042
0.012
0.075
-0.034
-0.085
-0.159
0.179
-0.226
0.002
0.571
0.263
-0.311
-0.743
-0.126
0.282
0.332
0.046
-0.096
0.005
0.093
-0.055
-0.119
-0.003
-0.119
0.061
0.019
-0.050
-0.012
-0.135
-0.087
-0.188
0.497
0.238
-0.236
-0.268
-0.178
0.080
0.152
0.005
-0.059
-0.024
-0.054
-0.057
-0.140
-0.162
0.667
0.207
-0.382
-0.545
0.536
0.120
-0.174
-0.212
-0.516
0.128
0.393
0.610
-0.264
-0.308
-0.174
-0.037
-0.267
0.065
0.204
0.140
0.010
-0.045
0.055
-0.356
-0.227
0.294
0.092
-0.136
-0.163
-0.158
-0.042
0.010
0.116
-0.233
-0.028
0.378
-0.131
0.051
-0.084
-0.199
-0.294
0.137
0.168
0.060
0.381
-0.136
-0.268
-0.193
-0.104
0.234
0.059
-0.022
-0.140
-0.119
0.151
0.044
-0.172
-0.024
0.022
-0.041
-0.034
-0.104
-0.026
0.012
-0.083
-0.131
0.184
0.332
-0.211
-0.346
-0.451
0.110
0.339
-0.052
0.023
-0.190
-0.177
0.356
0.056
-0.137
-0.433
0.027
0.224
0.090
-0.048
-0.166
-0.180
0.145
0.026
-0.076
0.175
-0.101
0.005
-0.048
0.036
0.084
-0.071
-0.251
-0.092
0.136
-0.224
0.022
0.198
0.153
-0.188
-0.045
-0.181
0.133
-0.014
-0.050
-0.160
-0.039
0.238
-0.268
-0.246
0.484
0.263
-0.291
-0.206
-0.039
-0.087
0.002
-0.114
0.026
0.357
0.202
-0.084
-0.306
-0.133
0.389
-0.113
-0.015
-0.288
-0.220
0.186
0.029
0.048
0.026
-0.074
-0.085
-0.162
-0.124
-0.073
0.165
0.379
-0.103
-0.195
-0.209
-0.240
0.206
-0.455
0.171
0.692
0.183
-0.435
0.034
0.028
-0.176
-0.358
-0.224
0.170
0.365
-0.004
-0.070
-0.181
-0.170
0.078
-0.196
-0.221
0.279
0.468
-0.183
-0.116
-0.235
-0.165
0.271
-0.010
-0.135
0.245
0.011
0.016
0.013
0.055
-0.058
-0.334
0.293
0.028
-0.320
0.276
0.210
-0.320
-0.073
-0.019
-0.349
-0.000
0.365
0.115
-0.039
-0.125
-0.118
0.023
0.193
-0.086
-0.147
-0.194
-0.183
0.103
0.198
-0.006
-0.060
0.022
0.026
-0.030
-0.022
-0.057
-0.415
-0.073
1.005
0.159
-0.566
-0.416
0.074
0.301
-0.027
-0.095
-0.240
0.140
0.087
-0.061
0.068
-0.018
-0.499
-0.023
0.554
-0.028
-0.334
0.123
-0.190
0.087
-0.059
-0.069
-0.070
0.082
-0.017
-0.059
0.068
-0.021
-0.527
0.268
0.491
-0.129
-0.304
-0.042
0.073
-0.130
-0.056
-0.032
-0.062
0.185
0.040
-0.069
-0.098
-0.064
-0.083
0.031
0.028
-0.417
-0.645
0.902
0.757
-0.720
-0.565
0.381
-0.108
-0.209
-0.057
0.452
0.046
-0.212
-0.007
0.069
-0.081
-0.168
-0.032
-0.062
0.046
0.067
0.033
-0.093
0.171
-0.186
-0.412
0.114
0.444
-0.188
-0.343
-0.041
0.262
0.101
-0.206
-0.202
0.131
0.132
-0.030
-0.093
-0.037
-0.116
0.177
-0.124
0.031
0.189
0.037
-0.074
-0.418
0.136
0.133
-0.088
-0.275
0.329
-0.075
0.104
0.181
-0.199
-0.381
0.214
0.175
-0.183
0.142
-0.078
-0.113
-0.126
-0.011
0.078
0.045
0.090
-0.195
-0.528
0.095
0.647
0.037
-0.339
-0.133
-0.113
-0.001
0.052
-0.051
0.129
0.159
-0.062
-0.084
-0.065
-0.113
-0.196
0.175
0.131
0.084
-0.067
-0.174
-0.227
0.040
0.081
-0.019
0.012
0.011
-0.060
-0.024
0.094
-0.088
-0.046
-0.018
0.259
-0.176
-0.312
-0.106
0.170
0.106
-0.066
-0.058
0.050
0.044
-0.047
0.056
0.015
-0.080
-0.094
0.055
0.025
-0.027
0.000
-0.080
-0.019
-0.173
-0.224
-0.001
0.156
-0.247
0.183
0.545
-0.172
-0.277
-0.266
-0.062
0.025
0.209
-0.036
0.057
0.094
0.143
-0.006
-0.185
-0.120
0.021
0.064
0.012
0.002
-0.200
0.141
0.057
-0.058
0.148
-0.153
-0.209
-0.177
0.103
0.304
0.430
-0.068
-0.507
-0.480
0.150
0.497
0.061
-0.025
-0.175
0.012
0.033
-0.090
-0.039
-0.140
-0.061
0.016
0.134
-0.000
-0.145
-0.128
0.189
0.109
-0.119
-0.455
0.017
0.478
0.273
-0.149
-0.241
-0.134
-0.231
0.261
0.038
-0.131
0.082
0.084
-0.379
-0.180
0.327
0.148
0.007
-0.094
-0.122
-0.026
0.081
-0.005
0.065
0.048
0.080
-0.105
-0.166
-0.133
0.084
0.215
-0.163
-0.133
-0.289
0.133
0.419
-0.015
-0.206
-0.212
-0.061
-0.154
0.202
0.183
-0.127
-0.137
0.067
-0.026
-0.008
-0.047
-0.044
0.013
-0.068
-0.166
-0.312
0.308
0.041
-0.175
0.011
0.175
0.258
-0.482
-0.247
0.336
0.385
-0.323
-0.405
0.209
0.361
-0.146
0.059
-0.033
-0.230
-0.285
-0.123
0.219
-0.071
-0.145
0.049
-0.054
0.048
-0.022
-0.055
-0.232
-0.160
0.521
0.215
-0.209
-0.210
-0.199
0.108
0.121
-0.040
-0.007
-0.018
0.027
-0.213
0.132
-0.048
-0.066
-0.216
-0.596
0.179
1.234
-0.136
-0.520
-0.309
-0.099
-0.012
0.002
-0.006
0.407
0.171
-0.129
-0.155
-0.294
-0.452
0.542
0.293
-0.457
-0.079
0.246
-0.461
-0.049
0.259
0.365
-0.113
-0.047
-0.039
-0.081
-0.151
-0.211
0.094
0.421
-0.021
-0.255
-0.116
-0.027
-0.022
0.169
0.014
-0.140
-0.165
-0.321
0.089
0.324
0.206
-0.434
-0.102
0.380
0.208
-0.525
-0.139
0.449
0.026
-0.136
-0.139
-0.126
-0.245
-0.271
0.267
0.176
0.132
0.083
-0.114
-0.271
-0.060
-0.071
0.151
0.068
-0.029
-0.066
-0.150
0.015
0.205
0.281
-0.151
-0.472
-0.091
0.417
0.006
-0.128
-0.288
-0.088
-0.009
0.003
0.238
-0.005
-0.134
-0.356
0.115
0.232
0.162
-0.089
-0.226
-0.313
-0.142
-0.299
0.191
0.446
0.050
-0.139
0.069
-0.012
-0.086
-0.418
0.062
0.047
-0.157
-0.045
0.325
-0.027
-0.054
-0.220
-0.332
-0.125
0.253
0.204
0.496
-0.331
-0.438
0.067
0.198
-0.026
-0.048
-0.199
0.058
0.307
-0.023
-0.078
-0.164
-0.036
-0.135
-0.050
-0.161
0.094
0.026
0.038
0.031
-0.279
0.191
0.052
-0.330
-0.151
0.047
0.419
-0.065
-0.470
0.064
0.569
-0.241
-0.234
0.241
-0.202
-0.092
-0.019
-0.096
-0.015
-0.066
-0.086
0.207
-0.165
0.059
0.031
-0.072
-0.071
0.146
-0.106
-0.301
0.076
0.168
0.130
-0.140
-0.279
0.213
0.042
-0.289
-0.061
0.639
-0.033
-0.175
-0.166
-0.062
-0.056
-0.360
0.012
0.014
-0.069
0.343
0.433
-0.120
-0.397
-0.163
-0.263
-0.020
0.377
0.047
-0.165
-0.042
0.148
-0.392
-0.148
0.477
-0.062
-0.072
-0.168
-0.059
-0.088
-0.055
0.219
-0.015
-0.206
0.145
-0.023
0.048
-0.046
-0.148
-0.058
-0.048
0.249
-0.112
0.004
-0.017
-0.153
-0.062
0.268
0.301
-0.317
-0.456
-0.374
0.829
0.404
-0.240
-0.271
-0.227
0.037
0.052
-0.317
0.022
0.477
-0.278
-0.429
0.608
0.034
-0.214
-0.229
0.078
-0.086
0.035
-0.036
-0.131
-0.121
0.143
-0.173
0.191
0.345
-0.086
-0.448
-0.048
0.046
0.063
-0.076
0.011
0.084
0.021
-0.081
-0.406
0.089
0.397
0.078
-0.399
-0.083
-0.003
-0.071
-0.031
0.021
-0.082
0.036
0.112
-0.220
0.155
0.167
-0.044
0.120
-0.332
-0.495
0.186
0.524
0.101
0.088
-0.326
-0.298
-0.168
-0.003
0.074
-0.074
0.370
0.023
-0.181
0.019
-0.114
-0.350
-0.008
0.333
-0.019
-0.083
-0.177
-0.115
0.017
0.190
-0.150
-0.148
0.076
-0.047
-0.074
-0.127
-0.125
0.286
-0.024
-0.320
0.115
0.011
-0.169
-0.138
0.096
0.349
0.158
-0.208
-0.130
-0.273
0.005
0.322
0.287
-0.015
-0.212
-0.296
0.074
0.312
0.055
-0.355
-0.234
0.209
-0.014
-0.231
-0.004
-0.096
0.091
0.419
-0.017
-0.439
-0.296
-0.070
0.141
0.335
0.022
-0.082
-0.083
-0.054
-0.100
-0.407
0.208
0.286
-0.136
-0.238
0.022
0.016
-0.327
0.075
0.369
0.054
-0.332
0.030
0.301
-0.116
-0.034
-0.108
-0.190
-0.122
0.134
0.049
0.082
-0.106
-0.286
0.033
0.350
0.066
-0.277
-0.151
0.044
-0.221
-0.148
0.071
0.348
-0.238
-0.147
0.307
-0.092
-0.342
-0.158
0.071
0.174
0.003
0.078
-0.202
-0.473
0.273
0.289
0.212
-0.051
-0.260
-0.228
-0.031
0.150
-0.002
0.021
-0.013
-0.032
-0.063
-0.263
0.081
0.026
0.025
-0.093
-0.238
-0.273
0.373
-0.085
-0.120
0.088
0.455
-0.151
-0.266
-0.250
-0.074
-0.014
-0.070
0.344
-0.011
-0.040
-0.054
-0.180
0.002
0.088
-0.003
-0.122
-0.182
-0.208
-0.158
0.486
-0.330
0.515
0.159
-0.374
-0.308
0.440
-0.172
-0.260
0.039
0.018
-0.101
-0.265
0.490
0.377
-0.155
-0.361
-0.335
-0.185
0.061
0.415
0.093
-0.015
-0.121
-0.265
-0.140
0.009
0.226
-0.078
-0.014
-0.157
-0.006
0.118
0.001
-0.193
-0.052
0.071
-0.022
-0.255
-0.009
0.202
-0.061
-0.415
0.207
0.330
0.040
-0.189
-0.268
-0.089
-0.003
0.184
0.364
-0.116
-0.112
-0.298
-0.182
0.556
0.065
-0.483
0.079
0.218
-0.181
-0.177
-0.012
-0.049
-0.146
-0.124
0.074
0.450
-0.122
-0.239
-0.150
-0.148
0.310
-0.120
-0.112
0.218
0.007
0.074
-0.017
-0.080
-0.471
-0.259
0.590
0.930
-0.453
-0.429
-0.301
-0.191
0.060
0.023
0.311
0.161
-0.264
-0.274
-0.301
0.280
0.185
0.010
-0.019
-0.047
-0.122
-0.262
0.128
0.528
0.062
-0.251
-0.252
-0.055
0.020
0.097
-0.027
-0.315
-0.158
0.475
0.472
-0.124
-0.469
-0.249
0.183
0.152
-0.072
-0.281
-0.068
-0.090
0.490
0.094
0.240
-0.164
-0.253
-0.270
-0.123
0.097
-0.378
0.771
0.318
-0.497
-0.286
0.135
0.029
-0.184
-0.057
-0.026
-0.011
0.580
-0.021
-0.292
-0.150
-0.028
0.154
0.045
-0.233
0.010
-0.101
-0.069
0.297
0.088
-0.200
-0.197
-0.167
-0.117
0.359
0.196
-0.275
-0.287
-0.161
0.400
0.241
-0.091
-0.245
0.047
0.184
0.000
-0.180
-0.277
-0.104
0.171
0.130
0.029
0.085
-0.062
-0.182
-0.132
-0.188
0.067
0.227
0.182
-0.169
-0.428
0.274
0.008
-0.302
-0.034
0.684
0.025
-0.426
-0.109
-0.114
0.067
0.096
-0.081
-0.127
-0.087
0.169
-0.034
-0.100
-0.082
-0.150
-0.353
0.157
0.272
0.189
-0.444
-0.116
0.120
-0.009
0.069
-0.084
-0.135
0.234
-0.169
-0.112
-0.001
0.185
0.288
0.050
-0.325
-0.234
-0.189
-0.053
-0.352
0.614
0.217
-0.208
0.072
-0.146
-0.214
0.043
0.050
-0.136
-0.003
0.230
0.060
-0.154
-0.024
0.034
-0.120
-0.122
-0.003
0.069
-0.044
-0.261
-0.051
-0.037
0.050
0.079
0.141
0.016
-0.264
0.110
-0.134
-0.236
-0.098
0.136
0.241
0.062
-0.035
-0.011
-0.042
-0.125
-0.121
0.082
-0.103
-0.165
0.015
0.191
0.049
-0.094
-0.198
0.173
0.142
-0.152
-0.303
0.161
0.305
-0.153
-0.317
0.351
0.044
-0.056
-0.184
-0.364
0.280
0.204
-0.209
0.134
-0.112
-0.223
-0.063
-0.084
-0.038
-0.030
-0.118
0.222
0.205
-0.053
-0.079
-0.226
-0.011
-0.068
0.072
0.044
0.025
-0.039
-0.207
-0.019
0.357
-0.053
0.032
-0.247
-0.165
0.047
-0.021
-0.050
0.028
-0.085
0.175
0.298
-0.311
-0.226
-0.073
0.195
0.127
-0.014
-0.057
-0.095
-0.090
-0.041
-0.104
-0.039
0.002
-0.114
-0.135
0.114
0.061
0.311
0.075
-0.215
-0.284
-0.366
0.140
0.148
0.499
-0.274
-1.273
1.085
0.794
-0.684
-0.025
0.096
-0.259
-0.403
0.361
0.106
0.163
-0.153
-0.004
0.241
-0.012
-0.088
-0.278
-0.500
0.218
0.640
-0.132
-0.421
-0.336
0.082
0.368
0.050
-0.288
0.038
0.053
-0.104
-0.018
0.010
0.002
-0.027
-0.419
0.437
0.364
-0.257
-0.034
-0.134
0.065
-0.101
-0.153
-0.056
-0.032
0.359
0.115
-0.257
0.212
-0.129
-0.217
0.064
-0.051
0.018
-0.027
-0.017
-0.158
0.026
0.064
0.049
0.011
0.044
-0.041
-0.065
-0.127
0.098
-0.226
0.111
-0.008
-0.081
0.333
-0.103
0.046
-0.156
-0.201
-0.321
0.221
0.076
0.023
0.080
-0.166
-0.094
-0.098
-0.197
0.192
0.124
0.084
-0.204
-0.143
0.019
-0.026
-0.069
0.100
0.103
0.049
0.028
-0.089
-0.200
-0.001
0.203
0.075
-0.241
-0.195
0.183
0.179
-0.083
-0.011
-0.332
-0.433
0.526
0.258
0.120
-0.109
-0.139
-0.380
-0.229
0.243
0.314
0.105
-0.005
-0.230
-0.327
-0.151
0.180
0.146
-0.459
0.067
0.561
-0.082
-0.408
-0.121
-0.154
0.038
0.211
-0.019
-0.013
-0.124
0.165
-0.081
0.035
-0.009
-0.030
-0.157
-0.032
0.180
-0.319
0.356
0.136
-0.206
-0.112
-0.024
-0.015
-0.023
-0.178
-0.241
0.307
-0.036
-0.104
0.475
0.072
-0.370
-0.238
-0.138
-0.047
0.199
0.077
-0.068
-0.003
0.058
-0.015
0.057
-0.099
0.045
-0.208
0.036
0.021
-0.025
-0.118
-0.068
0.013
-0.078
-0.360
0.306
0.324
0.097
-0.219
-0.241
-0.038
-0.221
-0.076
0.361
0.000
-0.137
-0.050
0.033
-0.034
-0.032
-0.080
0.140
0.125
-0.042
-0.440
-0.131
0.040
0.568
0.270
-0.230
-0.338
-0.235
0.075
0.262
-0.115
-0.147
0.214
-0.052
-0.139
-0.118
-0.154
-0.285
0.615
0.294
-0.299
-0.359
-0.082
0.077
0.193
-0.063
-0.100
0.158
-0.040
-0.161
-0.211
0.195
0.259
-0.294
-0.087
-0.074
-0.003
-0.114
-0.167
-0.072
0.299
0.460
-0.238
-0.458
-0.154
0.512
0.201
-0.309
-0.054
-0.064
-0.053
-0.021
0.086
0.272
-0.088
-0.215
-0.103
-0.083
-0.081
0.162
-0.079
-0.218
0.364
0.336
-0.301
-0.141
-0.155
-0.129
-0.077
-0.067
0.087
0.039
-0.025
0.144
-0.101
-0.169
0.108
-0.158
-0.102
-0.213
0.085
-0.218
0.434
0.345
-0.261
-0.191
-0.118
0.062
0.046
-0.149
0.196
0.229
-0.066
-0.156
-0.052
-0.001
-0.025
-0.152
-0.241
0.084
0.291
0.121
-0.142
-0.043
-0.130
-0.080
-0.157
0.137
0.111
0.024
-0.176
-0.107
-0.166
-0.504
1.073
0.165
-0.749
-0.121
0.531
-0.048
-0.456
-0.015
0.187
0.102
-0.025
-0.067
0.062
-0.160
-0.086
0.425
-0.244
-0.340
-0.146
0.027
0.022
-0.063
-0.047
-0.078
0.177
-0.118
0.009
0.071
0.128
0.170
0.076
-0.246
-0.177
-0.270
0.047
0.442
-0.016
-0.124
-0.040
-0.070
-0.029
-0.122
0.012
-0.058
-0.012
-0.001
-0.127
-0.197
0.039
0.226
-0.232
0.168
0.068
-0.087
-0.160
-0.178
0.078
0.199
-0.063
0.001
-0.840
0.176
0.880
0.241
-0.325
-0.423
0.064
-0.007
-0.077
-0.329
-0.101
0.734
0.239
-0.355
-0.318
-0.195
-0.010
0.069
0.067
0.107
0.024
-0.148
-0.155
-0.100
-0.142
0.184
0.250
-0.052
-0.086
-0.226
-0.238
0.240
0.216
-0.393
0.277
0.260
-0.224
-0.185
0.142
0.203
-0.377
-0.136
0.108
0.255
-0.154
-0.258
0.042
0.195
0.041
-0.051
-0.168
-0.178
-0.164
0.153
0.075
0.163
-0.069
0.014
-0.204
-0.083
0.171
-0.155
0.094
-0.068
-0.060
0.153
0.031
-0.474
-0.054
0.397
0.048
-0.195
-0.467
0.400
0.266
-0.268
-0.173
-0.007
0.272
-0.035
-0.204
-0.014
-0.030
0.165
0.160
-0.086
-0.016
-0.065
-0.405
-0.155
0.649
0.166
-0.420
-0.449
-0.280
0.623
0.347
-0.254
-0.402
-0.084
0.143
0.030
-0.063
-0.003
-0.211
0.259
0.207
-0.063
-0.248
-0.034
-0.102
-0.047
0.060
-0.127
0.029
0.301
-0.082
-0.175
-0.300
-0.013
0.231
0.035
-0.153
-0.141
0.063
0.234
0.118
-0.140
-0.210
-0.061
-0.059
0.005
-0.087
0.029
0.064
0.009
-0.080
0.265
-0.146
-0.180
-0.061
-0.082
-0.370
-0.397
1.378
0.300
-1.314
0.307
0.861
-0.296
-0.879
0.145
0.616
0.085
-0.148
-0.005
-0.213
-0.059
0.177
0.037
-0.253
0.030
0.110
-0.094
-0.072
-0.171
-0.271
0.304
0.099
-0.153
-0.171
0.026
0.041
0.065
-0.025
-0.110
-0.359
0.061
0.509
0.150
-0.246
-0.279
-0.129
0.005
0.208
0.092
-0.399
-0.161
0.512
0.018
-0.030
-0.165
-0.279
-0.044
0.082
0.086
0.150
-0.106
0.016
0.007
-0.187
0.260
-0.021
-0.201
-0.139
0.073
0.041
-0.105
0.197
-0.026
-0.182
0.114
0.023
0.027
-0.233
-0.036
-0.076
-0.230
0.221
-0.140
-0.288
0.429
0.343
-0.275
-0.280
-0.209
-0.052
0.171
0.161
0.065
-0.296
-0.153
0.585
-0.088
-0.401
0.090
-0.161
-0.267
0.059
0.353
0.143
-0.358
-0.029
0.201
0.139
-0.294
-0.198
0.101
-0.294
0.230
0.304
0.084
-0.240
-0.228
-0.121
0.136
0.091
-0.025
-0.144
-0.194
-0.270
0.116
0.194
0.574
-0.020
-0.538
-0.080
0.073
0.017
0.098
0.052
-0.178
0.200
0.172
0.112
-0.149
-0.332
-0.173
-0.059
-0.487
-0.096
1.279
0.029
-0.607
0.296
-0.055
-0.425
-0.191
0.296
0.009
-0.064
0.024
0.152
-0.186
-0.309
0.158
0.278
-0.041
-0.327
-0.250
0.189
0.090
-0.195
-0.074
0.122
0.043
-0.168
-0.055
-0.016
-0.044
-0.052
-0.305
-0.142
0.195
0.312
0.121
-0.274
-0.345
-0.099
0.170
0.051
0.116
-0.010
-0.269
0.177
0.192
0.045
-0.186
-0.053
0.120
-0.205
-0.140
-0.085
0.146
-0.047
0.074
-0.021
-0.111
-0.351
0.293
0.133
-0.166
-0.145
-0.118
-0.013
-0.087
0.132
-0.010
-0.085
-0.003
-0.039
-0.178
-0.084
0.296
-0.184
-0.097
0.051
-0.160
0.123
-0.013
-0.033
-0.193
0.081
0.020
-0.080
0.041
-0.106
-0.077
-0.394
0.199
0.429
0.143
-0.255
-0.086
-0.132
-0.155
-0.013
0.113
0.231
-0.032
0.062
-0.039
-0.237
-0.010
0.160
0.058
-0.001
-0.295
-0.245
0.014
0.172
0.048
-0.133
-0.183
0.384
0.333
-0.073
-0.011
-0.159
-0.451
-0.075
0.427
-0.026
-0.027
-0.116
0.011
-0.311
-0.196
0.720
0.141
-0.428
-0.517
-0.106
0.191
0.517
0.018
-0.342
-0.403
-0.002
0.158
0.010
0.248
-0.043
-0.190
-0.091
0.046
-0.009
-0.139
-0.158
0.238
-0.066
0.219
0.111
0.017
-0.137
-0.296
0.018
-0.014
-0.084
-0.011
0.045
-0.097
0.153
-0.052
-0.385
0.026
0.223
0.165
-0.198
-0.272
-0.150
0.163
0.092
0.017
-0.029
-0.066
-0.199
-0.248
0.230
0.187
0.035
-0.014
-0.315
-0.017
-0.101
0.264
0.065
-0.033
-0.109
-0.176
0.061
0.095
0.109
-0.112
-0.380
-0.178
0.230
0.009
0.330
0.154
-0.440
0.002
-0.058
-0.129
-0.081
-0.126
0.112
0.058
-0.037
0.210
0.118
-0.034
-0.340
-0.290
-0.019
0.032
0.046
-0.040
-0.387
0.212
0.378
0.005
0.060
-0.260
-0.213
0.028
-0.129
-0.160
-0.009
0.326
0.421
-0.325
-0.273
-0.221
-0.153
-0.350
0.917
0.279
-0.531
0.188
0.247
-0.181
0.061
-0.355
-0.275
-0.085
0.065
0.460
-0.059
-0.316
-0.368
0.565
0.171
-0.105
-0.286
-0.094
-0.166
-0.067
0.070
-0.057
-0.028
0.008
0.039
-0.234
-0.087
0.083
0.075
-0.217
-0.086
0.144
-0.064
-0.223
-0.145
0.369
0.260
-0.016
-0.381
-0.157
0.302
0.135
-0.076
-0.126
-0.190
-0.162
0.186
0.492
-0.119
-0.074
-0.166
-0.200
-0.403
0.011
0.427
0.108
-0.089
-0.078
-0.172
-0.050
-0.085
-0.012
-0.008
-0.003
0.144
0.070
0.004
-0.062
-0.109
-0.308
-0.199
0.411
0.107
0.009
-0.206
-0.075
0.156
0.021
-0.146
-0.002
-0.144
-0.156
0.083
0.110
0.214
-0.161
0.113
0.126
-0.240
-0.053
0.068
-0.068
0.054
0.153
-0.134
-0.146
-0.299
0.030
0.547
0.022
-0.140
-0.309
-0.146
-0.110
-0.036
0.263
-0.003
0.062
0.079
-0.155
-0.120
0.063
-0.039
-0.167
-0.123
0.123
-0.294
-0.013
0.333
0.294
-0.079
-0.202
-0.327
0.096
-0.305
0.077
0.484
-0.041
-0.024
-0.098
-0.324
-0.022
0.170
0.143
-0.064
-0.164
-0.079
-0.015
0.078
-0.047
-0.043
-0.053
0.118
-0.018
-0.061
-0.106
-0.199
-0.161
0.033
0.178
0.088
0.115
-0.144
-0.160
-0.071
0.127
-0.057
0.029
-0.238
-0.076
0.284
0.392
-0.503
-0.546
0.481
0.346
-0.277
-0.135
0.041
-0.172
-0.141
0.060
0.162
0.133
0.290
-0.090
-0.330
-0.156
-0.093
-0.134
-0.052
0.349
0.095
-0.069
-0.152
-0.194
0.006
0.160
0.103
-0.448
0.195
0.168
-0.047
0.109
-0.081
-0.146
-0.078
-0.068
0.067
-0.196
-0.288
0.723
0.333
-0.259
-0.236
-0.117
-0.152
-0.008
-0.062
-0.202
0.581
0.170
-0.214
-0.095
-0.112
-0.366
0.220
0.045
-0.135
0.486
-0.238
-0.719
0.313
0.287
0.050
-0.061
-0.097
0.025
0.027
-0.070
-0.117
0.139
-0.202
0.014
0.076
-0.014
-0.023
0.166
-0.180
-0.301
-0.364
0.299
-0.030
0.110
0.497
-0.224
-0.463
0.047
0.165
-0.076
-0.024
0.121
-0.082
-0.281
0.088
0.278
-0.236
0.081
-0.174
-0.129
0.101
0.065
-0.193
-0.284
0.039
-0.039
0.195
0.046
-0.179
-0.032
0.148
0.064
-0.183
0.019
-0.001
0.007
-0.297
0.189
0.286
-0.231
-0.154
-0.227
-0.116
0.125
0.315
-0.031
0.123
-0.167
-0.231
-0.102
-0.012
-0.010
-0.060
0.133
0.166
-0.178
-0.197
0.289
-0.046
-0.247
0.101
0.034
-0.161
-0.260
-0.049
0.140
-0.020
0.450
-0.033
-0.155
-0.248
-0.121
-0.022
-0.038
0.030
-0.069
0.055
0.101
-0.337
0.216
0.120
-0.186
-0.329
0.207
0.115
-0.022
-0.259
-0.188
0.304
-0.137
0.223
0.178
-0.184
-0.140
-0.076
-0.020
0.003
0.162
-0.011
-0.106
0.159
-0.048
-0.126
0.079
0.004
-0.113
-0.158
-0.049
0.090
0.198
-0.087
0.007
-0.497
0.347
0.153
0.050
-0.720
0.592
0.045
-0.209
0.028
-0.230
-0.246
-0.092
0.311
0.707
-0.095
-0.359
-0.474
-0.002
0.218
0.052
-0.035
0.204
-0.198
-0.097
-0.049
0.006
0.103
-0.004
-0.017
-0.274
-0.044
0.291
-0.122
0.253
0.085
-0.138
-0.332
-0.039
0.132
0.108
-0.052
-0.316
0.544
0.158
-0.231
-0.499
0.276
0.184
-0.235
-0.228
0.091
0.135
-0.151
0.185
0.192
-0.059
-0.327
-0.478
0.140
0.631
0.123
-0.296
-0.201
-0.310
0.008
0.451
0.033
-0.134
0.128
-0.082
-0.139
-0.086
-0.049
-0.296
0.153
0.433
-0.097
-0.286
-0.205
0.158
0.065
-0.177
0.120
0.195
-0.203
-0.226
-0.070
-0.135
-0.204
0.083
0.527
0.036
0.042
-0.215
-0.234
0.072
0.016
0.004
-0.174
-0.306
0.366
0.562
-0.195
-0.350
-0.210
0.016
0.335
0.098
-0.252
-0.387
-0.024
0.204
0.167
-0.120
-0.058
-0.090
-0.064
-0.045
0.074
-0.050
0.016
-0.297
0.152
0.284
-0.372
-0.355
0.700
0.260
-0.340
-0.290
0.150
-0.158
-0.052
-0.050
-0.036
0.162
0.141
0.027
-0.098
-0.182
-0.352
-0.220
0.180
0.120
0.064
0.252
0.014
0.031
-0.114
-0.119
-0.055
-0.143
-0.135
0.081
0.203
0.172
0.093
-0.246
-0.267
-0.203
-0.442
0.790
0.245
-0.356
-0.381
0.177
0.292
-0.040
-0.040
0.051
-0.217
0.095
0.068
-0.031
0.036
-0.191
-0.055
-0.026
-0.049
0.044
-0.064
-0.069
-0.126
-0.196
0.293
0.151
0.069
-0.174
-0.178
-0.081
-0.190
0.417
0.186
-0.147
-0.161
0.137
0.035
-0.166
-0.320
0.349
0.251
-0.047
0.077
-0.328
-0.049
-0.038
-0.136
0.216
0.288
0.012
-0.084
-0.093
-0.146
-0.069
-0.020
-0.141
0.008
-0.115
0.031
0.058
0.042
0.022
-0.117
-0.071
-0.070
-0.325
0.146
0.541
-0.055
-0.195
0.028
-0.004
-0.276
0.076
0.384
0.063
-0.199
-0.168
0.064
0.250
-0.112
-0.082
-0.015
-0.143
0.023
-0.080
-0.081
-0.135
-0.069
0.394
-0.007
-0.101
-0.050
0.013
0.014
-0.252
0.005
0.338
0.059
-0.118
-0.106
0.185
-0.141
-0.110
-0.089
-0.117
-0.146
0.157
0.447
-0.333
0.001
-0.023
-0.128
0.243
-0.010
-0.156
-0.128
0.067
0.080
0.007
0.045
-0.063
-0.017
-0.079
-0.270
-0.062
0.369
0.118
-0.159
-0.242
-0.128
-0.181
0.360
0.320
-0.279
-0.407
0.062
0.321
-0.042
-0.072
0.021
-0.082
-0.412
0.266
0.261
-0.169
-0.110
0.187
-0.185
-0.005
-0.106
-0.226
0.017
0.315
0.238
-0.073
-0.400
0.057
-0.168
-0.061
0.556
-0.130
-0.015
-0.072
-0.193
0.067
-0.238
-0.178
0.437
0.024
-0.143
0.051
-0.068
0.010
-0.168
-0.004
-0.032
-0.226
0.004
0.242
-0.211
0.496
-0.307
-1.028
0.465
0.622
-0.004
-0.297
-0.306
-0.276
0.228
0.379
0.025
-0.171
-0.223
0.007
-0.057
0.102
-0.061
-0.090
0.039
-0.085
-0.127
0.176
0.207
-0.208
-0.173
-0.167
0.335
-0.042
-0.390
-0.334
0.036
0.977
-0.191
-0.310
0.014
-0.129
-0.256
-0.101
0.237
0.107
-0.054
-0.067
-0.068
-0.157
0.178
0.022
-0.435
0.168
0.473
0.046
-0.401
-0.314
0.015
0.101
-0.048
0.092
0.012
0.095
0.057
-0.059
-0.179
-0.078
0.048
-0.179
0.025
0.030
-0.141
0.072
0.000
0.140
-0.264
-0.296
0.125
0.178
0.153
0.023
-0.327
-0.223
0.136
0.252
-0.012
-0.223
-0.028
0.037
-0.037
-0.044
-0.300
0.134
0.391
-0.102
-0.230
-0.186
0.263
0.056
-0.080
0.003
-0.024
-0.276
0.099
0.343
0.104
-0.209
-0.312
0.182
-0.385
-0.245
0.561
0.095
-0.487
-0.306
0.224
0.344
-0.037
-0.237
-0.103
0.087
-0.067
-0.178
0.294
0.235
0.028
-0.203
-0.231
-0.092
0.044
-0.026
-0.052
0.014
-0.093
-0.198
0.222
0.190
-0.315
-0.226
0.038
0.208
-0.267
-0.183
0.250
0.042
0.112
-0.007
-0.336
-0.409
0.574
0.121
-0.024
-0.217
-0.084
-0.258
0.120
0.283
0.104
-0.379
-0.198
0.139
0.458
-0.218
-0.273
-0.269
-0.247
0.387
0.317
-0.188
-0.286
0.159
-0.013
-0.171
-0.105
-0.228
-0.050
0.495
0.012
-0.678
0.277
0.524
-0.281
-0.490
0.173
0.393
-0.115
-0.142
-0.085
-0.121
0.002
0.117
0.092
-0.055
-0.213
-0.277
-0.002
0.277
-0.093
-0.015
-0.202
0.015
-0.003
-0.012
-0.041
-0.100
-0.125
0.117
-0.180
0.002
0.281
0.270
-0.278
-0.335
-0.240
0.257
0.006
-0.067
0.296
0.055
-0.199
-0.045
-0.118
-0.057
-0.058
0.022
0.186
-0.002
-0.137
-0.050
-0.031
-0.166
-0.086
0.083
0.045
-0.110
-0.113
0.136
-0.013
0.032
-0.160
-0.059
-0.012
-0.088
0.035
0.102
0.147
-0.139
-0.158
-0.223
-0.190
-0.039
0.400
0.125
-0.098
-0.142
0.162
-0.121
0.025
-0.218
-0.373
0.161
0.262
-0.030
-0.058
0.217
-0.144
-0.212
0.043
0.167
-0.203
-0.291
0.235
0.380
0.085
-0.234
-0.077
0.138
-0.215
0.054
0.209
0.144
-0.424
-0.068
0.326
-0.133
-0.097
-0.218
0.069
0.370
-0.229
-0.471
-0.110
0.533
-0.071
-0.082
0.299
0.045
-0.136
-0.351
-0.197
0.061
0.188
0.040
-0.083
-0.145
0.135
0.026
-0.046
-0.122
-0.071
-0.067
-0.312
-0.171
0.413
0.056
-0.076
-0.016
0.140
-0.194
-0.155
0.183
0.156
-0.235
0.053
0.192
0.131
-0.213
-0.095
0.201
-0.196
-0.190
0.119
0.045
0.068
-0.116
-0.004
-0.248
-0.049
-0.002
0.036
0.208
0.024
-0.248
-0.202
-0.158
0.545
-0.205
-0.742
0.801
0.291
-0.290
-0.336
-0.460
0.611
0.203
-0.265
-0.227
-0.146
-0.044
-0.067
-0.059
0.269
0.140
-0.255
0.179
-0.092
-0.309
-0.085
0.214
-0.099
0.207
0.008
-0.205
-0.121
-0.090
0.437
0.081
-0.142
0.017
-0.116
0.004
-0.165
0.005
-0.122
-0.012
-0.010
0.314
0.035
-0.214
0.077
-0.124
-0.112
-0.019
-0.135
-0.081
0.145
0.243
-0.098
-0.145
-0.052
-0.016
0.069
-0.014
-0.142
-0.572
0.445
0.540
-0.040
-0.256
-0.068
-0.236
-0.167
0.165
-0.036
0.103
0.229
0.275
-0.151
-0.106
-0.226
-0.159
0.088
0.092
-0.063
-0.370
0.098
0.373
0.025
-0.186
-0.272
-0.131
-0.025
0.144
0.297
-0.213
0.000
-0.090
-0.168
0.154
0.037
0.019
0.027
-0.207
-0.021
0.108
0.007
-0.233
0.107
-0.035
-0.159
-0.311
0.005
0.192
0.351
0.192
-0.168
-0.225
-0.323
-0.086
0.098
-0.021
0.139
0.090
-0.210
0.145
0.248
-0.201
-0.122
-0.197
-0.018
0.042
0.032
-0.066
-0.086
-0.092
0.248
0.027
-0.224
0.013
0.072
-0.058
0.002
0.085
0.056
-0.337
-0.258
0.072
0.026
0.340
0.115
-0.146
0.049
0.006
-0.340
-0.228
0.494
0.068
-0.139
-0.055
-0.056
-0.115
-0.041
-0.027
-0.061
-0.137
0.104
-0.002
-0.052
0.225
-0.070
-0.274
0.061
-0.117
-0.127
0.005
0.018
0.026
0.199
0.344
-0.280
-0.037
-0.091
0.069
0.015
0.043
-0.134
-0.175
-0.142
0.250
-0.113
-0.267
-0.025
0.780
0.324
-0.577
-0.541
-0.023
0.143
-0.136
0.295
0.321
-0.121
-0.244
0.169
-0.154
-0.253
0.140
0.146
-0.135
-0.150
-0.119
0.072
-0.183
-0.187
0.454
0.109
-0.134
-0.096
-0.241
-0.029
0.301
0.110
-0.136
-0.127
0.045
0.046
-0.037
-0.305
-0.285
0.373
0.426
-0.073
-0.144
-0.089
-0.200
-0.471
0.094
0.429
0.045
-0.021
-0.214
-0.478
0.340
0.180
-0.200
0.234
-0.062
-0.423
-0.256
0.408
0.196
0.027
-0.243
-0.075
0.182
-0.086
-0.471
0.019
0.453
0.133
-0.363
-0.203
-0.056
-0.118
0.106
0.009
-0.026
0.007
0.047
-0.106
-0.104
0.161
0.421
-0.026
-0.216
-0.317
-0.016
0.095
-0.126
-0.041
0.088
-0.142
0.460
0.241
0.027
-0.502
-0.300
-0.200
0.187
0.399
0.185
-0.104
-0.193
-0.052
-0.072
-0.090
-0.174
-0.022
0.235
-0.008
0.060
-0.103
-0.241
-0.236
0.065
-0.033
0.092
0.131
-0.014
-0.071
-0.070
-0.082
0.256
0.225
-0.185
-0.464
-0.171
0.345
0.116
-0.110
-0.100
0.109
0.071
-0.181
-0.090
-0.112
-0.278
0.241
0.310
0.004
-0.190
-0.128
-0.067
0.027
0.194
-0.077
0.064
-0.311
-0.254
0.247
0.209
0.475
-0.374
-0.401
-0.046
0.121
0.043
0.021
0.037
-0.120
-0.158
-0.124
0.010
0.060
0.212
-0.261
-0.064
0.109
0.006
-0.130
-0.137
-0.193
-0.235
0.329
0.012
-0.043
0.195
0.016
-0.064
-0.202
-0.106
0.127
-0.027
-0.279
0.104
0.063
-0.453
-0.019
0.055
0.228
-0.021
0.095
-0.267
-0.008
0.035
-0.035
-0.102
0.158
0.073
-0.098
-0.030
-0.052
0.157
0.022
-0.046
-0.077
-0.144
-0.265
0.104
0.682
-0.033
-0.403
-0.265
0.190
0.193
-0.149
0.056
-0.196
-0.228
0.287
0.153
-0.102
-0.208
-0.110
-0.108
-0.082
0.020
0.241
-0.456
0.049
0.226
-0.073
0.329
-0.226
-0.349
-0.087
0.085
-0.036
0.102
0.247
-0.115
-0.216
-0.122
-0.222
0.401
0.154
-0.172
-0.329
0.148
-0.171
0.074
-0.170
0.005
0.176
-0.094
0.005
0.031
-0.058
-0.236
0.047
0.279
0.032
-0.294
-0.162
0.300
0.109
-0.348
-0.605
0.444
0.546
0.113
-0.318
-0.327
-0.225
-0.116
0.301
0.252
-0.293
-0.205
0.055
0.469
-0.119
-0.498
-0.266
0.043
-0.268
0.474
0.263
0.030
-0.210
-0.152
-0.213
-0.057
0.054
0.082
0.033
0.035
0.038
-0.039
-0.077
0.012
-0.002
-0.010
-0.046
-0.195
0.035
0.226
-0.178
-0.114
-0.067
-0.055
-0.068
-0.280
0.352
0.227
-0.190
-0.124
0.281
0.014
-0.213
-0.285
-0.088
0.035
0.059
0.313
0.056
-0.062
-0.050
-0.221
-0.266
-0.117
0.735
0.039
-0.349
-0.523
0.190
0.289
0.071
0.155
-0.116
-0.474
0.003
0.295
-0.208
0.096
0.014
0.125
-0.166
-0.068
0.091
-0.161
-0.125
-0.026
0.111
0.081
-0.132
-0.045
0.222
-0.096
-0.256
0.044
0.081
-0.094
-0.079
0.047
0.188
0.063
-0.136
-0.229
0.191
-0.093
-0.171
-0.292
0.239
0.689
-0.133
-0.309
-0.301
-0.178
0.004
0.485
0.176
-0.201
-0.065
-0.030
0.001
0.092
-0.123
-0.220
-0.549
0.154
1.132
-0.346
-0.321
-0.079
0.091
-0.113
0.044
0.060
-0.102
-0.210
-0.066
0.126
0.337
-0.044
-0.039
-0.152
-0.115
-0.059
0.061
-0.041
-0.023
-0.043
-0.123
0.009
-0.052
-0.163
-0.011
0.226
-0.023
-0.126
-0.190
0.117
0.218
0.031
-0.039
-0.164
-0.094
-0.037
-0.154
0.050
0.004
-0.033
-0.057
0.293
0.173
-0.266
-0.217
-0.199
0.037
0.165
-0.101
0.262
-0.081
-0.001
-0.103
-0.159
0.504
0.043
-0.174
-0.273
-0.178
0.246
0.080
-0.065
-0.058
-0.085
-0.250
-0.029
0.174
0.187
-0.069
-0.501
0.052
0.493
-0.202
-0.413
-0.236
0.462
0.285
-0.195
-0.068
-0.123
-0.275
0.264
0.220
-0.066
0.145
-0.006
-0.520
-0.115
0.360
0.373
-0.306
-0.197
-0.068
-0.153
0.147
0.284
-0.091
-0.147
-0.400
0.013
0.582
0.051
-0.260
-0.113
-0.064
0.017
-0.130
0.080
-0.029
0.078
0.052
0.050
-0.094
-0.239
0.101
-0.118
-0.118
0.223
0.231
-0.278
-0.547
0.195
0.687
0.161
-0.410
-0.068
-0.100
0.101
-0.090
-0.142
0.148
0.069
-0.243
-0.275
0.194
0.283
-0.049
-0.282
-0.088
-0.050
-0.267
-0.062
-0.046
0.715
-0.039
-0.343
-0.326
-0.017
0.324
-0.087
-0.024
-0.018
-0.105
-0.083
-0.104
-0.129
-0.028
0.321
0.173
0.002
0.046
-0.024
-0.335
-0.211
0.071
0.406
-0.282
0.162
-0.029
-0.198
-0.020
0.068
-0.129
-0.124
0.095
0.019
-0.057
-0.158
0.193
-0.179
-0.142
0.408
0.089
-0.063
-0.162
0.034
-0.033
-0.219
-0.148
-0.079
0.384
0.191
-0.580
0.044
0.374
0.269
-0.399
-0.212
-0.180
0.037
-0.016
0.112
0.054
0.080
-0.030
0.029
-0.173
0.046
0.092
-0.128
0.003
-0.121
-0.070
-0.398
0.307
0.382
-0.096
-0.091
-0.249
-0.307
0.148
0.375
0.152
-0.231
-0.459
0.004
0.422
-0.008
-0.118
-0.273
-0.062
-0.172
-0.314
0.236
0.287
0.010
-0.202
-0.119
0.180
-0.068
-0.156
-0.143
-0.101
0.094
0.159
-0.114
0.197
-0.075
0.001
0.001
-0.089
0.027
0.001
-0.048
-0.162
0.010
0.146
-0.144
-0.313
0.102
0.026
0.504
0.068
-0.431
-0.284
-0.104
-0.116
0.187
-0.011
-0.185
-0.016
-0.067
-0.050
-0.097
0.260
0.022
-0.230
-0.206
0.007
0.161
-0.043
-0.133
-0.136
-0.057
0.343
0.052
-0.091
-0.157
0.135
0.080
-0.235
-0.060
0.225
0.056
-0.175
-0.050
-0.177
-0.039
-0.103
-0.074
0.088
0.019
0.131
0.066
-0.203
0.030
0.037
0.246
-0.106
-0.288
0.004
0.158
-0.296
0.003
0.345
0.096
-0.155
-0.489
0.284
0.270
-0.176
-0.157
-0.193
-0.053
-0.077
0.195
0.182
-0.223
-0.059
-0.042
-0.073
0.063
0.044
0.034
-0.080
-0.156
0.030
-0.157
-0.091
0.128
-0.053
0.236
0.206
-0.331
-0.136
0.098
-0.127
-0.021
0.058
0.022
-0.026
-0.055
-0.189
-0.229
0.204
0.067
0.262
-0.038
-0.004
-0.323
-0.062
-0.118
0.199
0.106
-0.060
0.093
-0.080
0.073
-0.096
-0.275
-0.215
0.295
0.252
0.032
-0.170
-0.265
-0.194
-0.104
0.072
0.295
-0.013
-0.205
-0.322
0.370
0.220
-0.108
-0.149
-0.030
-0.067
-0.062
-0.025
-0.052
0.033
-0.118
-0.273
0.067
0.285
-0.303
-0.021
0.448
0.163
-0.442
-0.450
0.158
0.192
-0.114
-0.158
0.297
-0.021
-0.103
0.177
0.068
-0.206
-0.087
0.147
-0.181
-0.206
0.233
0.222
-0.136
-0.430
-0.310
0.491
0.188
0.097
-0.048
-0.187
-0.208
0.001
-0.324
0.180
0.286
0.125
-0.307
-0.370
-0.135
0.194
0.571
0.390
-0.350
-0.527
-0.333
0.183
0.137
-0.110
0.045
0.482
-0.135
-0.277
-0.115
0.084
-0.185
-0.078
-0.085
-0.141
-0.151
0.273
0.031
0.138
0.016
-0.086
-0.143
-0.130
0.103
0.229
-0.076
-0.095
0.083
0.159
-0.025
-0.375
-0.251
0.311
0.235
-0.139
-0.292
-0.053
0.084
-0.213
-0.218
0.206
0.583
0.057
-0.429
-0.274
0.077
-0.001
-0.066
-0.103
0.134
0.047
0.004
0.196
0.007
-0.042
-0.215
-0.168
-0.187
0.005
-0.049
0.248
0.173
-0.226
-0.086
-0.077
-0.240
-0.016
0.218
-0.057
-0.010
0.011
0.047
-0.297
-0.280
0.216
0.161
-0.056
0.088
-0.085
-0.012
-0.113
-0.032
-0.182
-0.139
0.563
0.040
-0.379
-0.242
0.510
-0.234
0.005
-0.011
0.027
-0.066
-0.050
-0.198
0.113
0.432
-0.194
-0.294
0.008
-0.058
-0.488
0.106
0.075
0.340
0.424
-0.196
-0.381
-0.148
0.060
-0.083
-0.044
0.205
0.132
0.032
-0.279
0.018
0.174
0.007
-0.279
-0.173
0.081
-0.109
0.036
0.100
-0.094
-0.055
0.027
-0.036
-0.029
-0.060
0.085
-0.058
-0.064
-0.082
0.009
0.004
-0.006
-0.095
-0.006
-0.049
-0.089
0.006
-0.072
0.433
-0.181
-0.555
0.305
0.464
0.007
-0.416
-0.493
0.256
0.377
0.099
-0.133
-0.144
-0.107
0.109
0.003
-0.097
0.033
-0.424
-0.267
0.349
0.780
-0.244
-0.511
-0.490
0.220
0.421
-0.108
-0.162
-0.108
0.026
-0.130
-0.161
0.285
-0.094
0.010
0.082
-0.035
-0.106
-0.087
-0.175
-0.135
0.390
-0.032
-0.088
-0.048
-0.084
0.029
-0.050
0.052
-0.034
0.199
-0.201
-0.008
-0.349
0.070
0.399
0.171
-0.187
-0.394
-0.403
0.409
0.208
-0.108
0.046
-0.002
-0.083
-0.107
-0.036
0.175
0.082
-0.221
-0.024
0.061
-0.016
-0.141
-0.213
-0.230
-0.160
0.033
0.457
0.177
-0.156
-0.083
0.044
-0.106
-0.094
0.112
-0.146
-0.142
0.226
0.195
0.388
-0.043
-0.318
-0.196
-0.107
-0.005
0.018
-0.009
-0.183
-0.020
0.269
0.126
-0.307
-0.274
-0.312
0.016
1.028
-0.008
-0.606
-0.264
0.187
-0.059
0.037
0.135
-0.081
-0.084
0.012
-0.219
0.192
0.171
-0.116
-0.112
-0.071
-0.125
-0.039
-0.072
0.251
-0.039
-0.362
-0.018
0.470
0.065
-0.129
-0.163
0.026
-0.106
0.044
0.021
-0.036
-0.034
-0.253
0.139
0.102
0.011
-0.131
0.091
-0.023
0.189
-0.069
-0.095
-0.137
-0.051
-0.012
-0.028
-0.010
0.080
-0.017
-0.069
0.058
-0.104
-0.142
0.154
0.006
0.031
-0.109
-0.414
0.238
0.348
-0.165
-0.091
-0.012
-0.176
0.020
-0.059
0.129
0.045
-0.087
-0.177
-0.115
0.044
0.096
0.047
0.157
-0.119
-0.298
-0.050
0.162
0.099
-0.126
0.030
-0.007
-0.401
-0.353
0.993
0.266
-0.334
-0.210
-0.091
-0.198
-0.071
0.028
0.245
0.096
-0.237
-0.036
-0.008
-0.114
-0.071
-0.096
0.352
0.005
-0.410
-0.186
0.249
0.078
-0.226
-0.094
0.008
0.112
0.048
-0.040
0.002
0.034
-0.140
-0.038
-0.058
-0.075
-0.030
0.006
-0.158
-0.185
-0.005
0.139
0.220
-0.211
0.203
-0.070
-0.148
-0.131
0.058
-0.243
-0.027
0.231
-0.019
-0.091
0.102
0.350
-0.165
-0.589
-0.129
0.332
0.196
-0.249
-0.205
0.130
-0.230
-0.127
0.142
0.316
-0.093
-0.209
-0.084
-0.065
-0.008
0.027
0.184
0.015
0.001
0.100
-0.302
-0.307
-0.098
0.300
0.065
-0.007
-0.106
-0.233
-0.132
0.419
0.009
-0.127
-0.123
-0.024
-0.096
-0.004
-0.130
-0.116
-0.118
0.269
0.437
0.123
-0.302
-0.292
-0.122
0.019
0.210
0.009
-0.159
-0.383
0.641
0.324
-0.399
-0.370
-0.113
-0.092
-0.075
0.253
0.004
0.024
0.062
-0.163
0.068
-0.252
0.141
0.013
0.008
-0.219
-0.120
-0.044
0.078
0.197
-0.034
-0.019
-0.152
0.265
0.134
-0.115
-0.196
-0.128
-0.260
0.184
0.223
0.216
0.154
-0.340
-0.632
-0.071
0.627
0.391
-0.117
-0.164
-0.158
-0.022
-0.219
0.058
0.279
-0.158
-0.080
0.168
-0.012
-0.004
-0.216
-0.185
0.226
0.381
-0.392
-0.295
0.207
0.166
-0.066
-0.398
-0.165
-0.248
0.459
0.443
-0.106
-0.144
-0.093
-0.135
0.049
-0.026
-0.094
-0.144
-0.015
-0.016
0.222
0.105
-0.017
-0.130
-0.155
-0.072
-0.027
-0.003
-0.025
0.043
-0.062
-0.101
-0.078
-0.021
0.007
0.112
0.120
0.050
-0.195
0.005
-0.274
0.289
-0.009
-0.201
0.121
-0.103
-0.085
0.114
0.088
0.010
-0.107
-0.105
-0.130
-0.219
0.222
0.031
-0.077
-0.093
-0.115
-0.005
0.056
0.000
0.130
-0.112
-0.072
-0.024
-0.003
-0.026
-0.254
0.349
0.066
-0.587
-0.210
0.252
0.391
-0.223
-0.010
-0.192
-0.165
0.041
0.053
-0.038
0.109
0.184
-0.168
-0.225
0.159
0.295
-0.091
-0.544
-0.282
0.491
0.236
-0.057
-0.167
-0.423
0.076
0.326
0.157
-0.084
-0.470
0.202
0.107
-0.062
-0.039
-0.256
-0.136
0.082
0.085
0.232
0.001
-0.215
-0.165
-0.041
0.011
0.210
-0.028
-0.330
0.111
0.341
0.019
0.000
-0.241
-0.083
0.023
-0.135
-0.005
0.342
-0.014
-0.216
-0.107
-0.041
-0.086
-0.021
-0.031
-0.061
0.146
-0.267
0.059
0.179
-0.136
-0.168
-0.041
-0.075
0.029
0.064
-0.097
0.069
-0.119
-0.121
-0.037
-0.186
-0.158
0.533
0.039
-0.249
-0.168
-0.125
0.146
-0.067
0.076
0.127
-0.107
0.123
-0.021
-0.023
0.040
-0.094
-0.399
0.140
0.379
0.146
-0.146
0.346
-0.143
-0.755
-0.300
0.325
0.420
0.064
-0.396
-0.019
0.524
-0.033
-0.365
-0.085
0.166
-0.157
0.113
-0.110
-0.086
0.035
0.011
-0.012
-0.166
0.025
0.075
0.002
-0.204
0.263
-0.043
-0.212
0.061
-0.160
-0.025
0.267
0.020
-0.175
-0.033
0.008
-0.078
0.226
0.222
-0.149
-0.256
-0.052
0.022
-0.143
0.116
0.281
-0.166
-0.081
-0.003
-0.021
0.031
-0.399
0.401
0.698
-0.226
-0.606
-0.198
0.416
0.179
-0.185
-0.390
-0.042
0.416
0.065
-0.401
-0.223
-0.018
0.426
0.280
-0.169
-0.449
-0.205
0.103
-0.005
0.178
0.059
-0.186
0.001
-0.057
-0.104
-0.027
0.044
0.011
0.015
-0.244
-0.159
-0.170
0.148
-0.067
0.379
0.148
-0.065
-0.085
-0.226
-0.102
0.104
0.011
-0.090
-0.069
-0.008
-0.005
-0.152
0.041
-0.060
-0.149
-0.057
0.029
-0.119
0.014
0.192
-0.507
0.419
0.245
-0.264
-0.384
0.232
0.281
-0.112
-0.412
0.180
0.317
-0.179
-0.076
0.012
-0.077
-0.034
-0.039
-0.148
0.008
0.053
-0.008
-0.104
-0.014
0.004
0.007
-0.250
0.119
-0.032
-0.007
-0.085
0.027
-0.093
-0.265
0.140
0.364
-0.052
-0.026
-0.004
0.099
-0.121
-0.274
-0.145
0.218
-0.071
-0.130
0.154
0.172
-0.155
-0.191
-0.204
-0.019
-0.034
0.009
-0.007
0.408
-0.002
-0.255
-0.229
0.059
0.338
0.006
-0.070
-0.103
-0.126
-0.233
0.052
0.152
0.145
0.119
-0.113
-0.171
-0.024
-0.044
-0.071
-0.024
-0.286
0.101
0.229
-0.047
-0.011
-0.123
-0.073
0.133
-0.055
-0.252
-0.245
0.407
0.008
-0.192
-0.237
0.071
-0.014
-0.298
0.262
0.206
0.115
-0.113
-0.157
-0.072
-0.123
-0.185
0.035
0.308
-0.030
-0.002
-0.205
-0.236
0.174
0.201
-0.101
-0.147
-0.104
0.146
-0.067
-0.129
0.167
-0.127
-0.420
0.262
0.471
-0.284
-0.329
-0.074
0.361
-0.071
-0.125
-0.107
0.058
0.003
-0.078
-0.109
0.090
-0.303
0.440
0.126
-0.454
0.127
0.257
-0.058
-0.408
-0.154
-0.041
-0.084
0.337
0.217
0.003
-0.199
-0.241
-0.248
-0.149
0.120
0.431
-0.048
-0.086
-0.130
-0.287
0.229
0.375
0.034
-0.274
-0.126
-0.008
-0.075
0.002
0.029
-0.061
0.080
-0.104
-0.319
0.117
0.358
-0.072
-0.353
-0.155
-0.042
-0.016
0.089
0.102
0.125
-0.073
0.044
0.025
-0.062
-0.106
-0.079
0.106
0.168
-0.023
-0.056
-0.206
-0.201
0.098
0.089
0.158
-0.109
-0.094
-0.403
0.087
0.438
0.082
-0.031
-0.474
-0.007
0.332
-0.173
-0.228
0.190
0.001
0.019
0.031
-0.079
-0.276
-0.186
0.280
0.168
-0.077
-0.116
-0.282
-0.308
0.086
0.242
0.317
0.030
-0.215
-0.141
-0.394
0.065
0.227
0.007
0.133
-0.208
-0.210
0.287
0.446
-0.196
-0.416
-0.153
0.186
-0.007
-0.161
0.163
0.094
-0.029
-0.185
-0.139
0.221
-0.040
-0.081
-0.080
-0.014
0.006
0.118
0.078
-0.108
0.014
-0.018
-0.071
-0.117
0.073
0.006
-0.047
-0.022
0.339
-0.082
-0.247
0.000
-0.128
-0.080
0.016
-0.023
-0.015
-0.074
0.358
-0.175
-0.266
0.220
0.050
-0.199
-0.006
0.110
0.098
-0.019
-0.117
0.010
0.000
-0.168
-0.011
0.048
-0.258
-0.413
0.049
1.061
0.019
-0.534
-0.349
-0.009
0.050
0.152
0.042
-0.040
-0.057
0.072
0.080
-0.031
0.007
-0.190
0.230
0.028
-0.211
-0.026
-0.142
0.009
0.129
0.223
-0.178
-0.234
0.036
0.183
0.037
-0.429
0.081
0.354
-0.232
-0.194
0.100
0.123
-0.074
-0.068
0.014
0.065
0.036
-0.100
-0.016
0.005
0.010
-0.018
-0.146
0.010
-0.445
-0.195
0.605
0.359
-0.324
-0.384
-0.273
0.117
-0.075
0.279
0.274
-0.109
-0.294
-0.202
-0.270
0.274
0.375
0.400
-0.022
-0.126
-0.295
-0.129
-0.112
0.071
0.019
-0.040
-0.047
0.108
0.011
-0.113
-0.066
-0.128
-0.076
-0.042
-0.248
-0.058
0.393
0.149
-0.210
-0.122
-0.064
-0.029
0.038
0.175
-0.117
-0.078
-0.006
-0.010
-0.214
0.211
0.103
-0.409
-0.141
0.561
0.086
-0.144
-0.062
-0.057
-0.047
-0.052
-0.103
0.109
0.174
0.029
0.038
-0.154
-0.261
-0.316
0.121
0.153
0.298
-0.203
-0.187
-0.124
-0.041
0.009
-0.100
0.170
0.208
-0.196
-0.090
0.068
-0.018
-0.115
-0.016
0.052
-0.134
-0.495
0.112
0.543
0.036
-0.222
-0.353
-0.126
0.392
-0.002
-0.051
0.065
-0.110
-0.220
-0.043
0.396
-0.117
-0.060
-0.058
-0.248
-0.154
0.366
0.275
-0.299
0.200
0.240
-0.118
-0.498
-0.159
0.161
0.148
-0.078
-0.010
0.037
-0.185
0.065
-0.176
-0.151
0.160
0.128
-0.156
-0.197
-0.117
0.061
0.139
-0.038
-0.114
0.171
-0.141
-0.025
0.106
0.065
0.241
-0.214
-0.331
0.108
0.053
-0.107
-0.039
-0.156
-0.210
-0.013
0.384
0.169
-0.096
-0.118
-0.137
-0.097
-0.054
-0.068
-0.025
0.037
0.114
-0.050
0.077
0.044
-0.278
-0.204
0.174
0.064
-0.078
-0.011
-0.073
-0.174
0.113
0.399
-0.226
-0.459
0.324
0.076
-0.222
0.188
0.206
0.165
-0.323
-0.318
-0.138
0.015
0.078
0.165
0.391
-0.108
0.031
-0.238
-0.159
-0.117
-0.032
0.036
-0.028
-0.063
0.027
0.194
-0.067
-0.049
-0.096
-0.088
-0.037
-0.210
0.043
0.139
0.019
0.337
-0.279
-0.339
-0.023
0.172
0.130
0.189
-0.138
-0.118
0.031
-0.019
-0.133
0.008
-0.270
0.084
0.207
-0.088
-0.185
-0.043
0.304
0.190
-0.225
-0.100
-0.067
0.042
-0.025
-0.183
0.419
0.231
-0.054
-0.449
-0.186
-0.038
0.067
0.107
-0.086
-0.122
-0.144
0.042
0.177
-0.073
-0.120
0.066
-0.074
0.010
0.005
-0.065
-0.257
0.031
-0.119
0.151
0.134
-0.094
0.106
-0.208
-0.326
0.069
0.072
-0.159
0.179
-0.016
0.182
0.122
-0.223
-0.240
-0.083
-0.195
0.386
0.318
-0.360
-0.214
0.203
-0.084
-0.013
0.137
0.056
-0.137
-0.342
0.039
-0.028
0.068
0.256
-0.052
-0.241
-0.084
-0.021
-0.046
-0.258
0.185
0.068
-0.038
-0.075
0.042
-0.159
-0.076
-0.013
0.168
0.122
-0.114
-0.358
0.110
0.172
0.049
0.052
0.030
-0.049
0.133
-0.379
-0.066
-0.084
0.069
-0.055
-0.027
0.112
0.214
-0.148
-0.443
-0.109
0.357
0.104
0.197
-0.021
-0.242
-0.158
-0.222
-0.041
0.156
0.368
0.068
-0.217
-0.127
-0.129
0.190
0.061
-0.067
-0.118
-0.119
0.040
-0.044
-0.040
0.054
-0.003
-0.218
0.282
0.137
-0.268
-0.146
0.008
0.095
-0.072
0.011
-0.126
-0.143
0.004
0.089
-0.228
-0.268
0.326
0.110
0.056
-0.323
-0.303
0.388
0.337
-0.199
-0.280
-0.045
-0.023
-0.356
0.109
0.506
0.329
-0.203
-0.333
-0.238
-0.029
0.102
-0.068
-0.147
0.197
0.103
-0.032
-0.237
-0.137
0.067
0.146
-0.247
-0.071
-0.156
-0.107
0.196
0.074
-0.304
0.173
0.268
-0.084
-0.270
-0.018
-0.274
-0.442
0.466
0.508
-0.051
-0.230
-0.202
-0.174
0.172
-0.039
-0.426
0.525
0.205
-0.095
-0.193
-0.338
0.079
-0.076
0.254
0.368
-0.025
-0.383
-0.179
0.063
0.354
-0.161
-0.145
-0.110
0.057
-0.015
-0.081
-0.140
0.302
-0.003
-0.196
-0.105
-0.093
-0.124
0.108
0.169
-0.129
-0.050
0.070
-0.161
0.035
0.028
-0.032
-0.062
0.051
0.023
-0.093
-0.340
-0.079
0.314
0.357
-0.415
0.214
-0.097
-0.004
0.100
-0.257
-0.064
0.037
0.134
-0.040
-0.022
-0.044
-0.011
-0.094
-0.064
0.276
0.002
-0.190
-0.098
-0.368
0.460
0.201
-0.206
-0.236
-0.045
0.008
-0.036
-0.284
0.174
0.377
-0.212
-0.067
-0.034
-0.163
-0.056
0.011
-0.241
-0.081
0.211
0.248
0.164
-0.081
-0.516
0.101
0.450
-0.295
-0.338
-0.109
-0.026
0.235
0.340
0.003
-0.101
-0.127
-0.162
-0.109
-0.100
-0.159
0.100
0.136
0.013
-0.279
-0.249
0.330
0.274
0.050
-0.080
-0.224
-0.153
-0.102
-0.030
0.189
0.035
-0.055
0.107
0.117
0.008
-0.068
-0.156
-0.226
-0.134
-0.015
0.067
0.522
-0.053
-0.117
-0.037
-0.195
-0.138
-0.089
0.045
0.257
-0.010
-0.099
-0.130
-0.013
-0.021
0.194
0.028
-0.145
-0.258
-0.036
0.085
-0.051
-0.252
0.235
0.078
0.052
0.061
-0.315
-0.113
0.280
-0.045
-0.479
0.289
0.260
-0.357
0.043
0.199
-0.063
-0.156
0.125
0.040
-0.321
0.059
0.179
-0.150
-0.370
0.224
0.717
-0.296
-0.198
-0.112
-0.070
-0.110
0.004
-0.025
-0.040
0.036
0.073
0.223
0.051
-0.373
-0.270
0.322
0.066
-0.180
-0.273
-0.016
0.152
0.178
-0.071
-0.180
-0.035
-0.040
0.034
-0.076
-0.047
-0.168
-0.282
-0.072
0.317
0.128
0.014
-0.137
-0.243
0.357
0.101
-0.037
-0.178
-0.172
0.209
-0.047
0.073
0.105
0.015
-0.213
-0.036
0.074
-0.062
-0.065
-0.077
-0.313
0.286
0.255
-0.048
-0.378
-0.006
0.033
-0.003
0.024
0.105
-0.014
-0.065
-0.235
0.046
0.301
0.234
-0.042
-0.284
-0.277
-0.315
0.293
0.400
-0.005
-0.297
-0.126
0.159
0.012
-0.075
0.067
-0.151
-0.421
0.161
0.386
0.199
-0.252
-0.131
-0.066
-0.017
-0.092
0.052
0.079
0.018
0.022
-0.110
-0.002
0.134
-0.236
-0.235
0.089
0.228
0.105
-0.459
0.185
0.279
-0.264
-0.101
0.026
0.250
0.027
-0.255
-0.108
0.155
0.003
-0.059
-0.060
0.012
-0.023
-0.134
-0.240
0.011
0.116
-0.093
0.011
0.409
-0.168
-0.190
-0.010
-0.044
0.019
-0.045
-0.147
-0.264
-0.208
0.648
0.122
-0.280
0.233
-0.096
-0.291
-0.205
-0.072
-0.019
-0.043
0.274
0.045
0.012
-0.139
-0.104
-0.076
0.071
0.318
-0.103
-0.293
-0.405
0.331
0.279
-0.295
-0.225
0.215
0.042
-0.060
-0.085
-0.159
-0.030
0.039
-0.088
-0.126
0.009
0.084
0.087
-0.061
-0.205
-0.050
0.205
-0.013
-0.061
-0.050
-0.072
-0.067
0.027
0.043
0.037
-0.110
-0.007
0.018
-0.132
-0.188
0.045
-0.065
-0.574
0.252
0.865
0.355
-0.451
-0.536
0.043
0.105
-0.011
-0.160
0.185
0.243
0.074
-0.091
-0.198
-0.217
0.021
0.043
0.127
-0.144
-0.236
-0.028
-0.069
-0.102
0.320
0.089
-0.108
-0.192
-0.102
-0.541
0.103
0.839
0.300
-0.290
-0.333
-0.024
-0.082
-0.123
-0.127
-0.002
0.275
0.123
0.022
-0.172
0.121
-0.055
-0.255
-0.168
0.037
0.450
0.047
-0.106
-0.227
-0.030
-0.016
0.083
-0.055
-0.041
0.159
-0.106
0.134
-0.156
-0.137
0.249
-0.100
-0.226
-0.061
-0.017
0.224
0.071
-0.142
0.071
-0.246
0.214
0.336
-0.221
-0.368
-0.229
-0.061
0.121
0.130
0.138
0.103
-0.147
-0.186
0.044
-0.104
-0.089
0.021
0.121
-0.197
-0.408
0.022
0.667
0.134
-0.176
-0.307
-0.060
-0.026
-0.029
0.036
0.028
0.003
0.105
0.226
-0.114
-0.296
0.246
-0.036
-0.187
-0.454
0.096
0.136
0.085
-0.167
0.135
-0.000
-0.153
-0.108
-0.068
0.085
-0.092
0.183
0.176
-0.283
-0.373
0.327
0.334
0.019
-0.156
-0.277
-0.036
-0.061
-0.135
0.303
-0.021
0.089
-0.004
-0.068
-0.230
-0.129
0.118
-0.220
-0.004
0.302
-0.132
-0.065
0.099
-0.201
0.095
-0.046
0.019
0.137
0.026
-0.108
-0.115
-0.090
-0.228
-0.113
0.175
0.361
-0.135
-0.255
0.192
-0.024
-0.196
-0.078
0.106
0.046
0.031
-0.340
0.047
0.212
-0.232
0.283
0.245
-0.074
-0.056
-0.113
-0.143
-0.129
-0.020
0.259
0.010
-0.141
-0.015
-0.094
0.016
0.021
0.009
-0.139
-0.170
0.107
0.005
-0.200
-0.138
-0.076
0.329
-0.198
-0.074
-0.042
0.224
-0.155
-0.077
0.011
0.144
0.051
-0.022
-0.082
-0.078
0.028
-0.089
-0.070
-0.470
0.149
0.921
-0.039
-0.429
-0.258
-0.052
0.011
0.227
-0.052
-0.046
0.015
-0.045
-0.050
-0.085
0.233
0.018
-0.124
-0.223
-0.075
-0.055
0.033
-0.100
0.350
-0.389
-0.304
0.062
0.532
0.049
-0.300
-0.295
-0.030
0.110
-0.120
-0.073
0.308
0.019
0.022
-0.155
-0.313
0.097
0.179
0.024
-0.198
-0.195
0.127
-0.237
-0.020
0.397
-0.060
-0.326
0.018
-0.067
-0.093
0.348
-0.063
-0.237
-0.059
0.133
0.071
-0.180
-0.064
-0.299
0.016
0.518
0.138
-0.028
-0.249
-0.152
-0.182
0.048
0.013
-0.048
-0.016
-0.008
-0.010
0.007
-0.119
-0.044
0.073
0.119
-0.146
-0.095
0.105
-0.142
-0.090
-0.152
-0.197
0.157
0.319
0.039
-0.019
-0.258
-0.062
0.119
0.021
-0.200
-0.240
0.167
0.414
-0.131
-0.217
-0.233
0.288
0.083
-0.090
-0.020
-0.162
-0.266
-0.119
0.362
0.236
-0.147
-0.255
-0.084
-0.239
0.029
0.146
-0.082
-0.353
0.186
0.469
0.290
-0.118
-0.355
-0.290
-0.040
0.084
-0.046
0.075
0.188
0.007
-0.169
0.070
-0.066
0.062
-0.040
-0.104
-0.091
-0.119
0.137
0.068
0.048
-0.242
0.134
0.140
-0.059
-0.125
-0.065
-0.034
-0.100
-0.060
0.072
-0.070
0.041
0.005
-0.061
-0.089
-0.029
-0.051
0.031
-0.237
-0.102
0.539
-0.036
-0.438
0.254
0.204
-0.174
-0.142
0.045
-0.075
-0.074
0.026
0.123
-0.026
0.175
-0.019
-0.180
-0.215
-0.131
-0.085
0.061
-0.028
0.004
-0.013
0.010
0.004
-0.164
0.120
0.170
-0.109
-0.189
0.084
-0.309
-0.069
0.356
0.048
0.153
-0.141
-0.029
-0.045
-0.077
0.053
0.120
-0.060
-0.081
-0.007
-0.273
0.045
0.251
0.121
0.130
-0.200
-0.252
0.020
-0.472
0.006
0.607
0.290
-0.224
-0.178
-0.137
-0.098
-0.048
0.285
0.016
-0.175
-0.051
-0.067
0.037
-0.101
-0.198
0.216
0.248
-0.374
-0.153
0.190
-0.050
0.032
-0.124
-0.075
0.129
0.192
-0.090
-0.034
-0.320
0.234
0.223
-0.206
-0.227
0.042
0.357
-0.037
-0.261
-0.304
0.239
0.043
-0.120
0.054
-0.063
-0.287
0.054
0.423
0.024
-0.177
-0.093
-0.070
0.035
-0.008
0.072
0.080
-0.116
0.027
-0.142
-0.189
-0.156
0.191
0.251
-0.104
-0.171
-0.116
0.005
-0.139
0.209
0.444
-0.322
-0.355
0.134
0.064
-0.039
-0.127
-0.290
0.025
0.615
-0.062
-0.198
-0.239
-0.047
-0.147
-0.010
-0.035
0.125
0.218
-0.169
-0.132
-0.037
-0.046
-0.133
-0.013
0.092
0.053
0.106
-0.076
-0.037
-0.093
-0.209
-0.002
0.501
0.038
-0.144
-0.061
-0.512
-0.248
0.306
0.082
-0.030
0.087
-0.082
0.207
-0.035
-0.220
-0.102
0.210
-0.077
-0.244
0.026
0.199
0.093
0.001
-0.224
-0.300
0.181
0.330
-0.153
-0.310
-0.062
-0.219
0.444
-0.171
-0.159
0.334
0.112
-0.189
-0.250
0.042
0.234
-0.157
-0.128
0.007
0.097
0.004
-0.166
0.006
-0.072
-0.011
-0.038
-0.155
-0.139
0.031
0.310
-0.036
-0.167
-0.136
-0.015
0.095
0.080
-0.018
-0.127
0.025
-0.154
-0.021
0.128
-0.191
0.032
0.179
0.062
-0.061
-0.297
-0.150
0.281
-0.397
0.358
0.263
-0.111
-0.170
-0.240
-0.410
-0.006
0.716
0.417
-0.334
-0.372
-0.391
0.016
-0.006
0.200
0.135
-0.313
0.222
0.327
-0.223
-0.295
-0.128
-0.018
0.206
-0.082
-0.028
0.067
-0.128
-0.088
0.021
0.095
0.069
-0.188
-0.092
-0.117
-0.351
0.505
0.405
-0.055
-0.363
-0.251
-0.319
0.093
0.504
0.054
-0.455
-0.031
0.285
-0.059
-0.041
-0.135
-0.063
-0.034
0.076
-0.017
-0.066
-0.085
0.102
0.039
-0.022
-0.102
-0.099
0.014
-0.069
-0.135
0.061
0.040
-0.241
-0.058
0.316
0.211
-0.032
-0.225
-0.023
-0.073
-0.064
-0.008
0.071
-0.072
-0.052
0.100
0.315
-0.162
-0.260
-0.424
-0.108
0.201
0.158
0.093
0.076
-0.068
-0.128
-0.255
-0.068
-0.107
0.064
0.092
0.006
-0.167
-0.243
0.031
0.518
0.140
-0.137
-0.180
-0.278
0.033
0.055
-0.011
-0.035
0.085
0.344
-0.287
-0.349
0.126
0.292
-0.077
-0.244
-0.208
-0.271
0.095
0.097
0.070
0.084
-0.105
-0.035
0.028
-0.087
-0.092
0.058
-0.103
-0.076
0.156
-0.132
0.005
0.110
-0.109
-0.194
-0.392
0.416
0.279
0.049
-0.101
-0.479
0.117
0.400
-0.163
-0.229
-0.048
-0.342
-0.072
0.503
0.333
-0.214
0.085
-0.140
-0.237
-0.200
0.106
0.167
-0.042
-0.171
0.112
0.088
0.042
-0.059
-0.198
-0.019
-0.001
-0.066
-0.102
0.179
0.021
-0.261
0.162
0.066
-0.066
-0.005
-0.193
0.104
-0.039
-0.014
-0.196
0.294
0.306
-0.287
-0.183
0.081
0.377
-0.247
-0.239
-0.119
0.058
-0.059
-0.146
0.033
0.348
-0.228
-0.376
0.067
0.394
0.296
-0.352
-0.289
0.041
-0.015
0.116
0.381
-0.183
0.051
-0.185
-0.367
0.068
0.636
-0.142
0.033
-0.266
-0.115
-0.066
-0.000
-0.055
0.086
0.031
0.011
0.069
-0.092
-0.044
0.140
0.105
-0.360
-0.043
0.023
0.300
0.046
-0.248
-0.451
0.086
0.440
-0.219
-0.083
-0.040
0.005
0.016
-0.026
0.056
-0.015
-0.030
0.234
-0.024
-0.141
-0.059
-0.016
0.024
-0.087
0.013
-0.043
-0.209
-0.041
0.484
-0.083
-0.357
0.050
0.134
-0.200
0.135
-0.167
-0.262
0.102
0.180
-0.079
0.009
-0.100
0.021
-0.003
-0.116
-0.080
0.094
-0.012
0.066
-0.007
-0.005
-0.027
0.127
-0.120
-0.070
-0.089
0.124
0.081
-0.144
-0.126
-0.146
-0.117
0.075
-0.179
-0.047
0.257
0.062
-0.095
-0.036
-0.060
-0.302
0.014
0.088
0.164
0.040
-0.024
-0.215
0.088
-0.095
-0.056
0.042
-0.026
0.028
-0.301
-0.035
0.266
0.096
-0.098
-0.251
-0.009
-0.249
0.007
0.300
0.172
-0.358
-0.111
0.040
-0.113
0.019
0.294
-0.059
-0.163
-0.261
-0.084
0.195
-0.168
0.336
0.105
-0.047
-0.157
-0.163
-0.194
0.209
-0.007
0.184
0.078
-0.126
-0.212
-0.090
-0.119
0.049
-0.085
-0.005
0.254
-0.114
-0.014
0.215
-0.228
-0.218
0.012
0.011
-0.073
0.163
0.096
-0.089
-0.325
-0.009
0.136
-0.031
0.182
0.080
-0.010
-0.298
-0.086
-0.035
0.000
0.047
-0.072
0.108
0.005
-0.105
-0.070
-0.037
-0.050
0.147
-0.068
-0.064
0.039
-0.013
-0.086
-0.362
-0.085
0.323
0.540
-0.010
-0.119
-0.274
-0.404
-0.260
0.287
-0.110
0.430
0.099
-0.110
-0.025
-0.046
-0.152
-0.095
-0.105
-0.114
0.012
0.299
-0.208
-0.107
0.236
-0.013
0.052
-0.215
-0.102
0.037
-0.082
-0.157
0.326
0.276
-0.206
-0.349
-0.106
0.273
0.000
0.050
-0.194
-0.176
-0.164
-0.037
-0.124
0.076
0.265
0.202
-0.054
-0.395
-0.109
0.183
0.128
-0.010
-0.191
-0.049
0.023
0.029
-0.077
0.135
0.310
-0.075
-0.247
-0.320
-0.009
0.494
-0.123
-0.126
-0.068
0.048
0.005
0.051
0.047
-0.182
-0.074
-0.227
0.042
-0.042
-0.011
0.272
0.272
-0.345
-0.066
-0.025
-0.128
-0.124
0.086
0.015
-0.199
0.030
0.061
0.405
-0.124
-0.302
0.082
0.050
0.003
0.049
-0.293
0.087
-0.079
-0.370
0.042
0.477
0.036
-0.189
-0.169
-0.115
-0.008
0.140
-0.066
-0.158
-0.075
-0.058
0.263
-0.050
-0.381
-0.159
0.095
0.094
-0.131
0.007
0.137
-0.309
-0.245
0.191
0.496
0.246
-0.532
-0.302
0.136
0.327
-0.178
-0.220
-0.057
0.184
-0.006
-0.002
-0.060
-0.098
-0.041
-0.153
-0.024
0.307
0.042
-0.122
-0.232
-0.103
-0.164
0.136
0.190
0.193
-0.278
-0.232
-0.045
-0.039
0.203
-0.003
-0.084
-0.039
-0.006
-0.074
0.058
-0.153
-0.018
0.123
0.056
-0.045
-0.103
-0.237
0.053
0.161
-0.002
-0.006
-0.031
-0.099
-0.264
0.276
0.259
-0.100
-0.491
-0.152
0.280
0.314
-0.106
-0.184
-0.001
0.075
-0.194
-0.261
0.363
0.382
0.014
-0.181
-0.160
-0.073
0.018
-0.028
-0.145
0.333
0.325
-0.023
-0.199
-0.130
-0.094
0.005
-0.027
0.066
0.018
-0.018
0.038
-0.173
-0.015
-0.068
-0.038
-0.062
0.003
-0.013
0.024
-0.077
-0.445
0.565
0.102
-0.116
0.039
-0.030
-0.036
0.005
-0.154
-0.204
0.068
0.079
0.095
0.328
0.074
-0.466
-0.141
0.057
-0.082
0.123
-0.051
-0.093
0.025
-0.022
-0.047
-0.077
0.027
0.072
-0.154
-0.271
0.039
0.193
-0.113
0.153
0.037
0.177
-0.028
-0.234
-0.316
0.022
-0.055
0.172
0.014
-0.032
-0.047
0.291
0.179
-0.086
-0.279
-0.295
0.227
0.075
-0.108
-0.106
0.008
0.233
-0.112
0.143
0.064
-0.177
-0.012
0.043
-0.086
-0.001
-0.096
-0.062
0.046
0.062
-0.001
-0.048
-0.124
-0.144
-0.002
-0.178
-0.023
0.436
0.126
-0.490
0.100
0.125
-0.134
-0.225
-0.003
0.030
-0.065
0.142
-0.051
-0.078
0.182
0.063
0.077
-0.194
-0.278
0.230
0.078
-0.033
-0.030
-0.020
0.097
0.141
-0.212
-0.161
-0.048
0.168
0.066
-0.076
-0.157
-0.014
0.052
-0.117
-0.089
0.031
-0.132
-0.085
0.262
0.032
-0.496
0.145
0.366
-0.183
-0.227
-0.197
0.049
0.319
-0.277
-0.295
0.164
0.515
-0.140
-0.268
-0.253
-0.024
0.026
-0.137
0.123
-0.010
-0.041
0.157
0.051
-0.118
-0.113
0.002
0.090
-0.224
-0.167
0.098
0.064
0.134
-0.052
-0.171
0.031
-0.230
-0.080
0.191
-0.081
-0.120
0.044
-0.177
-0.275
0.067
0.255
0.056
-0.034
-0.073
-0.098
-0.183
0.053
0.099
0.137
0.023
-0.076
-0.197
-0.029
-0.166
0.265
0.320
0.056
-0.193
-0.329
-0.304
0.157
0.357
-0.051
-0.025
-0.092
-0.030
0.050
-0.100
-0.039
0.055
-0.138
0.020
-0.098
0.010
-0.062
0.045
-0.209
-0.189
0.364
0.607
-0.087
-0.384
-0.121
0.015
-0.130
0.301
0.123
-0.037
-0.083
-0.085
0.084
-0.180
-0.080
-0.184
0.141
-0.000
-0.223
0.076
0.411
-0.177
-0.389
-0.001
0.127
0.135
-0.264
0.085
0.261
-0.032
-0.250
0.006
0.050
0.028
-0.031
-0.152
0.059
-0.048
0.049
0.084
-0.385
-0.014
0.487
-0.109
-0.247
-0.112
0.053
0.089
-0.119
0.088
0.236
0.045
-0.178
-0.206
-0.063
-0.087
-0.086
0.085
0.200
-0.043
-0.660
-0.191
0.766
0.550
-0.363
-0.565
-0.149
0.044
0.219
0.003
0.050
0.013
-0.135
-0.114
0.012
-0.429
0.105
0.330
0.130
0.047
-0.348
-0.195
0.051
-0.192
-0.114
0.159
0.279
0.013
-0.135
-0.163
-0.061
-0.105
0.065
-0.017
0.104
0.124
-0.077
-0.144
-0.000
-0.065
-0.111
-0.144
0.151
0.156
-0.001
-0.085
0.016
-0.078
-0.013
0.020
-0.031
-0.038
-0.119
-0.229
0.073
0.282
-0.197
0.053
0.095
0.111
-0.045
-0.189
-0.156
-0.414
0.220
0.536
-0.251
0.008
-0.039
-0.138
0.035
-0.042
-0.066
-0.205
-0.074
0.060
-0.008
-0.040
0.048
0.083
0.010
-0.029
0.019
-0.037
-0.104
-0.220
-0.206
0.369
0.022
0.231
-0.233
-0.179
0.052
0.009
-0.132
0.018
0.022
-0.233
-0.191
0.311
0.548
0.040
-0.289
-0.261
-0.182
-0.007
0.117
-0.044
0.162
-0.049
-0.103
0.253
0.097
-0.219
-0.214
-0.110
0.006
-0.001
0.040
-0.296
0.189
0.257
-0.200
-0.354
-0.101
0.417
-0.030
-0.373
-0.050
0.177
0.033
-0.083
-0.116
-0.207
-0.094
0.200
0.085
-0.105
0.117
-0.034
-0.015
-0.007
-0.023
0.044
-0.093
-0.064
-0.023
0.026
-0.029
0.116
-0.037
-0.243
-0.319
0.281
-0.069
-0.082
0.613
0.104
-0.450
-0.296
-0.016
0.053
0.100
-0.009
0.092
0.051
-0.072
-0.189
0.084
0.018
-0.081
-0.005
-0.141
-0.040
-0.051
-0.079
0.265
-0.094
-0.222
-0.194
-0.023
0.214
0.078
-0.127
-0.131
-0.005
-0.063
0.183
-0.435
0.333
0.321
-0.006
-0.213
-0.227
-0.114
-0.014
-0.026
0.242
0.129
-0.094
-0.160
-0.013
-0.307
-0.076
0.335
0.164
0.003
-0.496
-0.108
0.082
-0.093
-0.221
0.802
0.383
-0.336
-0.363
-0.180
-0.044
-0.065
0.074
0.068
0.053
0.074
-0.080
-0.130
-0.180
-0.320
-0.197
0.024
0.417
-0.075
-0.104
-0.139
-0.103
-0.156
0.174
0.526
-0.025
-0.217
-0.159
-0.133
0.037
-0.188
-0.056
-0.052
0.423
0.045
-0.300
-0.522
0.484
0.222
-0.156
-0.363
-0.284
0.225
0.193
0.040
-0.004
-0.163
-0.009
0.107
-0.111
-0.090
-0.007
-0.040
-0.051
-0.189
-0.054
-0.022
0.276
-0.463
0.272
0.352
-0.217
-0.162
-0.217
0.020
-0.057
0.112
0.067
-0.097
0.065
0.019
-0.125
-0.106
-0.080
-0.005
-0.059
0.078
0.079
-0.104
-0.031
0.088
-0.003
-0.438
-0.119
-0.133
0.936
0.163
-0.395
-0.235
-0.076
-0.004
-0.024
-0.050
0.013
0.088
-0.079
0.096
0.056
-0.181
-0.132
-0.139
-0.422
0.211
0.512
0.131
-0.123
-0.126
-0.145
-0.131
-0.079
0.113
0.180
-0.126
-0.009
-0.119
-0.264
0.170
0.177
-0.005
-0.123
-0.275
-0.223
0.235
0.570
-0.201
-0.285
-0.266
0.154
-0.107
0.029
0.266
0.051
-0.126
-0.201
0.042
-0.036
-0.166
-0.181
0.275
-0.005
-0.243
0.422
0.050
-0.249
-0.153
-0.074
-0.088
0.056
0.175
-0.027
-0.137
-0.105
0.175
-0.187
-0.077
0.145
-0.033
-0.192
-0.048
-0.014
-0.017
0.110
0.152
-0.122
-0.122
-0.155
-0.354
-0.060
0.216
-0.173
0.509
0.099
0.198
-0.106
-0.148
-0.303
-0.051
-0.037
0.120
0.227
0.239
-0.196
-0.199
-0.073
-0.023
-0.177
-0.049
0.006
0.015
0.121
-0.183
-0.372
0.283
0.277
-0.032
-0.152
-0.110
-0.038
-0.050
0.101
0.043
0.119
-0.144
-0.280
0.089
0.342
-0.102
0.091
-0.227
-0.255
-0.419
0.304
0.351
-0.097
-0.141
-0.009
0.002
-0.098
0.018
0.013
0.105
-0.063
-0.349
0.164
0.314
-0.090
-0.219
-0.095
-0.119
-0.035
-0.046
0.158
-0.096
-0.021
-0.095
-0.298
0.301
0.223
0.018
0.178
-0.417
-0.296
0.297
0.233
-0.032
-0.300
-0.145
0.096
0.117
-0.001
-0.042
-0.152
-0.047
-0.015
0.049
-0.111
-0.135
-0.047
-0.054
-0.061
0.005
-0.166
-0.117
0.218
0.336
-0.153
-0.086
-0.011
-0.065
-0.264
-0.260
0.105
-0.281
0.376
0.741
-0.189
-0.687
-0.351
0.010
0.478
0.485
-0.317
-0.234
-0.119
-0.038
0.033
0.057
0.045
-0.058
-0.165
-0.093
-0.055
-0.217
-0.016
0.325
-0.090
-0.123
-0.159
0.138
0.035
-0.055
-0.244
0.064
0.353
0.027
-0.204
-0.203
-0.058
0.231
0.038
-0.302
0.249
0.113
-0.059
-0.159
-0.197
0.140
-0.182
-0.070
0.170
0.120
-0.233
-0.000
0.017
-0.038
-0.100
-0.018
0.122
-0.093
-0.152
-0.185
0.432
0.059
-0.132
-0.141
-0.096
-0.140
-0.091
0.267
-0.047
0.061
0.201
-0.236
-0.235
-0.052
-0.058
0.032
-0.159
0.130
0.276
-0.246
-0.158
0.122
0.069
-0.081
-0.075
-0.206
0.088
0.111
-0.035
0.227
-0.029
-0.246
-0.002
-0.022
-0.151
-0.323
0.339
0.290
0.005
-0.358
-0.270
-0.330
0.153
0.501
-0.021
-0.161
-0.203
0.085
0.228
-0.135
-0.412
0.186
0.063
-0.090
-0.079
-0.039
0.074
0.006
-0.099
-0.018
0.049
-0.094
-0.225
-0.080
0.222
0.031
-0.396
-0.169
0.599
-0.071
-0.326
-0.026
0.314
-0.275
0.065
0.144
-0.104
-0.089
0.105
-0.099
-0.048
-0.057
-0.079
0.345
-0.085
-0.190
-0.010
-0.081
-0.192
-0.200
0.129
0.126
-0.111
0.070
0.135
-0.120
-0.269
0.070
0.115
-0.091
0.084
-0.013
-0.003
0.007
-0.103
0.007
-0.057
-0.177
0.010
0.111
-0.071
-0.064
-0.446
0.666
0.183
-0.162
-0.237
-0.168
-0.131
0.182
-0.122
0.168
0.385
-0.205
-0.234
0.046
0.096
-0.025
-0.256
0.039
-0.077
0.047
0.020
-0.142
0.019
0.099
-0.191
-0.054
-0.072
-0.130
0.231
0.180
-0.142
-0.003
-0.127
-0.082
0.017
0.079
0.056
-0.102
-0.028
-0.103
0.102
0.237
-0.021
-0.308
-0.310
0.101
0.490
-0.114
-0.323
-0.186
0.305
0.220
-0.026
-0.117
-0.193
-0.284
-0.176
0.342
0.218
-0.020
-0.063
-0.068
-0.142
-0.071
0.034
0.091
0.049
-0.105
0.019
-0.163
-0.052
0.288
-0.052
-0.286
0.224
0.196
-0.149
-0.237
-0.009
0.122
0.029
-0.206
-0.212
0.407
0.334
-0.162
-0.259
-0.114
-0.096
0.026
0.007
-0.126
0.124
0.258
-0.001
-0.349
-0.096
0.238
0.264
-0.188
-0.178
-0.189
-0.247
0.027
0.150
0.319
-0.042
0.072
0.054
-0.206
-0.177
-0.110
-0.012
0.067
0.079
-0.215
-0.210
0.467
0.244
-0.202
-0.100
-0.149
-0.134
-0.045
-0.086
-0.129
0.332
0.054
-0.363
0.362
0.157
-0.197
-0.189
-0.245
0.053
0.169
-0.052
-0.042
0.163
-0.190
0.070
0.144
-0.099
-0.425
0.022
0.445
0.079
-0.277
-0.137
-0.148
-0.082
0.235
-0.073
-0.121
-0.003
-0.052
0.033
0.227
-0.318
-0.059
0.153
-0.082
-0.174
-0.140
-0.087
-0.138
0.103
0.269
0.051
0.002
0.013
-0.047
-0.159
-0.247
-0.040
0.178
0.101
-0.025
-0.014
0.012
-0.167
0.055
-0.140
0.070
-0.056
-0.198
-0.002
0.064
-0.041
-0.089
0.029
-0.065
-0.063
-0.446
0.171
0.605
0.226
-0.393
-0.483
-0.064
0.211
-0.107
-0.034
0.134
0.044
-0.069
0.094
-0.038
-0.295
-0.086
0.311
0.031
-0.084
-0.162
-0.215
-0.182
0.357
-0.051
-0.223
-0.121
0.287
0.066
-0.112
0.247
-0.270
0.023
-0.087
0.028
-0.149
-0.032
-0.030
-0.077
0.167
0.267
-0.126
-0.278
-0.247
0.346
0.098
-0.296
-0.193
-0.200
0.109
0.020
0.095
0.094
-0.195
-0.085
-0.024
-0.073
0.158
0.137
-0.057
-0.228
0.069
-0.345
-0.078
0.278
0.597
-0.042
-0.313
0.022
-0.382
0.036
-0.085
-0.169
0.392
0.207
-0.161
-0.180
-0.093
0.141
-0.145
-0.141
0.158
0.083
-0.037
-0.110
-0.091
0.052
0.045
0.024
0.012
-0.264
-0.184
0.066
0.173
0.042
0.245
-0.090
-0.278
-0.278
-0.153
0.020
0.326
0.044
-0.266
-0.018
-0.019
0.002
-0.047
-0.028
-0.148
0.004
0.406
-0.043
0.090
-0.108
-0.323
-0.180
0.040
0.191
0.119
0.083
-0.216
-0.380
0.598
0.101
-0.245
-0.065
0.071
-0.050
-0.193
-0.089
-0.025
0.206
-0.077
0.277
-0.002
-0.064
-0.018
-0.041
-0.133
-0.065
-0.036
0.078
-0.239
0.054
-0.049
-0.172
0.027
0.121
0.246
0.007
-0.082
0.071
-0.178
-0.043
-0.006
-0.059
-0.035
0.091
0.141
0.061
-0.089
-0.035
-0.021
-0.110
-0.070
-0.022
-0.003
-0.033
0.043
-0.010
-0.027
-0.118
0.072
0.043
-0.131
-0.326
0.324
0.321
-0.022
-0.192
-0.087
-0.163
-0.070
-0.074
-0.125
0.157
0.256
0.097
-0.129
0.005
0.051
-0.321
-0.066
-0.040
0.314
0.132
-0.247
-0.101
-0.036
-0.109
0.007
0.127
-0.020
-0.057
0.039
-0.091
-0.078
0.069
0.094
-0.043
0.061
-0.373
-0.174
0.193
-0.007
-0.013
-0.068
0.068
0.027
-0.132
-0.104
0.020
0.205
-0.370
0.215
0.250
-0.279
-0.159
0.154
0.068
-0.095
0.003
-0.090
-0.019
-0.056
-0.078
-0.028
-0.204
-0.180
0.219
0.259
0.264
-0.113
-0.228
-0.155
-0.095
-0.135
0.137
0.231
0.050
-0.141
-0.158
0.164
0.152
-0.222
-0.411
0.233
0.251
-0.178
-0.131
-0.027
0.114
-0.055
-0.161
-0.134
0.211
-0.011
-0.139
-0.073
0.270
0.073
-0.140
-0.179
-0.133
-0.004
0.009
-0.207
0.088
0.218
0.051
0.079
-0.306
-0.054
0.178
-0.085
-0.063
-0.038
-0.051
-0.081
0.150
0.109
0.006
-0.119
-0.109
-0.046
0.011
0.044
-0.121
-0.166
0.119
-0.139
-0.298
0.515
0.016
-0.149
-0.242
-0.127
0.050
-0.171
0.374
0.207
-0.177
-0.224
0.007
0.079
0.155
-0.052
-0.211
0.039
-0.023
0.036
0.061
-0.203
-0.172
0.042
0.059
0.245
0.033
-0.008
-0.122
-0.470
-0.253
0.309
0.234
-0.251
0.227
-0.044
-0.199
-0.171
0.113
-0.039
-0.032
0.093
-0.368
0.057
0.365
-0.104
-0.150
-0.111
0.070
0.171
-0.234
-0.232
0.302
-0.034
0.014
-0.197
-0.047
0.005
-0.031
-0.002
-0.158
0.073
0.233
-0.158
-0.070
-0.296
-0.362
0.678
0.282
-0.167
-0.187
-0.223
0.059
0.009
-0.107
-0.049
-0.023
-0.005
-0.257
-0.201
0.329
0.233
-0.094
-0.236
-0.175
-0.035
-0.042
-0.039
0.025
-0.099
-0.130
0.110
-0.051
-0.150
0.172
-0.110
-0.306
0.271
0.210
-0.187
-0.322
0.062
0.002
0.181
-0.284
-0.366
0.492
0.212
-0.294
-0.302
-0.223
-0.154
0.287
0.422
0.131
-0.116
-0.445
-0.213
0.106
0.186
-0.084
0.101
-0.118
-0.220
-0.078
0.181
0.150
-0.196
0.075
-0.410
-0.103
0.629
0.095
-0.246
-0.380
-0.169
0.237
0.078
-0.071
-0.080
0.125
0.033
0.062
-0.108
-0.183
-0.278
-0.048
0.400
-0.127
-0.055
0.025
-0.134
-0.075
0.013
-0.039
-0.008
0.065
-0.031
0.009
-0.096
0.089
0.044
-0.081
-0.137
-0.131
-0.138
0.509
0.304
-0.133
-0.712
0.159
0.486
0.121
-0.163
-0.166
-0.218
0.000
0.133
-0.031
0.007
0.045
-0.095
-0.056
-0.109
0.088
-0.109
-0.196
0.116
0.004
0.016
-0.064
-0.159
0.041
-0.050
0.111
-0.010
-0.145
-0.107
0.056
-0.104
0.054
-0.072
-0.021
-0.052
-0.342
0.082
0.426
-0.183
0.039
-0.088
0.025
-0.049
0.071
-0.143
-0.003
0.053
-0.079
0.110
0.046
0.018
-0.126
-0.181
-0.351
0.321
0.229
-0.148
-0.217
0.101
-0.074
0.060
-0.398
-0.017
0.569
0.012
-0.334
-0.231
-0.010
0.072
-0.130
-0.032
0.126
0.096
-0.088
0.001
-0.125
-0.025
-0.086
-0.005
-0.079
-0.058
-0.053
0.091
0.003
-0.001
-0.086
-0.027
0.230
-0.368
0.338
0.163
-0.255
-0.290
-0.034
0.216
0.005
-0.237
0.207
0.244
-0.061
-0.424
-0.052
0.380
-0.319
-0.245
0.213
0.220
-0.199
-0.226
0.150
-0.134
0.353
-0.143
-0.107
0.019
0.081
-0.104
-0.051
0.066
0.049
0.079
0.096
-0.149
-0.119
-0.115
-0.114
-0.021
0.011
0.141
0.083
-0.279
-0.159
0.321
-0.097
-0.065
0.023
0.009
-0.056
-0.052
-0.082
-0.018
0.136
-0.085
-0.113
-0.124
0.021
0.018
-0.349
-0.122
0.280
0.069
0.107
-0.134
-0.075
-0.003
-0.282
-0.271
0.018
0.228
0.267
0.373
-0.097
-0.432
-0.092
0.060
-0.178
0.034
0.208
-0.047
0.004
0.106
-0.227
0.002
-0.146
-0.185
-0.064
-0.080
-0.038
0.125
0.083
-0.146
-0.078
-0.002
-0.009
-0.001
0.056
-0.063
0.004
-0.095
-0.131
-0.101
-0.025
0.361
-0.073
-0.167
-0.384
-0.454
0.346
0.549
0.181
-0.288
-0.115
-0.150
-0.031
-0.092
0.100
0.015
0.063
-0.012
0.048
-0.034
-0.070
-0.065
-0.174
-0.215
-0.108
0.153
-0.311
0.116
0.219
0.175
-0.004
-0.138
-0.010
-0.104
-0.152
-0.026
0.055
0.130
0.036
0.102
0.059
-0.130
0.047
-0.436
0.105
0.164
-0.124
-0.065
0.031
-0.289
0.018
0.169
0.122
-0.099
-0.236
0.104
0.183
-0.058
0.125
-0.142
-0.150
-0.329
-0.032
0.292
0.098
-0.202
-0.102
0.270
-0.048
-0.072
-0.013
-0.003
-0.146
-0.123
-0.066
-0.135
0.205
0.696
-0.039
-0.373
-0.264
-0.015
0.023
-0.063
0.006
-0.112
-0.075
0.174
0.393
-0.204
-0.236
-0.010
-0.037
-0.200
-0.176
0.149
0.130
-0.212
-0.145
-0.010
0.277
-0.209
-0.378
0.142
0.409
0.316
-0.345
-0.259
-0.002
-0.037
-0.052
0.017
-0.047
-0.361
0.433
0.367
0.023
-0.207
-0.276
-0.086
0.229
-0.102
0.049
-0.097
-0.244
-0.069
0.323
0.040
-0.040
-0.204
-0.115
-0.011
0.181
0.102
0.061
-0.502
-0.303
0.420
0.274
0.132
-0.233
-0.590
0.337
0.320
-0.023
-0.130
-0.224
-0.075
0.035
0.071
-0.122
-0.076
0.001
-0.050
-0.063
0.061
0.409
-0.177
-0.302
-0.173
0.047
0.100
0.191
-0.149
-0.173
0.015
0.183
-0.075
-0.085
-0.051
-0.281
0.021
0.321
-0.038
-0.388
-0.091
0.306
-0.125
0.042
0.136
0.062
-0.048
-0.087
-0.106
0.030
-0.052
0.114
0.039
-0.017
-0.195
0.086
-0.076
-0.248
0.472
-0.179
-0.469
0.179
0.322
-0.047
-0.194
0.077
-0.086
-0.007
-0.143
0.089
-0.011
-0.074
-0.021
0.027
-0.068
-0.053
-0.207
-0.030
0.047
-0.436
0.051
0.352
-0.148
0.014
-0.060
0.034
-0.066
-0.196
0.027
-0.077
0.119
0.043
-0.039
-0.100
0.014
-0.118
0.259
-0.106
-0.063
0.055
0.003
-0.039
0.059
-0.016
-0.139
-0.034
0.110
0.046
-0.151
0.054
-0.005
-0.129
-0.102
-0.083
-0.059
0.420
0.117
0.035
-0.463
-0.346
-0.157
0.125
-0.006
0.179
0.474
-0.129
-0.259
-0.150
-0.199
-0.339
0.342
0.280
0.229
0.052
-0.117
-0.324
-0.105
0.109
0.072
-0.045
-0.009
0.059
-0.091
-0.172
0.039
0.170
-0.090
-0.137
0.054
0.068
-0.512
0.242
0.319
-0.160
-0.305
-0.017
0.393
0.071
-0.263
-0.139
-0.019
0.024
0.094
-0.046
0.032
-0.019
-0.170
-0.121
0.284
0.056
-0.062
0.071
-0.074
-0.265
0.038
-0.126
0.119
-0.368
0.152
0.572
-0.196
-0.180
-0.102
0.084
0.167
-0.027
-0.399
0.084
0.164
-0.194
-0.007
0.197
-0.155
-0.067
-0.096
-0.166
0.062
-0.013
-0.075
-0.145
-0.004
-0.101
0.106
0.160
-0.084
-0.048
-0.032
-0.211
-0.107
0.037
0.013
-0.110
0.037
-0.088
-0.049
-0.044
0.050
-0.023
0.231
-0.276
-0.213
-0.112
-0.041
0.469
-0.017
-0.129
-0.022
-0.104
-0.112
0.050
0.032
0.085
-0.096
-0.045
0.086
0.061
0.001
-0.097
-0.183
-0.104
-0.067
-0.289
0.193
0.610
0.164
-0.382
-0.408
-0.452
0.240
0.462
-0.015
-0.301
-0.063
0.281
0.098
0.017
-0.078
-0.054
-0.038
-0.176
-0.290
-0.077
0.367
0.213
-0.217
0.005
0.010
-0.099
-0.075
0.061
-0.086
0.203
-0.265
0.020
0.344
-0.006
-0.214
-0.144
0.039
-0.129
0.041
0.253
-0.039
-0.028
-0.035
-0.208
0.167
0.269
-0.067
-0.235
0.038
0.238
-0.026
-0.057
0.007
-0.197
0.045
-0.005
-0.091
-0.244
0.025
0.182
0.420
0.051
-0.034
-0.157
-0.283
-0.172
-0.075
0.021
0.038
0.080
-0.042
-0.024
-0.054
-0.175
-0.175
0.017
0.060
-0.072
-0.108
-0.061
-0.014
-0.021
-0.001
0.030
0.043
-0.051
-0.125
-0.071
0.143
-0.030
-0.050
-0.043
-0.029
-0.153
-0.081
0.049
0.102
-0.103
0.092
0.234
0.005
-0.334
-0.108
0.087
0.035
-0.084
0.121
-0.038
-0.049
-0.100
-0.054
-0.032
-0.138
-0.075
0.027
-0.152
-0.027
0.277
-0.092
-0.331
-0.312
0.299
-0.513
0.091
0.808
-0.009
-0.214
-0.302
-0.257
0.263
0.079
-0.193
-0.296
0.313
0.184
-0.164
-0.177
-0.195
0.180
-0.126
0.071
-0.035
0.072
-0.086
-0.047
0.000
0.096
0.058
-0.023
-0.150
0.181
-0.055
0.017
-0.176
-0.072
0.159
-0.017
-0.004
0.004
-0.035
-0.007
-0.131
-0.032
-0.043
0.024
-0.143
0.495
0.243
-0.220
-0.211
-0.233
-0.181
0.043
0.107
0.124
0.076
-0.035
-0.358
0.143
0.041
-0.039
-0.019
0.102
-0.126
-0.118
-0.307
-0.506
0.101
0.893
0.001
-0.599
0.129
0.170
-0.199
-0.096
0.034
-0.006
-0.041
0.090
0.037
-0.207
0.015
0.014
0.288
-0.052
-0.173
-0.098
0.037
-0.078
-0.109
-0.099
-0.147
0.003
0.067
-0.023
0.006
0.001
-0.041
-0.024
-0.072
0.133
-0.122
-0.169
-0.077
-0.040
0.041
0.434
0.135
-0.406
-0.216
-0.039
0.067
0.133
-0.098
-0.038
0.062
-0.158
0.078
-0.118
-0.086
0.116
-0.102
-0.098
-0.211
-0.141
0.034
0.200
-0.204
-0.154
0.086
0.626
-0.225
-0.269
-0.502
-0.116
0.314
0.043
0.103
0.029
0.072
0.037
-0.160
-0.002
-0.101
-0.112
0.158
0.037
-0.348
0.257
-0.035
-0.513
0.302
0.724
0.091
-0.503
-0.368
-0.548
0.055
0.805
0.300
-0.330
-0.100
-0.006
-0.113
-0.217
0.085
-0.322
0.202
0.389
0.118
-0.115
-0.379
-0.244
0.110
0.161
-0.049
-0.106
-0.055
0.131
-0.052
0.077
0.193
-0.143
-0.306
-0.111
0.032
0.314
0.132
-0.241
-0.129
0.164
0.075
-0.158
0.018
-0.065
0.187
-0.051
-0.201
-0.091
0.080
0.021
-0.132
0.000
-0.340
0.351
0.332
-0.127
-0.221
-0.209
0.029
0.117
0.013
0.016
-0.095
-0.268
0.239
0.173
-0.228
0.003
0.016
-0.319
-0.266
0.301
0.531
-0.133
-0.266
-0.129
-0.286
0.245
0.358
-0.055
-0.415
0.187
0.367
-0.059
-0.145
-0.172
-0.157
-0.076
-0.189
-0.059
0.483
0.119
-0.049
-0.312
-0.088
0.092
-0.059
-0.012
-0.003
-0.060
-0.234
-0.708
0.610
0.924
-0.261
-0.581
-0.040
-0.010
-0.018
0.029
0.167
-0.010
-0.017
0.088
-0.024
-0.157
-0.268
0.425
0.133
-0.185
-0.166
-0.244
-0.186
0.084
0.118
-0.017
0.228
0.115
-0.231
-0.049
-0.166
0.043
-0.031
0.083
-0.028
-0.076
-0.104
0.275
-0.033
-0.324
0.071
0.323
-0.113
-0.109
-0.230
-0.106
-0.350
0.304
0.468
-0.009
-0.218
-0.310
-0.099
0.104
0.191
-0.111
-0.109
-0.087
0.216
0.081
-0.024
-0.193
-0.337
0.029
0.210
-0.004
-0.059
-0.032
-0.059
0.033
0.065
-0.109
-0.065
0.044
0.023
-0.216
0.262
0.045
-0.030
0.036
0.078
-0.131
0.063
-0.009
-0.245
-0.082
-0.136
0.122
0.005
-0.061
-0.464
0.242
0.210
-0.109
0.469
-0.081
-0.286
-0.452
-0.015
0.236
-0.072
-0.053
-0.037
0.509
0.018
-0.303
-0.277
-0.168
0.055
0.275
0.047
-0.093
-0.087
-0.107
-0.017
0.047
0.006
0.080
0.035
-0.021
-0.087
-0.215
0.035
0.223
-0.082
-0.208
0.269
0.125
-0.202
-0.135
-0.135
-0.043
-0.023
-0.018
0.322
0.100
-0.185
-0.237
-0.337
0.066
0.486
0.277
-0.188
-0.295
-0.117
0.095
0.046
-0.081
-0.047
0.014
-0.085
0.015
0.221
-0.074
-0.168
-0.017
-0.086
-0.044
-0.114
-0.094
-0.171
-0.134
0.241
0.126
-0.101
-0.057
0.091
0.035
-0.041
-0.200
-0.388
0.379
0.464
-0.196
-0.070
-0.205
-0.094
-0.050
0.013
0.000
-0.046
-0.011
0.075
-0.191
-0.055
-0.042
-0.158
0.004
0.109
-0.102
-0.130
0.060
-0.049
-0.128
0.039
0.173
-0.072
-0.057
-0.166
0.130
-0.022
-0.058
-0.088
-0.075
0.208
0.029
-0.123
-0.179
-0.509
0.073
0.723
-0.054
0.221
-0.579
-0.122
0.043
-0.107
-0.125
0.092
0.155
-0.074
0.015
-0.097
-0.088
-0.074
-0.026
-0.033
-0.061
-0.146
0.023
-0.042
-0.059
-0.121
-0.125
0.328
0.127
-0.093
-0.095
-0.189
-0.326
0.352
0.329
-0.110
-0.287
0.071
-0.065
0.076
-0.048
-0.051
0.048
-0.063
-0.015
-0.038
0.018
-0.037
-0.114
-0.137
0.312
0.136
-0.194
-0.286
-0.187
0.127
0.259
-0.057
-0.137
-0.044
-0.147
-0.069
0.158
0.164
-0.156
-0.352
0.532
0.282
-0.370
-0.281
-0.122
-0.118
0.192
0.075
0.133
0.072
-0.082
-0.067
0.049
-0.097
-0.063
-0.064
0.070
0.147
-0.128
-0.200
-0.170
-0.183
0.076
0.241
0.003
-0.015
-0.295
-0.019
0.271
-0.087
-0.104
-0.158
-0.145
0.120
0.271
0.094
-0.119
0.040
-0.095
-0.023
0.035
-0.419
0.113
0.592
-0.070
-0.447
-0.256
0.109
0.220
0.003
-0.109
0.084
-0.058
-0.098
0.089
-0.045
-0.248
0.124
-0.023
0.310
-0.076
-0.450
-0.136
0.192
-0.036
-0.339
0.165
-0.119
0.448
-0.250
-0.155
0.212
-0.011
-0.297
-0.065
0.221
0.031
-0.013
-0.112
-0.188
-0.079
0.063
-0.024
-0.060
-0.123
0.034
0.307
0.029
-0.167
-0.166
0.075
-0.057
-0.047
0.071
0.022
-0.150
0.112
0.087
-0.132
-0.062
-0.484
0.159
0.399
0.161
0.006
-0.149
-0.287
-0.124
0.038
-0.035
-0.057
0.011
0.179
0.110
-0.052
0.069
-0.070
-0.163
-0.365
-0.161
0.276
0.068
-0.075
-0.002
-0.116
-0.249
0.145
0.275
0.200
-0.237
-0.163
-0.115
-0.185
0.017
0.240
-0.046
-0.112
0.235
0.135
-0.150
-0.280
-0.514
0.145
0.408
-0.077
-0.034
-0.103
-0.127
-0.201
0.222
0.085
-0.038
-0.078
0.141
-0.043
-0.097
-0.048
-0.078
0.094
0.004
-0.116
0.094
-0.113
0.076
-0.078
-0.019
0.012
0.061
-0.155
-0.149
-0.178
-0.197
0.447
0.171
-0.026
-0.066
-0.068
-0.094
-0.149
0.045
0.029
-0.077
-0.036
-0.404
0.278
0.377
-0.071
-0.089
-0.233
-0.120
-0.070
-0.020
-0.028
0.107
-0.147
-0.030
0.274
0.090
-0.144
-0.225
-0.155
0.154
-0.140
0.007
-0.006
-0.032
0.241
0.155
-0.230
-0.262
0.026
0.025
-0.030
0.085
0.218
-0.106
-0.118
-0.091
-0.030
-0.114
-0.093
-0.130
0.299
0.151
-0.023
-0.187
-0.017
0.058
-0.015
0.058
-0.016
-0.025
0.014
-0.165
0.072
-0.066
-0.083
0.195
0.059
-0.254
-0.120
-0.136
0.006
-0.176
-0.126
0.378
0.101
-0.069
-0.094
-0.271
-0.032
0.306
-0.179
-0.200
-0.190
-0.232
0.552
0.211
-0.178
0.038
-0.167
-0.196
-0.175
0.464
0.181
-0.303
-0.038
0.050
-0.069
-0.167
-0.089
0.092
-0.066
0.330
0.077
-0.317
-0.395
-0.156
0.313
0.340
0.036
-0.082
-0.285
-0.220
0.139
0.138
0.026
-0.085
-0.204
-0.052
0.132
-0.001
-0.268
0.294
0.151
-0.195
-0.126
-0.132
-0.014
0.051
-0.230
-0.396
0.660
0.413
-0.152
-0.399
0.087
0.073
-0.022
-0.072
0.047
-0.076
-0.126
0.328
0.025
-0.190
-0.329
0.098
0.215
0.061
-0.351
0.059
-0.029
-0.280
-0.038
0.053
0.005
-0.040
0.341
-0.361
0.063
0.207
-0.078
-0.139
-0.178
-0.094
0.171
0.072
0.046
0.058
-0.080
-0.157
0.088
-0.102
-0.032
-0.032
0.121
0.098
-0.052
-0.052
-0.051
-0.007
-0.095
-0.085
-0.011
0.004
0.090
0.051
0.025
-0.112
-0.330
0.441
0.055
-0.426
-0.226
0.236
-0.035
0.023
-0.182
-0.196
-0.429
0.217
0.801
-0.009
-0.343
-0.240
0.004
0.029
0.018
-0.070
-0.097
-0.058
0.176
0.115
0.077
-0.123
-0.228
-0.074
-0.009
0.103
-0.033
-0.187
-0.100
-0.053
0.303
0.093
-0.375
0.185
0.118
-0.044
-0.138
-0.208
0.026
0.277
-0.085
-0.080
-0.150
0.046
-0.146
0.077
0.083
0.103
-0.235
-0.179
-0.090
0.020
-0.009
-0.132
0.018
-0.158
0.343
0.032
-0.112
0.086
-0.039
-0.094
-0.174
-0.073
0.212
-0.056
0.011
0.019
-0.081
-0.142
-0.052
-0.031
0.100
-0.322
0.219
0.400
-0.105
-0.229
-0.263
-0.179
0.262
-0.274
0.006
0.491
-0.124
-0.209
-0.026
-0.067
-0.043
0.032
-0.019
-0.060
-0.067
0.070
-0.022
-0.129
-0.068
-0.017
0.349
-0.056
-0.260
-0.160
-0.020
0.013
-0.065
0.061
0.216
0.035
-0.151
-0.082
-0.060
0.012
-0.041
0.080
-0.085
-0.328
0.116
0.198
-0.077
-0.054
-0.039
-0.044
-0.333
-0.225
0.442
0.159
0.030
-0.085
-0.055
-0.004
-0.107
-0.228
0.246
0.168
0.116
-0.182
-0.171
-0.139
-0.062
0.094
0.015
-0.027
0.023
0.038
-0.215
-0.135
0.095
-0.045
-0.105
-0.023
-0.044
-0.006
0.131
0.008
-0.108
0.004
-0.007
-0.086
-0.063
0.342
-0.019
-0.114
-0.093
-0.400
-0.005
0.056
0.131
0.222
0.237
-0.258
-0.352
-0.025
0.131
0.160
-0.011
0.064
-0.198
-0.169
0.024
-0.131
-0.297
0.081
0.703
0.149
-0.276
-0.311
-0.219
-0.092
0.158
0.073
0.009
-0.098
0.142
-0.082
-0.096
0.008
-0.048
0.092
-0.044
-0.207
0.047
0.157
-0.094
-0.025
-0.026
-0.067
-0.127
0.002
0.213
0.023
-0.016
-0.069
-0.145
0.072
-0.146
-0.063
0.076
0.068
-0.060
0.146
-0.353
0.231
0.179
-0.209
-0.247
0.088
-0.321
0.583
-0.039
0.063
-0.067
-0.201
-0.134
0.081
0.210
0.075
-0.158
-0.075
-0.100
0.019
-0.014
-0.090
0.006
-0.266
-0.108
0.481
0.197
-0.295
-0.312
0.049
0.233
0.059
-0.271
0.190
0.095
0.075
0.074
-0.274
-0.170
-0.067
0.120
0.085
0.026
-0.136
0.096
-0.030
-0.016
-0.138
-0.163
-0.007
-0.060
0.132
-0.024
0.018
-0.037
-0.187
-0.209
0.309
0.157
0.128
-0.111
-0.108
-0.194
-0.066
0.107
0.180
0.034
-0.292
0.079
0.350
-0.089
-0.306
-0.070
-0.055
-0.058
0.006
0.288
0.038
-0.148
-0.131
-0.147
0.043
0.118
-0.030
0.185
-0.122
-0.024
-0.035
-0.089
-0.271
0.207
0.153
0.039
-0.050
0.010
-0.197
-0.083
0.051
0.051
-0.199
-0.021
0.088
0.005
-0.191
-0.034
0.084
-0.132
0.464
0.292
-0.280
-0.282
-0.124
-0.063
-0.045
0.272
0.035
0.047
-0.046
-0.242
0.015
-0.030
-0.091
0.003
-0.040
-0.138
-0.045
-0.205
0.192
0.316
0.094
-0.069
-0.142
-0.116
-0.179
-0.043
0.121
0.147
-0.075
-0.084
-0.169
0.004
0.095
0.173
-0.098
-0.178
-0.014
-0.083
-0.296
0.362
0.395
-0.222
-0.247
-0.160
0.111
0.106
0.029
-0.178
0.048
0.197
0.263
-0.201
-0.197
-0.128
-0.017
-0.008
0.009
-0.063
-0.159
0.085
0.008
-0.187
-0.041
0.010
-0.092
0.302
-0.004
-0.301
-0.084
0.253
0.140
-0.108
-0.186
0.015
0.130
0.030
-0.320
-0.170
0.549
-0.003
-0.085
-0.040
-0.093
-0.187
-0.097
-0.025
0.023
-0.058
-0.044
0.365
0.150
-0.244
-0.216
-0.112
-0.130
-0.050
0.310
0.458
-0.183
-0.465
-0.069
0.198
0.069
-0.033
-0.009
-0.023
0.183
-0.034
-0.139
0.024
-0.092
-0.092
0.134
-0.138
0.075
0.220
-0.133
-0.188
-0.083
0.008
-0.083
0.175
0.141
-0.252
-0.288
0.079
0.074
0.009
-0.252
-0.061
0.432
0.236
-0.231
-0.135
-0.103
0.083
-0.204
-0.217
0.062
0.265
-0.022
0.044
-0.111
0.168
0.028
-0.042
-0.150
-0.209
0.007
0.001
-0.032
0.012
-0.131
0.443
0.275
-0.232
-0.575
0.000
0.163
-0.100
-0.374
0.361
0.292
-0.091
-0.041
0.033
-0.240
-0.024
-0.027
-0.074
0.035
0.017
0.035
-0.015
-0.085
-0.086
-0.093
-0.131
0.155
0.288
-0.149
-0.211
0.059
-0.166
0.186
-0.161
0.232
-0.246
-0.192
-0.092
0.552
0.060
-0.218
-0.138
-0.060
-0.161
-0.012
0.010
0.208
-0.076
-0.129
-0.059
-0.067
0.022
0.156
-0.067
-0.130
-0.064
0.014
0.108
-0.171
-0.143
-0.113
0.113
0.074
0.372
0.225
-0.391
-0.451
-0.078
0.313
0.362
-0.266
-0.389
0.288
0.093
-0.169
-0.033
-0.018
-0.104
0.073
-0.046
0.019
0.014
0.075
-0.141
-0.006
0.040
-0.137
-0.270
0.290
0.183
0.012
-0.161
-0.128
-0.189
-0.025
0.026
0.095
0.025
0.053
0.058
-0.123
-0.050
-0.139
-0.337
0.023
-0.073
0.645
0.070
-0.285
-0.174
-0.090
0.047
-0.058
0.018
0.059
0.069
0.042
0.016
-0.044
0.014
-0.094
-0.099
-0.049
-0.098
-0.089
0.009
0.001
-0.102
-0.037
0.244
-0.066
-0.228
-0.137
0.145
0.105
-0.220
0.183
0.125
-0.093
-0.088
-0.102
-0.062
-0.170
0.137
-0.002
0.204
0.078
-0.187
-0.038
-0.160
-0.287
0.260
0.048
-0.169
-0.091
0.006
-0.313
0.208
0.112
-0.291
0.052
0.224
0.090
-0.184
-0.150
-0.010
-0.079
0.003
0.055
0.048
-0.090
0.137
-0.054
-0.040
-0.036
-0.005
-0.134
-0.116
-0.125
0.301
0.035
-0.150
-0.068
-0.042
-0.444
0.266
0.207
0.228
-0.220
-0.246
-0.184
0.055
0.139
0.013
-0.036
-0.073
0.104
0.078
-0.054
-0.543
0.148
0.438
0.169
-0.313
-0.222
0.085
0.080
-0.018
-0.025
0.023
0.013
-0.146
-0.078
0.359
0.142
-0.037
-0.202
-0.087
-0.210
-0.028
0.060
0.056
0.082
-0.095
-0.060
0.138
-0.097
-0.158
-0.051
-0.006
-0.118
-0.178
0.218
0.070
-0.117
-0.184
-0.298
0.152
0.337
0.327
-0.384
-0.427
0.389
0.034
-0.055
0.011
-0.076
-0.099
0.047
0.167
0.068
-0.003
-0.095
-0.189
0.010
0.111
0.134
-0.114
-0.146
-0.122
0.010
-0.525
-0.173
0.786
0.336
-0.228
-0.280
-0.191
-0.025
-0.022
-0.150
0.393
0.243
0.002
-0.118
-0.107
-0.103
-0.080
-0.001
-0.098
0.143
0.063
-0.196
-0.288
0.082
0.032
0.007
-0.023
-0.034
-0.046
0.039
-0.281
0.157
0.248
-0.070
-0.134
-0.115
0.148
-0.276
0.167
0.055
-0.049
0.136
0.017
-0.289
-0.025
-0.098
-0.006
-0.132
0.111
0.122
-0.117
0.015
0.025
-0.394
-0.267
0.526
0.263
-0.192
-0.155
-0.038
-0.057
0.024
0.033
0.021
0.051
0.027
-0.139
-0.004
-0.107
-0.070
0.136
-0.087
0.046
0.147
-0.137
-0.192
-0.104
-0.088
-0.076
0.145
0.184
0.159
-0.091
-0.148
-0.320
-0.138
0.045
0.106
0.164
-0.096
-0.228
0.159
-0.009
-0.041
-0.099
-0.112
0.029
-0.061
0.132
-0.102
-0.266
0.214
0.162
-0.024
-0.309
-0.229
0.057
0.343
0.256
-0.146
-0.259
-0.104
-0.092
0.033
0.132
-0.017
-0.096
0.003
-0.172
-0.181
-0.095
0.081
0.391
-0.088
-0.243
-0.157
0.061
-0.031
-0.015
-0.050
-0.319
-0.130
0.622
0.372
-0.289
-0.205
-0.048
-0.205
-0.262
0.338
-0.057
0.010
0.238
-0.186
-0.190
0.057
0.162
-0.148
-0.066
0.042
-0.131
-0.079
-0.017
0.056
-0.063
0.059
-0.046
0.057
0.019
-0.094
-0.072
-0.051
-0.082
-0.242
0.154
0.379
-0.122
-0.419
0.073
0.293
0.143
-0.100
-0.110
-0.109
-0.010
0.002
0.015
-0.003
-0.048
-0.117
-0.157
-0.027
0.020
-0.080
0.068
-0.039
-0.094
0.082
-0.090
-0.171
0.356
0.040
-0.328
-0.105
0.148
0.037
-0.186
-0.133
0.423
0.114
-0.053
-0.236
-0.148
0.152
-0.042
0.070
0.152
0.028
-0.044
-0.317
0.150
0.110
-0.060
-0.070
-0.092
-0.098
0.017
0.045
0.099
-0.080
-0.038
-0.167
0.076
0.076
-0.148
-0.075
0.133
-0.038
-0.192
-0.037
-0.128
-0.204
0.225
0.234
-0.202
-0.128
0.074
0.013
-0.043
-0.094
0.112
0.060
-0.148
0.091
-0.223
-0.042
0.164
0.091
-0.069
-0.100
-0.119
-0.119
-0.078
0.037
0.005
-0.168
-0.009
0.081
0.159
-0.314
-0.278
0.247
0.509
0.028
-0.191
-0.342
-0.018
0.064
-0.116
0.145
-0.072
-0.015
-0.035
-0.012
-0.085
-0.016
-0.030
-0.140
0.057
0.116
-0.119
-0.130
-0.094
-0.075
-0.119
-0.116
0.212
0.181
-0.069
-0.034
-0.239
0.219
0.323
-0.194
-0.229
0.033
-0.073
0.032
0.093
-0.009
-0.187
0.175
0.006
-0.304
-0.340
-0.058
0.282
-0.009
0.055
0.143
-0.104
-0.166
-0.169
-0.036
0.128
0.068
0.033
0.018
-0.084
0.015
-0.057
0.002
0.083
-0.091
-0.025
-0.020
-0.124
-0.079
0.125
-0.298
-0.176
0.273
0.357
0.066
-0.221
-0.382
-0.132
0.089
0.400
-0.146
-0.086
0.090
-0.048
-0.086
-0.065
0.012
0.092
0.198
-0.091
-0.088
-0.081
-0.090
-0.020
-0.087
-0.188
0.119
0.224
-0.056
-0.154
-0.169
-0.009
-0.071
-0.090
0.096
0.204
0.100
-0.067
-0.182
-0.144
0.082
-0.221
-0.022
0.173
-0.185
0.101
-0.108
0.016
0.010
-0.042
-0.126
0.112
0.035
-0.099
-0.116
0.053
0.145
-0.080
0.091
-0.099
-0.063
0.019
0.093
-0.279
-0.021
0.189
0.060
-0.282
-0.204
0.186
-0.029
-0.087
0.091
-0.100
-0.049
-0.014
0.013
-0.075
0.078
-0.149
0.001
0.205
-0.280
-0.253
0.058
0.287
0.072
-0.099
0.041
-0.240
-0.219
-0.146
0.280
0.054
-0.020
-0.050
0.036
0.127
-0.224
-0.185
-0.069
-0.031
-0.009
-0.073
0.039
0.007
-0.118
-0.002
0.444
-0.150
-0.177
0.018
-0.032
-0.182
-0.034
0.073
0.077
-0.033
-0.087
-0.268
-0.025
0.147
0.110
0.086
-0.287
-0.050
-0.162
-0.079
-0.035
0.115
-0.012
0.000
0.014
-0.008
0.087
-0.031
-0.182
-0.199
-0.145
0.145
0.245
0.184
-0.297
-0.164
0.015
0.127
0.048
-0.083
-0.064
0.035
-0.041
-0.162
-0.212
0.147
0.283
-0.206
-0.288
-0.222
0.063
0.236
0.033
-0.113
-0.120
-0.139
0.208
0.245
-0.045
-0.270
-0.161
0.413
-0.165
0.083
0.040
-0.130
-0.025
-0.106
0.039
0.029
-0.112
-0.308
0.534
0.353
-0.151
-0.187
-0.269
-0.300
0.086
0.182
-0.035
-0.097
0.225
-0.033
-0.006
-0.096
-0.060
-0.079
-0.008
-0.004
-0.015
-0.103
0.036
0.080
-0.028
0.043
-0.365
-0.305
0.534
-0.006
0.220
-0.141
-0.267
-0.184
-0.035
0.232
0.143
0.364
-0.269
-0.346
-0.409
0.379
0.432
-0.133
-0.067
-0.235
-0.097
-0.117
-0.018
0.194
0.096
-0.235
0.091
0.029
0.014
-0.022
0.069
-0.019
-0.067
-0.020
-0.010
0.049
0.127
-0.205
-0.030
-0.185
-0.285
-0.006
0.319
0.142
-0.111
-0.108
-0.301
-0.390
0.555
0.433
-0.170
-0.373
-0.396
-0.122
0.230
0.205
-0.052
0.055
-0.180
0.197
0.043
-0.164
-0.075
-0.118
-0.108
-0.107
0.072
0.082
-0.057
0.137
-0.045
-0.012
-0.169
-0.176
0.212
0.073
-0.017
-0.101
-0.255
-0.105
0.154
0.065
0.204
-0.157
-0.302
-0.425
0.238
0.552
0.109
-0.366
-0.206
0.121
-0.078
-0.351
0.264
0.268
0.060
-0.204
-0.108
-0.035
-0.104
-0.051
0.006
-0.032
-0.091
0.034
-0.000
-0.018
0.113
-0.058
-0.095
-0.024
-0.125
-0.109
-0.260
0.389
-0.182
-0.127
0.277
-0.147
-0.355
0.170
0.298
0.034
-0.007
-0.342
-0.194
0.062
-0.029
-0.164
0.099
0.188
0.162
-0.128
-0.278
-0.009
0.136
-0.143
-0.039
-0.157
0.180
0.099
0.005
-0.075
-0.051
-0.088
-0.094
0.057
-0.028
-0.174
0.217
-0.104
0.087
0.063
-0.126
0.018
-0.237
-0.082
0.177
-0.116
-0.032
0.086
0.280
0.032
-0.246
-0.090
-0.093
-0.035
-0.069
-0.086
0.033
-0.010
0.009
-0.001
-0.053
-0.024
-0.099
-0.215
-0.031
0.398
-0.023
-0.078
-0.179
-0.253
0.184
0.213
-0.040
-0.005
-0.087
-0.127
-0.048
-0.087
0.328
0.113
0.002
-0.190
-0.285
-0.188
-0.168
0.260
0.650
-0.029
-0.216
-0.331
-0.012
0.094
-0.115
0.324
0.112
-0.045
-0.213
-0.304
0.396
0.103
-0.168
-0.009
-0.030
-0.075
-0.028
-0.044
-0.041
0.041
-0.062
-0.014
-0.033
-0.000
-0.034
-0.125
0.187
-0.100
-0.097
0.043
-0.024
-0.063
0.072
0.144
-0.038
-0.120
-0.242
-0.287
0.320
0.200
0.211
0.060
-0.185
-0.430
-0.160
0.407
0.003
-0.090
0.230
-0.220
0.040
0.110
-0.113
-0.118
-0.124
-0.018
0.247
-0.039
-0.129
-0.088
-0.298
-0.040
0.143
-0.112
0.089
0.065
0.086
-0.105
-0.060
-0.122
-0.106
0.112
-0.156
-0.075
0.091
0.027
0.022
-0.194
-0.273
0.199
0.216
-0.123
-0.768
0.012
0.390
-0.058
-0.049
0.191
-0.044
-0.100
-0.162
0.066
-0.027
-0.081
-0.009
0.017
0.007
-0.152
0.085
0.100
-0.273
-0.171
-0.065
0.054
-0.061
-0.105
0.074
0.085
-0.097
-0.043
-0.072
-0.142
0.081
0.083
-0.203
-0.228
0.186
0.375
-0.221
-0.115
-0.109
-0.202
-0.073
0.161
0.153
-0.207
-0.728
0.713
0.488
-0.338
-0.193
0.148
-0.137
0.041
0.034
-0.004
-0.024
-0.084
-0.021
-0.030
0.109
0.032
-0.275
0.086
0.011
-0.022
-0.137
-0.197
0.124
-0.207
0.088
0.337
0.103
-0.169
-0.096
0.006
-0.034
0.111
-0.023
-0.022
0.011
0.010
-0.120
-0.038
-0.418
-0.169
0.545
0.372
0.110
-0.231
-0.250
-0.076
-0.044
-0.043
0.064
0.255
-0.006
-0.024
-0.008
-0.068
-0.075
-0.034
0.006
-0.037
0.000
0.278
-0.093
-0.010
-0.198
-0.029
-0.021
-0.129
0.052
0.122
-0.034
0.096
-0.013
-0.317
0.022
-0.055
-0.016
0.535
-0.157
-0.190
0.187
-0.254
-0.197
0.076
-0.039
0.023
0.270
0.072
-0.138
-0.225
-0.134
-0.012
-0.230
0.068
0.017
0.031
-0.085
-0.077
0.200
0.174
-0.086
-0.159
-0.055
-0.042
-0.053
0.072
0.111
-0.095
-0.085
-0.375
-0.066
0.414
0.423
-0.251
-0.268
-0.218
-0.346
0.466
0.468
-0.199
-0.485
-0.206
0.193
-0.156
-0.016
0.513
0.163
-0.203
-0.199
-0.143
-0.111
-0.073
-0.033
0.062
0.045
-0.273
-0.116
0.439
0.193
-0.165
-0.414
-0.105
0.146
0.138
-0.023
-0.206
0.117
0.023
-0.131
0.122
0.069
-0.073
-0.097
-0.150
0.035
-0.110
0.077
0.029
-0.017
-0.097
-0.010
0.220
-0.159
-0.159
0.005
-0.058
0.105
0.049
-0.136
0.018
0.065
-0.150
0.102
0.119
-0.179
-0.224
0.124
-0.040
-0.046
-0.133
-0.133
0.490
-0.043
0.007
0.123
-0.248
-0.095
0.025
-0.250
-0.014
0.747
-0.007
-0.351
-0.188
-0.216
0.013
0.078
-0.040
0.070
-0.001
-0.011
0.009
-0.068
0.074
0.055
-0.095
-0.052
-0.054
-0.173
0.072
0.141
0.127
-0.231
-0.139
0.055
-0.132
0.192
0.026
-0.407
0.125
0.416
-0.027
-0.209
-0.131
-0.094
-0.227
-0.075
0.040
0.365
0.133
-0.030
-0.169
-0.087
-0.059
-0.110
0.001
-0.003
-0.035
0.250
0.086
-0.077
-0.219
-0.172
-0.002
0.172
-0.091
-0.161
0.174
-0.236
-0.261
-0.082
0.472
-0.016
-0.285
-0.293
0.514
0.098
-0.129
-0.289
0.009
0.090
-0.010
-0.001
-0.081
-0.142
-0.015
-0.047
-0.028
0.045
0.241
-0.080
-0.408
-0.031
0.170
0.002
0.030
-0.054
-0.168
-0.103
0.133
-0.378
-0.013
0.560
0.100
0.087
-0.284
-0.475
-0.203
0.348
0.265
0.158
-0.142
-0.316
0.166
0.203
-0.082
-0.246
-0.168
-0.033
0.014
-0.040
0.039
-0.081
0.151
0.093
-0.092
-0.113
-0.060
-0.108
-0.013
0.026
0.010
0.042
0.049
-0.019
0.006
0.058
-0.047
-0.428
0.043
0.378
0.015
-0.349
0.313
-0.030
-0.112
-0.177
-0.169
0.266
-0.021
-0.258
-0.102
0.124
0.091
-0.010
-0.075
-0.002
0.053
0.105
-0.210
-0.176
0.216
-0.101
0.041
-0.153
0.162
0.153
-0.149
-0.207
-0.178
0.140
-0.151
0.161
0.279
-0.106
-0.122
-0.074
-0.030
-0.215
-0.055
-0.069
0.184
0.172
0.019
-0.108
0.086
-0.180
-0.216
-0.038
-0.036
-0.123
0.000
0.048
0.047
0.058
0.067
-0.208
-0.150
0.206
-0.026
-0.025
-0.134
-0.075
-0.108
0.113
-0.117
-0.547
0.630
0.527
-0.396
-0.157
-0.124
-0.007
0.115
-0.126
-0.091
0.090
-0.040
-0.147
0.105
0.171
-0.067
-0.253
-0.182
-0.056
-0.224
-0.276
0.277
0.611
0.076
-0.546
-0.418
0.336
0.511
-0.114
-0.269
-0.180
-0.097
0.209
-0.065
0.242
-0.052
-0.196
-0.082
0.243
-0.047
-0.171
-0.126
-0.062
0.048
-0.372
-0.019
0.597
0.021
-0.243
-0.258
-0.097
0.021
0.080
-0.027
-0.239
-0.297
0.199
0.105
0.019
0.320
-0.037
-0.439
-0.313
0.308
0.115
-0.103
0.024
0.073
-0.255
0.129
0.333
-0.184
-0.026
-0.154
-0.170
-0.073
0.034
-0.187
-0.120
0.071
0.017
-0.077
0.178
-0.216
-0.229
0.143
0.132
-0.170
-0.097
-0.061
-0.103
0.095
0.143
-0.035
-0.196
-0.093
-0.062
0.188
-0.069
0.028
-0.046
-0.084
-0.102
-0.053
0.296
-0.086
-0.122
-0.212
