0.035
0.004
-0.010
0.022
0.006
0.079
-0.064
-0.015
0.176
-0.076
0.052
-0.007
-0.002
0.009
0.035
-0.002
-0.016
0.159
-0.100
-0.034
-0.004
0.119
-0.104
-0.005
0.046
-0.034
0.021
0.062
0.036
-0.018
0.056
0.060
0.044
0.039
-0.033
-0.039
0.082
0.021
-0.029
0.011
0.105
0.100
-0.018
0.472
0.154
-0.256
-0.643
-0.275
0.050
0.309
0.328
0.121
-0.024
-0.077
-0.114
-0.073
-0.056
0.043
0.009
0.114
0.139
0.010
0.178
0.090
0.092
0.067
0.008
0.025
0.001
-0.022
-0.006
0.098
-0.068
0.015
0.003
-0.023
-0.021
0.044
0.126
-0.024
0.044
-0.044
0.099
-0.030
0.103
-0.025
-0.028
0.034
0.023
0.034
0.071
0.053
-0.022
-0.035
-0.065
0.005
0.084
-0.034
0.109
0.116
-0.001
0.005
-0.025
0.044
-0.003
-0.037
0.094
0.012
0.001
-0.120
0.045
-0.019
0.103
0.087
-0.039
-0.021
-0.012
0.137
0.077
-0.086
0.045
0.016
0.070
-0.004
0.073
0.029
-0.004
0.005
0.014
-0.062
0.001
0.166
0.066
-0.011
-0.002
-0.017
-0.032
0.002
0.041
-0.119
0.016
0.050
0.068
0.053
0.040
0.010
-0.059
0.067
0.087
-0.045
0.013
0.034
-0.011
0.033
0.041
0.044
-0.007
0.011
0.059
0.084
0.038
-0.087
-0.064
0.032
0.098
0.045
-0.094
0.039
0.179
-0.037
0.041
-0.037
0.006
-0.007
0.030
0.085
-0.025
-0.103
0.074
-0.014
-0.027
0.044
0.050
0.021
0.101
-0.040
0.076
-0.085
0.025
0.020
0.066
0.097
0.098
0.037
0.030
-0.059
0.125
-0.033
0.076
-0.028
0.122
0.413
0.036
-0.445
-0.427
0.014
0.216
0.226
0.163
0.057
-0.030
-0.087
-0.188
-0.082
0.098
-0.037
0.022
0.093
0.091
0.119
0.128
0.107
-0.016
-0.044
0.033
0.044
-0.095
-0.021
0.053
-0.006
0.065
-0.005
0.060
0.009
0.001
0.080
0.017
-0.000
-0.015
-0.009
-0.009
0.038
-0.009
-0.018
0.017
0.047
0.081
0.005
0.029
0.061
-0.031
-0.027
-0.041
0.047
0.061
0.091
-0.007
0.009
0.067
-0.046
-0.072
0.028
-0.027
0.045
0.048
0.002
-0.053
0.011
0.121
0.036
-0.024
0.012
-0.041
-0.053
0.086
0.093
0.029
0.052
-0.043
0.010
0.124
0.107
-0.017
0.021
-0.032
-0.027
-0.013
-0.000
-0.028
-0.060
0.117
0.013
-0.012
-0.109
0.039
0.121
0.080
-0.005
0.099
-0.110
0.032
0.099
0.032
0.001
0.067
-0.044
0.034
0.134
-0.006
-0.073
0.064
0.020
0.082
0.029
0.013
0.033
-0.030
-0.033
0.086
-0.029
0.108
0.121
-0.069
-0.039
0.011
0.018
0.032
-0.033
0.001
0.061
0.015
0.048
-0.032
0.042
0.036
0.037
0.054
0.110
0.391
0.175
-0.237
-0.403
-0.352
-0.036
0.299
0.311
0.189
-0.037
-0.075
-0.032
-0.102
-0.042
0.004
-0.098
0.077
0.050
0.031
0.033
0.191
0.086
0.083
-0.046
0.015
-0.011
-0.007
-0.086
-0.093
-0.017
0.125
0.035
0.027
-0.088
-0.055
-0.000
-0.028
0.031
-0.025
0.088
0.055
0.114
0.032
-0.062
-0.119
-0.031
-0.056
0.029
0.029
-0.014
0.017
-0.051
-0.013
0.007
0.106
0.145
-0.021
-0.026
-0.079
0.094
0.043
0.049
0.015
-0.039
-0.014
0.126
0.008
0.020
-0.020
-0.021
-0.079
0.013
0.016
-0.015
-0.018
0.069
-0.001
0.056
0.018
0.016
-0.031
0.114
0.017
0.013
0.017
0.001
-0.029
0.029
0.101
0.025
0.061
0.021
0.059
0.013
0.110
-0.069
-0.060
0.114
-0.002
0.037
0.076
-0.039
0.072
-0.009
0.131
-0.015
0.000
0.097
0.026
-0.045
-0.011
0.048
0.081
0.048
0.035
-0.019
0.046
0.043
0.067
-0.065
0.051
-0.042
0.140
0.102
0.016
0.022
0.067
0.045
0.008
-0.021
-0.011
-0.059
0.036
0.070
0.034
-0.016
0.079
-0.040
0.126
-0.023
0.051
0.001
0.021
0.037
0.033
-0.001
-0.017
0.276
0.396
-0.030
-0.414
-0.431
-0.160
0.275
0.347
0.269
0.098
-0.073
-0.122
-0.131
-0.006
-0.056
-0.010
0.015
0.062
0.109
0.022
0.086
0.137
0.032
-0.078
0.062
0.025
-0.022
-0.021
0.018
-0.067
-0.018
-0.115
0.053
0.057
-0.002
-0.062
0.094
-0.005
-0.007
0.012
0.013
-0.006
0.032
0.129
-0.021
0.114
0.012
-0.060
0.019
0.060
0.027
0.063
0.080
-0.020
0.042
0.028
-0.024
0.028
-0.063
0.020
0.049
-0.002
0.027
0.044
-0.020
-0.039
0.021
0.073
0.020
0.015
-0.093
0.024
0.066
0.072
-0.045
-0.007
0.062
-0.024
0.043
0.088
-0.107
-0.001
0.081
-0.040
0.045
-0.003
-0.004
0.082
0.111
0.065
-0.026
-0.069
0.183
0.028
-0.086
0.056
0.092
-0.037
0.042
-0.065
-0.031
-0.097
0.028
0.074
0.114
0.064
-0.009
0.027
-0.016
-0.017
0.027
-0.022
-0.050
0.072
-0.028
0.034
0.000
-0.067
-0.048
0.037
0.046
0.005
0.041
-0.010
0.008
0.066
0.024
0.056
-0.060
0.021
0.012
0.035
0.123
-0.005
-0.060
-0.022
-0.030
-0.010
0.076
-0.018
-0.096
0.025
0.039
-0.013
0.057
0.056
0.009
0.043
0.023
-0.102
0.019
0.058
-0.069
0.072
0.077
-0.030
0.378
0.168
-0.268
-0.622
-0.293
-0.036
0.191
0.324
0.197
0.159
-0.097
-0.249
-0.074
-0.045
-0.053
0.065
0.095
0.074
0.074
-0.025
0.063
0.099
0.022
-0.038
0.028
-0.051
0.007
-0.034
-0.012
-0.061
-0.035
0.064
0.057
0.065
-0.032
0.055
0.082
0.091
-0.002
-0.078
-0.023
0.071
-0.001
-0.083
0.026
0.066
0.113
0.010
0.002
-0.086
0.149
-0.066
-0.015
0.037
-0.082
-0.038
0.059
0.008
0.054
-0.030
-0.002
-0.068
-0.024
0.076
0.060
-0.045
0.023
-0.031
0.018
0.005
-0.052
0.079
0.111
-0.077
0.006
-0.039
0.119
0.005
0.073
-0.014
0.030
0.099
-0.015
-0.048
-0.009
0.041
0.131
-0.035
0.022
0.021
0.008
0.080
-0.054
0.008
-0.029
-0.008
0.051
0.125
0.086
-0.042
-0.143
0.003
0.016
0.128
-0.027
-0.005
-0.040
0.039
-0.026
0.039
0.067
-0.006
-0.035
-0.007
-0.072
0.071
0.026
0.034
0.002
-0.038
0.061
0.081
-0.057
-0.060
0.042
-0.025
0.064
0.017
0.069
0.128
0.017
-0.009
-0.090
-0.052
0.015
0.074
0.085
0.050
0.067
-0.076
-0.009
0.021
-0.000
0.091
-0.010
0.144
0.036
-0.005
-0.112
0.008
0.083
0.020
0.043
0.040
-0.052
-0.049
0.071
0.016
-0.001
-0.084
0.034
0.075
0.081
0.079
-0.050
-0.006
-0.019
-0.032
0.086
0.061
0.037
-0.044
0.082
0.445
0.206
-0.321
-0.560
-0.337
0.154
0.361
0.345
0.170
0.056
-0.123
-0.186
-0.181
0.040
0.036
0.058
0.019
0.188
0.084
0.133
0.047
0.079
-0.076
0.031
-0.019
0.181
0.007
-0.083
0.015
-0.024
-0.005
-0.092
0.105
0.057
0.076
-0.079
-0.052
0.030
0.045
0.001
-0.011
-0.037
-0.014
0.016
0.134
0.066
0.032
0.074
0.065
-0.065
0.091
0.011
0.024
0.044
0.014
0.111
0.067
-0.056
-0.003
-0.058
-0.020
0.111
0.067
0.004
0.053
-0.126
0.026
0.059
-0.001
-0.013
0.054
0.095
-0.014
0.077
-0.037
-0.107
-0.037
0.070
0.013
0.093
0.043
0.026
0.121
-0.027
-0.077
0.007
0.011
0.018
-0.027
0.022
0.058
0.030
0.072
0.070
-0.079
0.006
-0.017
0.016
0.010
0.111
-0.051
-0.098
-0.034
0.069
0.092
-0.032
-0.140
0.059
-0.050
-0.000
0.027
-0.073
0.068
-0.014
-0.004
0.030
0.085
0.172
0.009
-0.028
0.010
0.016
0.004
-0.028
-0.006
-0.003
0.089
0.005
0.097
-0.016
-0.021
0.068
-0.066
-0.006
0.005
0.041
-0.031
-0.007
0.090
0.084
0.062
0.062
-0.123
0.104
0.003
0.076
0.067
0.004
0.112
0.378
0.182
-0.250
-0.621
-0.355
-0.010
0.279
0.415
0.176
-0.100
-0.143
-0.159
-0.086
-0.116
0.032
0.045
0.152
0.113
0.046
0.090
0.058
0.069
0.061
0.012
-0.021
0.037
0.019
-0.025
-0.035
0.030
-0.096
0.116
-0.068
0.013
0.084
0.086
0.039
0.054
-0.070
0.059
0.069
0.060
-0.024
-0.036
-0.012
0.034
0.030
-0.059
0.060
0.069
0.043
0.006
-0.026
0.027
0.045
0.007
-0.030
-0.027
-0.013
0.086
0.090
-0.009
-0.017
-0.077
-0.033
0.074
0.015
0.040
-0.041
0.121
0.059
0.014
-0.044
-0.089
0.029
0.110
-0.046
-0.082
-0.003
0.062
0.012
0.015
0.089
-0.045
0.022
-0.027
0.013
0.067
0.014
-0.069
-0.013
0.051
0.009
0.062
-0.029
0.012
0.079
-0.030
0.005
-0.032
0.034
-0.011
0.142
0.010
-0.094
0.036
0.041
0.043
0.016
0.067
-0.007
0.015
-0.032
0.031
0.015
0.110
0.019
0.051
0.041
0.015
-0.030
0.087
0.087
0.083
-0.115
0.031
-0.050
0.001
0.110
-0.142
-0.058
0.071
-0.029
0.085
0.002
0.031
0.037
0.032
-0.017
0.014
-0.003
-0.015
0.024
-0.020
0.181
0.409
0.047
-0.456
-0.384
-0.195
0.040
0.291
0.341
0.222
0.009
-0.186
-0.192
-0.071
0.008
0.059
0.134
0.028
0.035
0.110
0.075
0.137
0.050
-0.048
0.069
-0.040
0.036
-0.005
0.028
0.015
-0.087
0.053
0.005
0.142
0.019
-0.033
-0.078
0.121
0.024
0.045
-0.021
-0.013
0.056
0.004
-0.060
0.006
0.063
0.040
-0.011
0.091
-0.011
0.025
0.069
-0.021
0.013
0.046
0.003
-0.048
0.009
0.105
0.061
-0.003
-0.015
0.044
-0.012
0.040
-0.014
0.134
-0.088
-0.017
0.102
-0.102
0.099
0.128
0.013
-0.040
0.015
0.028
0.081
0.024
-0.079
-0.041
-0.013
0.032
0.068
0.039
-0.002
0.092
0.095
-0.007
0.060
0.062
0.037
0.070
0.086
0.083
-0.036
-0.022
-0.083
0.034
-0.004
0.112
0.082
-0.010
0.000
-0.028
0.029
-0.034
0.011
-0.070
0.057
0.068
-0.004
-0.044
0.073
0.060
-0.008
0.081
-0.084
0.014
0.025
0.012
0.065
0.099
0.059
-0.038
-0.031
0.115
0.009
-0.080
0.054
0.084
0.136
0.038
-0.101
-0.036
-0.006
0.059
0.451
0.273
-0.323
-0.641
-0.233
0.038
0.357
0.329
0.201
-0.074
-0.189
-0.047
-0.135
0.027
-0.032
0.079
0.016
0.127
0.068
0.074
-0.000
0.045
0.052
-0.035
-0.010
0.032
0.041
0.013
-0.044
0.020
-0.004
0.059
-0.017
0.015
0.053
-0.090
-0.049
0.123
0.100
0.120
-0.071
0.025
0.053
0.001
-0.075
0.047
0.088
0.001
0.053
0.114
-0.039
-0.028
-0.092
0.046
0.066
-0.029
-0.028
-0.095
0.009
0.103
0.132
0.063
0.061
-0.059
-0.034
0.015
-0.049
0.035
-0.002
0.127
0.149
0.077
-0.042
-0.170
0.145
0.052
0.082
0.014
-0.078
-0.042
-0.050
0.131
0.015
-0.021
0.113
0.007
0.041
-0.028
0.035
0.068
0.065
-0.037
-0.016
0.013
0.082
0.021
-0.103
0.049
-0.016
-0.001
0.082
0.010
0.117
-0.038
-0.042
0.090
-0.002
0.062
0.010
0.037
0.004
-0.089
-0.047
0.083
0.044
-0.011
0.017
0.009
0.021
-0.009
0.053
-0.078
0.017
-0.020
0.018
0.057
0.099
-0.062
-0.022
0.003
0.038
0.074
-0.013
0.071
-0.042
-0.096
-0.074
0.110
0.023
-0.015
0.023
0.032
-0.017
0.040
0.031
-0.010
-0.010
-0.011
0.058
-0.022
-0.006
-0.022
0.039
-0.035
-0.047
0.052
0.158
0.004
-0.068
-0.048
0.105
0.176
-0.024
-0.157
-0.058
0.017
0.053
-0.009
0.268
0.448
0.082
-0.338
-0.441
-0.232
0.129
0.367
0.201
0.161
-0.054
-0.077
-0.184
-0.141
-0.061
0.035
0.068
0.099
0.135
0.082
0.110
-0.057
0.093
0.058
-0.058
0.016
-0.032
-0.052
-0.030
0.072
0.040
0.049
-0.022
0.018
-0.013
0.048
0.084
0.016
0.031
-0.028
-0.035
0.144
0.096
-0.082
0.114
-0.039
0.073
0.012
-0.070
0.083
0.046
0.090
0.023
-0.107
0.015
0.013
0.047
-0.016
-0.026
0.064
0.055
-0.069
0.087
0.057
0.042
0.073
-0.043
-0.044
-0.019
0.099
0.030
0.002
0.046
0.107
-0.013
-0.068
-0.047
0.041
-0.013
0.005
0.022
0.123
0.038
-0.035
-0.073
0.006
0.149
-0.059
0.084
0.089
0.027
-0.022
0.063
0.027
0.081
0.021
-0.026
-0.021
0.049
0.075
-0.028
-0.005
-0.003
0.087
-0.029
0.133
-0.085
-0.032
0.054
0.067
0.079
0.041
0.034
0.018
-0.048
0.013
-0.029
0.019
-0.011
0.109
0.080
0.043
-0.057
-0.004
0.015
0.022
0.107
-0.041
0.045
0.005
-0.000
-0.041
0.063
0.062
0.039
0.046
-0.020
-0.028
-0.019
-0.028
0.103
-0.039
0.039
0.087
0.012
0.019
-0.053
0.011
0.068
0.055
0.099
0.081
0.017
0.021
-0.005
-0.031
-0.011
0.057
-0.012
0.048
0.030
0.002
-0.041
0.028
0.038
-0.076
0.039
-0.049
0.027
-0.074
0.072
0.113
0.045
-0.050
-0.003
-0.035
0.068
-0.057
0.114
0.050
0.382
0.145
-0.186
-0.342
-0.439
-0.050
0.348
0.368
0.155
0.013
-0.053
-0.146
-0.218
0.034
0.035
0.097
0.069
0.109
0.029
0.056
0.017
0.150
0.133
0.006
0.037
0.008
-0.038
0.080
-0.041
0.078
0.039
-0.063
-0.042
0.043
0.115
-0.071
0.113
0.003
-0.053
0.095
0.092
-0.083
-0.051
0.001
-0.034
0.105
0.013
0.087
-0.012
-0.090
0.044
0.029
-0.023
0.105
0.077
0.033
0.008
0.036
0.017
0.072
0.124
0.075
-0.028
-0.048
0.003
-0.054
0.008
0.063
0.016
0.056
0.043
0.036
0.018
-0.006
0.057
0.024
0.072
-0.003
-0.090
0.058
0.030
0.124
0.051
0.027
-0.055
0.011
0.039
0.039
0.096
-0.112
-0.101
0.013
0.068
0.020
0.029
-0.035
-0.010
0.110
0.128
-0.034
-0.007
-0.084
0.037
0.135
0.048
-0.042
0.007
-0.048
0.084
-0.002
0.033
0.044
0.029
-0.099
0.071
0.000
0.031
-0.026
0.108
0.037
-0.035
0.026
0.030
-0.030
-0.012
0.082
0.020
-0.011
0.006
-0.000
0.018
0.131
-0.047
-0.006
0.010
0.089
-0.028
0.158
0.003
0.023
0.021
-0.070
-0.004
0.058
-0.071
-0.027
0.040
0.080
0.039
-0.042
-0.076
0.052
0.123
-0.021
-0.025
0.052
0.260
0.234
-0.090
-0.442
-0.363
-0.047
0.204
0.409
0.172
0.112
-0.022
-0.098
-0.107
-0.064
-0.121
-0.070
0.121
0.219
0.125
-0.029
-0.007
0.012
0.052
0.032
0.002
-0.039
0.002
0.047
0.003
0.028
-0.049
0.036
-0.002
-0.038
0.054
0.060
0.062
0.000
0.024
-0.089
0.101
-0.032
0.021
0.014
0.074
-0.001
0.105
0.022
-0.066
-0.037
-0.035
0.067
0.060
-0.031
0.060
-0.035
0.018
0.029
-0.008
0.058
0.027
-0.009
-0.001
0.021
-0.067
-0.022
0.133
0.117
-0.052
-0.028
0.059
0.063
-0.027
-0.011
0.111
-0.003
0.010
0.030
0.011
0.097
0.023
0.028
-0.091
0.006
0.018
0.069
-0.022
0.065
-0.049
0.038
0.082
0.005
0.008
-0.060
-0.011
-0.031
-0.005
0.062
0.048
0.051
0.021
-0.065
0.075
-0.034
0.097
0.095
-0.049
0.046
-0.140
0.032
0.055
-0.023
0.078
0.004
0.024
0.101
0.081
-0.027
0.001
-0.080
-0.010
0.041
-0.011
0.137
0.083
-0.005
0.026
0.049
0.019
0.053
0.019
-0.024
-0.009
0.024
0.114
-0.021
0.052
-0.009
-0.021
-0.048
-0.039
0.038
0.104
-0.106
0.004
0.113
0.115
0.068
0.045
0.082
-0.065
-0.033
0.061
-0.026
0.037
0.054
0.040
0.040
0.049
0.038
-0.037
-0.135
0.032
0.081
0.074
0.043
0.312
0.236
-0.147
-0.351
-0.462
-0.076
0.259
0.353
0.205
0.050
-0.100
-0.185
-0.122
0.026
0.015
0.079
0.086
0.018
0.052
0.155
0.059
0.083
0.135
-0.096
-0.026
0.030
0.090
0.041
-0.077
-0.079
-0.064
0.037
0.054
0.051
-0.010
0.117
-0.014
0.077
0.061
-0.051
-0.012
-0.017
0.017
-0.002
0.077
0.002
-0.043
-0.026
-0.001
0.010
0.048
-0.060
0.117
0.058
-0.047
0.023
0.110
0.014
-0.018
-0.028
0.092
0.066
0.063
0.022
-0.020
-0.001
0.023
0.010
0.066
0.028
-0.013
-0.199
0.030
0.079
0.111
-0.012
0.040
0.090
0.034
-0.041
0.015
0.034
0.044
0.018
0.023
-0.067
0.013
0.034
0.058
0.043
0.079
0.024
0.028
0.069
-0.003
-0.056
-0.005
-0.011
0.042
0.059
0.022
-0.050
-0.006
0.078
0.143
0.044
-0.114
-0.046
-0.037
0.071
0.014
0.091
0.077
0.008
0.050
-0.065
0.068
0.074
0.048
-0.152
0.310
0.301
-0.142
-0.495
-0.508
-0.190
0.172
0.469
0.373
0.035
-0.124
-0.136
-0.083
-0.049
0.089
0.033
0.020
0.102
0.039
0.097
0.176
-0.047
0.107
-0.015
0.013
-0.043
-0.022
0.027
0.023
0.040
0.072
-0.075
0.071
0.021
-0.070
0.027
0.049
-0.053
0.022
0.041
-0.064
0.024
-0.014
0.029
-0.090
0.016
0.002
0.053
0.095
0.051
0.029
-0.013
-0.071
0.035
0.034
0.101
0.003
-0.001
0.123
0.021
-0.045
-0.008
-0.014
0.111
0.030
-0.075
-0.018
0.076
0.206
0.032
0.031
-0.037
-0.003
-0.154
-0.017
0.134
-0.009
0.046
-0.000
-0.003
0.017
0.040
-0.020
-0.028
0.002
0.038
0.023
0.036
0.078
0.061
-0.116
0.088
0.057
0.025
0.018
0.039
-0.044
0.029
0.006
0.049
-0.055
0.033
0.064
0.043
-0.162
0.029
0.001
0.058
-0.043
0.118
0.097
0.075
-0.020
0.252
0.228
-0.050
-0.504
-0.457
-0.075
0.273
0.383
0.260
0.089
-0.122
-0.054
-0.178
-0.080
0.022
-0.014
0.113
0.134
0.100
0.065
0.058
0.026
0.016
-0.029
0.013
0.005
0.056
-0.072
0.035
-0.099
0.001
-0.018
-0.124
0.041
0.128
0.172
-0.032
-0.052
-0.007
0.083
0.072
0.024
0.023
0.027
-0.012
0.017
-0.026
-0.010
0.011
0.087
-0.080
-0.015
0.003
0.066
-0.063
-0.021
0.030
0.001
0.027
0.020
0.083
0.106
-0.047
-0.001
-0.040
0.038
0.059
-0.005
0.001
0.054
0.005
0.051
0.001
0.090
-0.019
0.047
-0.000
-0.033
-0.086
0.035
0.033
0.111
0.068
-0.035
0.021
-0.062
0.040
-0.117
0.002
0.056
-0.010
-0.054
0.032
-0.040
-0.001
0.106
0.011
-0.019
-0.127
-0.112
0.085
0.026
0.029
0.040
0.014
-0.017
0.086
-0.022
0.039
0.047
-0.029
-0.051
-0.050
0.080
0.036
0.012
-0.017
-0.005
0.067
-0.043
0.246
0.290
0.024
-0.506
-0.429
-0.238
0.182
0.459
0.235
0.128
-0.057
-0.104
-0.085
-0.097
-0.124
0.066
0.089
0.054
-0.026
0.222
0.097
0.038
-0.001
-0.002
-0.050
-0.013
-0.075
0.014
-0.082
0.074
0.076
-0.057
-0.048
0.037
0.067
-0.032
0.046
0.046
0.006
0.056
0.021
-0.010
-0.022
0.014
0.020
0.021
0.085
-0.005
-0.120
0.115
-0.009
-0.067
0.044
0.085
-0.030
-0.000
-0.035
-0.015
0.032
0.141
-0.043
0.010
0.033
-0.000
0.056
-0.018
0.074
-0.026
0.076
0.089
-0.023
0.005
-0.033
0.056
-0.003
-0.012
0.002
0.094
-0.024
-0.100
0.067
0.236
0.095
-0.147
-0.019
-0.029
0.079
-0.019
0.041
-0.018
-0.019
0.097
0.047
-0.029
0.005
0.075
-0.024
-0.054
0.021
0.044
0.078
0.090
-0.008
0.009
-0.021
-0.072
-0.045
0.029
0.064
-0.038
-0.053
0.083
0.013
0.077
0.060
-0.002
-0.047
0.039
0.241
0.428
0.097
-0.443
-0.519
-0.216
0.184
0.349
0.196
0.101
-0.018
-0.097
-0.187
-0.002
0.022
0.036
0.122
0.039
0.021
0.107
0.134
0.078
0.008
-0.043
0.102
0.022
0.085
0.068
-0.073
0.006
-0.045
-0.117
-0.020
0.154
0.064
0.012
-0.010
-0.049
0.042
0.062
0.047
-0.008
0.033
0.013
0.016
0.153
0.011
0.003
-0.021
-0.019
-0.030
-0.017
0.052
0.078
-0.069
-0.058
0.004
0.062
0.101
0.005
0.038
-0.088
0.064
-0.009
-0.052
0.158
0.092
-0.018
-0.012
-0.028
-0.028
0.029
0.125
0.045
-0.003
0.045
0.005
0.047
0.083
0.031
-0.051
-0.019
0.013
0.075
0.091
-0.002
0.042
0.050
0.066
-0.022
-0.075
0.086
0.034
0.030
0.011
-0.021
0.002
0.017
0.071
-0.016
-0.052
0.073
0.003
0.047
0.059
0.008
0.015
-0.052
0.079
0.008
-0.081
0.032
0.126
0.074
0.045
-0.011
0.317
0.303
-0.085
-0.484
-0.488
-0.044
0.257
0.410
0.228
0.098
-0.051
-0.134
-0.095
-0.034
-0.039
0.117
0.116
0.086
-0.013
-0.030
0.092
0.124
0.021
-0.026
0.019
-0.051
0.090
0.033
-0.071
0.049
0.059
0.018
-0.058
0.066
0.053
-0.025
0.084
0.012
-0.023
0.008
0.164
0.022
-0.010
-0.000
-0.079
0.034
-0.011
0.051
0.028
-0.059
0.037
0.015
0.024
0.071
0.009
-0.072
0.050
0.021
0.066
0.005
0.033
0.087
-0.036
0.038
0.054
-0.018
0.049
0.000
0.018
0.018
0.083
-0.012
-0.001
-0.146
0.085
0.012
-0.008
0.073
0.178
0.074
-0.027
-0.065
-0.028
0.022
0.050
-0.005
0.092
0.113
-0.011
-0.099
0.023
-0.109
0.068
-0.007
0.043
0.097
0.101
0.086
-0.029
0.013
-0.001
0.074
0.091
0.023
-0.002
-0.013
-0.038
0.062
0.080
0.017
-0.076
-0.008
-0.039
0.059
0.064
0.141
0.004
0.048
0.036
-0.031
0.079
0.008
-0.038
0.049
0.373
0.145
-0.272
-0.485
-0.344
0.041
0.342
0.368
0.161
-0.001
-0.108
-0.110
-0.093
-0.044
0.129
0.095
-0.081
0.129
0.124
0.125
0.033
0.039
0.053
-0.014
-0.063
0.058
0.026
-0.115
0.028
-0.056
0.041
0.003
0.014
-0.024
0.074
-0.048
0.016
0.012
0.066
-0.098
0.050
0.021
0.045
0.137
0.074
-0.039
-0.029
0.009
0.031
0.048
-0.003
0.005
0.109
-0.011
-0.040
0.045
0.097
0.049
-0.036
-0.037
0.016
0.124
0.040
-0.076
0.067
-0.035
-0.008
0.038
0.019
0.094
-0.027
-0.070
0.024
0.070
0.030
-0.001
0.071
0.007
-0.005
0.057
0.031
0.079
-0.043
-0.001
0.074
0.008
0.007
-0.011
0.002
0.099
0.018
0.060
-0.045
0.037
0.083
-0.053
-0.085
0.100
0.042
0.059
-0.135
0.059
0.016
0.093
0.073
0.056
0.004
0.038
-0.019
0.022
-0.047
-0.010
0.122
0.026
-0.030
-0.005
0.018
0.027
-0.021
0.011
-0.056
0.185
0.125
-0.053
-0.165
-0.076
0.027
-0.025
0.023
0.045
0.070
0.040
0.003
0.225
0.330
0.042
-0.300
-0.551
-0.227
0.251
0.365
0.226
0.051
-0.062
-0.005
-0.117
-0.038
-0.069
0.057
0.071
-0.025
0.022
0.074
0.006
0.205
0.081
-0.038
0.040
-0.040
-0.006
-0.039
-0.072
-0.005
0.074
-0.075
0.087
-0.005
-0.014
0.043
-0.008
-0.100
0.087
-0.016
0.048
0.083
0.136
0.113
-0.089
-0.036
-0.032
0.089
-0.007
0.072
0.050
0.050
-0.038
0.029
0.064
0.064
-0.036
0.007
0.017
0.048
0.063
0.115
0.053
-0.063
-0.154
0.016
0.022
0.066
-0.037
-0.043
0.085
-0.042
0.067
0.057
-0.056
-0.012
0.003
0.047
0.009
0.004
0.028
0.089
0.006
0.045
-0.004
0.020
0.114
-0.027
0.023
0.086
0.034
-0.011
0.040
-0.019
0.123
0.070
-0.064
-0.054
0.018
0.120
0.007
0.070
-0.012
-0.051
-0.020
-0.016
0.040
0.051
-0.013
-0.012
0.022
0.083
-0.053
-0.056
0.022
0.079
0.231
0.304
0.101
-0.430
-0.526
-0.179
0.223
0.458
0.193
0.158
-0.061
-0.138
-0.109
-0.128
0.020
0.137
0.075
0.064
0.070
0.051
0.065
0.058
0.082
0.009
-0.017
-0.130
-0.013
0.079
-0.014
-0.036
0.029
0.009
-0.017
0.040
0.040
0.038
0.031
-0.016
0.037
-0.064
-0.015
0.050
-0.043
0.092
-0.065
0.044
0.084
0.028
-0.048
0.025
0.069
-0.060
-0.002
-0.038
0.051
0.150
0.016
0.066
-0.046
-0.077
-0.050
0.125
0.086
0.051
-0.037
-0.004
0.088
0.040
-0.034
0.015
0.086
-0.014
-0.109
0.001
0.057
0.006
0.099
-0.139
0.019
0.060
-0.006
-0.026
0.056
-0.034
0.090
0.069
0.026
-0.042
-0.030
-0.060
0.050
0.028
0.086
0.006
0.079
0.056
0.009
-0.098
-0.033
-0.004
0.112
0.104
-0.004
0.012
0.029
0.010
-0.024
0.069
0.056
0.094
0.024
0.031
0.042
-0.079
-0.035
-0.008
0.121
0.000
0.059
0.147
0.349
0.192
-0.357
-0.533
-0.264
0.065
0.465
0.207
0.155
-0.006
-0.021
-0.112
-0.133
-0.064
0.060
0.058
0.113
0.123
0.068
0.069
0.044
0.002
-0.041
0.081
0.058
-0.070
0.071
-0.027
0.019
0.024
0.118
0.010
-0.086
-0.002
0.070
0.097
0.046
0.067
-0.009
-0.021
-0.035
0.048
0.079
0.006
0.007
0.082
0.030
0.003
-0.024
-0.003
0.012
0.020
0.034
0.031
-0.002
0.091
-0.067
0.017
0.009
-0.006
0.086
0.023
0.021
0.026
-0.042
0.014
0.033
0.027
-0.088
0.032
0.074
0.175
0.186
-0.068
-0.046
-0.015
0.102
-0.061
0.058
0.027
-0.005
0.108
0.102
0.070
-0.070
-0.015
-0.022
-0.011
-0.002
0.032
0.081
0.032
-0.063
-0.085
0.169
0.078
0.038
0.017
0.024
-0.033
0.047
0.058
0.075
-0.023
0.045
-0.075
0.009
0.063
0.071
-0.041
0.111
0.001
-0.086
0.070
-0.011
0.012
0.035
0.320
0.225
-0.118
-0.410
-0.451
-0.034
0.223
0.486
0.157
0.104
-0.108
-0.047
-0.096
-0.048
-0.003
-0.006
0.029
0.095
0.120
0.146
-0.013
-0.045
0.069
0.015
0.008
0.098
-0.057
0.076
-0.091
0.135
-0.042
-0.058
0.023
0.120
-0.037
-0.041
-0.061
-0.018
-0.009
-0.023
0.015
0.174
0.015
-0.028
0.057
-0.034
0.044
0.136
-0.029
-0.059
-0.027
-0.022
0.131
0.035
-0.009
0.024
-0.011
0.017
-0.063
0.044
0.117
-0.024
-0.055
-0.011
0.032
0.138
0.068
-0.022
0.032
0.045
-0.058
0.051
-0.055
0.070
-0.007
-0.002
-0.041
-0.033
0.055
0.097
-0.032
0.136
0.018
0.048
-0.072
0.034
0.116
0.072
0.040
0.013
-0.022
-0.025
-0.046
-0.026
-0.014
0.059
0.131
-0.020
-0.015
-0.058
0.112
0.033
0.044
0.074
-0.021
-0.076
0.062
-0.078
0.067
0.121
-0.004
-0.003
0.041
-0.019
-0.005
0.064
0.053
0.014
-0.010
0.105
0.031
0.013
0.010
0.026
0.031
0.098
0.117
-0.052
-0.005
-0.062
-0.009
0.158
0.412
0.189
-0.264
-0.615
-0.301
0.005
0.366
0.280
0.201
-0.018
-0.082
-0.052
-0.116
-0.075
0.062
0.085
0.011
0.083
0.002
0.123
0.149
0.026
-0.042
0.038
0.013
-0.019
0.034
0.013
-0.046
0.029
0.007
-0.005
0.021
0.034
-0.034
0.036
0.001
0.044
-0.035
0.119
0.057
0.055
-0.037
-0.000
0.007
-0.012
0.021
0.016
0.087
-0.032
0.028
0.029
-0.038
0.039
0.009
0.043
0.039
0.038
-0.036
0.057
-0.020
0.045
0.088
0.035
0.020
0.019
-0.045
-0.005
0.071
0.045
0.040
-0.002
-0.079
0.071
0.058
-0.018
-0.065
0.138
0.084
-0.028
-0.086
-0.085
0.040
0.099
0.013
-0.015
0.036
0.097
0.009
-0.008
0.001
0.052
-0.106
0.043
0.092
0.101
0.061
0.005
-0.015
0.012
0.064
-0.014
0.064
-0.027
0.066
0.058
-0.041
-0.006
0.078
0.067
-0.026
-0.007
-0.029
0.058
-0.012
0.049
0.029
-0.016
0.002
-0.016
0.038
0.184
0.435
-0.008
-0.453
-0.504
-0.056
0.170
0.382
0.293
0.080
-0.084
-0.047
-0.108
-0.077
-0.046
0.030
0.027
-0.012
0.090
0.097
0.202
0.123
-0.020
0.042
0.056
-0.036
0.063
-0.035
-0.074
0.006
0.103
-0.045
0.054
-0.132
0.059
0.115
0.025
-0.002
-0.029
0.066
-0.022
0.144
0.075
-0.032
0.044
0.045
0.081
0.063
-0.015
0.012
-0.043
0.057
0.041
-0.024
0.080
-0.084
-0.057
-0.004
0.029
0.023
0.003
-0.020
-0.037
-0.006
0.011
0.065
0.099
0.009
-0.001
-0.052
0.028
0.027
0.011
0.172
0.047
-0.098
0.086
0.020
0.027
-0.006
-0.052
0.014
-0.006
0.073
-0.046
0.078
0.075
0.019
-0.027
0.035
-0.008
0.044
0.058
0.062
-0.057
0.039
0.037
0.013
-0.004
-0.065
0.193
0.002
-0.095
-0.088
0.020
0.082
-0.051
0.105
0.003
0.014
-0.052
0.041
-0.043
-0.082
0.069
0.381
0.225
-0.105
-0.526
-0.470
0.003
0.371
0.405
0.038
-0.099
0.071
-0.020
-0.059
-0.035
-0.052
0.070
0.023
0.064
0.055
0.136
0.033
0.133
-0.018
-0.012
-0.002
-0.021
-0.014
-0.021
0.113
0.053
-0.064
0.058
-0.015
0.005
0.060
0.090
0.038
-0.065
0.035
0.049
0.064
-0.056
0.022
0.110
0.017
-0.002
-0.105
0.004
0.088
0.023
0.040
-0.020
0.067
0.011
0.055
-0.027
-0.086
0.035
0.231
-0.014
0.067
-0.039
-0.059
-0.010
-0.008
0.213
0.069
-0.135
0.008
-0.082
0.079
0.045
0.098
0.001
-0.079
-0.023
-0.002
0.072
0.067
0.006
0.105
0.036
0.075
0.049
-0.040
-0.001
-0.030
0.035
0.089
0.026
0.048
0.015
0.032
-0.088
-0.020
0.021
0.127
-0.042
-0.005
0.030
0.018
0.085
0.010
-0.065
-0.044
0.124
0.049
-0.046
0.011
0.100
0.022
0.063
-0.074
0.270
0.361
0.034
-0.513
-0.532
-0.168
0.247
0.478
0.284
0.022
-0.137
-0.206
-0.075
-0.015
-0.011
0.114
0.072
0.074
0.050
0.091
-0.015
-0.008
0.099
-0.025
0.013
-0.004
-0.057
0.013
0.145
0.042
-0.042
-0.045
-0.042
0.128
0.023
0.062
0.047
0.004
-0.039
0.010
-0.047
0.169
0.016
0.050
-0.070
-0.032
-0.052
0.079
0.024
-0.060
0.124
-0.023
-0.034
0.090
-0.104
0.033
0.031
-0.055
-0.029
0.057
0.068
-0.048
0.005
-0.026
0.072
-0.013
-0.009
0.013
0.074
0.021
0.079
0.031
0.080
-0.083
-0.030
-0.009
0.065
0.006
0.034
-0.050
0.022
0.001
0.016
0.017
-0.078
0.099
0.011
-0.010
0.121
0.024
-0.037
-0.021
0.017
-0.043
0.023
0.089
0.015
-0.040
-0.027
0.034
0.011
-0.010
0.004
-0.059
0.040
0.153
-0.083
0.001
-0.029
0.076
0.005
0.173
0.020
-0.073
0.020
-0.029
0.004
-0.071
-0.094
0.033
0.092
0.068
0.110
-0.097
0.202
0.321
0.001
-0.461
-0.481
-0.107
0.240
0.331
0.164
0.173
0.035
-0.218
-0.095
-0.111
0.026
0.077
-0.021
0.125
0.157
0.034
0.057
0.038
0.088
-0.037
0.099
-0.035
0.035
0.004
-0.035
0.022
0.001
-0.098
0.028
-0.022
-0.015
0.168
-0.047
0.001
-0.083
0.082
0.059
-0.012
-0.095
0.121
0.006
0.014
-0.012
0.048
-0.036
0.024
0.059
-0.013
0.037
0.061
0.115
0.127
-0.124
0.018
0.029
-0.005
0.037
0.039
0.026
0.048
-0.068
0.067
-0.018
0.017
-0.057
0.000
0.159
-0.062
-0.047
-0.032
0.019
0.075
0.017
0.022
0.129
-0.045
0.031
0.014
-0.030
0.033
0.022
-0.046
0.024
0.055
0.070
0.066
-0.008
0.008
-0.051
0.005
0.008
0.053
0.058
0.009
0.059
0.004
0.015
0.005
0.021
0.033
-0.034
0.034
0.019
0.009
-0.006
0.176
-0.047
-0.097
0.005
-0.033
0.089
0.157
-0.065
-0.023
-0.015
0.058
0.015
0.091
0.071
0.015
-0.017
-0.036
-0.025
0.031
0.106
0.117
0.244
0.246
-0.206
-0.536
-0.337
-0.033
0.323
0.354
0.294
0.001
-0.132
-0.153
-0.048
-0.125
-0.064
0.066
0.121
0.191
0.085
-0.081
0.083
0.207
0.053
-0.146
-0.092
-0.003
0.068
0.106
-0.007
-0.029
0.090
-0.066
-0.036
-0.009
0.024
0.016
-0.037
-0.031
0.043
0.090
0.067
0.032
-0.056
0.051
-0.033
-0.030
-0.036
0.188
0.042
-0.014
0.026
-0.049
-0.007
-0.008
0.085
0.018
-0.021
-0.004
0.073
0.040
0.036
-0.030
-0.013
0.008
0.080
0.043
0.035
0.027
-0.018
-0.013
0.007
0.030
-0.073
0.106
0.042
0.084
-0.090
-0.008
0.126
0.009
0.042
0.042
0.009
0.015
-0.016
0.065
0.047
0.079
-0.016
-0.075
-0.070
0.034
0.055
-0.019
0.011
-0.017
0.115
-0.103
-0.001
0.070
0.126
0.022
-0.103
0.038
0.060
0.075
0.074
0.063
0.136
-0.018
-0.014
-0.048
0.024
0.055
0.082
-0.038
0.067
-0.025
0.034
0.116
0.041
-0.030
-0.093
-0.009
0.054
0.091
-0.004
0.334
0.318
-0.251
-0.589
-0.327
-0.026
0.254
0.364
0.126
0.126
0.010
-0.146
-0.102
-0.062
-0.041
-0.028
0.034
0.108
0.153
0.134
0.047
-0.048
0.134
-0.094
0.013
0.036
0.139
-0.069
-0.003
-0.059
0.015
0.055
0.003
0.087
0.018
-0.025
-0.089
0.052
0.037
-0.005
0.082
-0.040
-0.010
0.012
0.031
-0.007
-0.070
0.038
0.053
-0.043
0.069
0.051
-0.045
-0.002
0.025
-0.050
0.075
0.067
0.073
-0.105
-0.007
0.057
0.051
0.060
0.035
0.102
0.013
0.012
-0.029
0.047
-0.027
-0.058
-0.054
0.010
0.141
0.044
0.046
0.033
0.030
-0.154
0.062
0.126
0.133
0.130
-0.040
-0.001
-0.076
-0.085
-0.026
0.060
0.147
-0.050
0.071
0.071
0.052
-0.019
-0.044
0.014
0.002
0.001
0.055
0.013
0.063
0.076
0.011
-0.004
-0.001
0.030
-0.009
0.033
0.067
0.034
0.017
-0.012
0.055
-0.070
-0.009
0.048
0.094
0.019
0.010
0.036
0.028
0.064
0.016
-0.095
0.010
0.076
0.058
0.087
0.045
-0.025
0.266
0.289
0.064
-0.444
-0.606
-0.187
0.367
0.420
0.211
0.114
-0.049
-0.107
-0.110
-0.089
-0.007
0.015
0.081
0.070
0.035
0.125
0.038
0.055
-0.058
0.051
0.017
0.066
0.004
-0.049
0.057
-0.024
0.013
0.027
0.013
-0.036
0.127
0.033
0.054
0.021
-0.098
0.047
-0.094
0.088
0.101
0.040
0.043
-0.062
0.038
-0.011
-0.026
0.024
-0.022
0.101
0.071
-0.034
-0.061
-0.016
-0.001
0.009
0.048
0.076
0.046
0.011
0.000
0.069
0.083
-0.110
0.013
0.019
0.095
0.016
0.004
0.062
-0.008
-0.008
0.076
0.036
0.004
-0.024
-0.014
0.003
-0.041
0.001
0.065
0.049
-0.069
0.077
-0.036
0.025
0.014
0.045
0.014
-0.033
0.089
0.076
-0.012
-0.056
0.015
0.014
0.017
0.045
0.018
0.020
-0.007
-0.026
0.036
0.074
0.010
-0.097
-0.011
0.036
0.078
0.062
0.039
-0.048
0.081
0.029
0.041
0.004
-0.025
-0.025
-0.011
0.088
0.019
-0.005
-0.002
0.250
0.390
0.005
-0.332
-0.596
-0.216
0.162
0.338
0.354
0.168
-0.079
-0.142
-0.068
-0.067
-0.031
-0.026
-0.013
0.135
0.052
0.066
0.067
0.023
0.109
0.120
-0.095
-0.082
0.101
-0.005
-0.076
0.062
-0.059
-0.033
0.098
0.011
0.072
0.050
0.026
-0.025
0.045
0.024
0.096
-0.033
-0.016
-0.038
-0.030
0.053
0.027
0.083
0.037
-0.045
0.045
-0.082
0.109
0.130
0.095
-0.010
-0.009
-0.008
-0.004
0.032
0.011
0.072
0.041
-0.072
0.075
0.027
0.004
0.018
-0.007
-0.015
-0.004
-0.042
0.092
0.081
-0.082
0.028
0.027
-0.037
-0.018
0.030
-0.016
0.085
0.114
0.017
-0.029
-0.060
0.048
0.062
0.029
0.038
-0.018
0.099
0.028
-0.011
0.049
0.007
0.047
0.030
0.009
-0.023
0.015
0.123
0.030
-0.097
-0.065
0.060
0.055
0.029
0.008
-0.021
0.039
-0.025
0.055
0.066
0.016
-0.041
-0.044
0.081
0.028
0.036
0.024
0.077
0.001
-0.067
0.075
-0.033
-0.062
0.107
0.105
-0.134
0.029
-0.010
0.034
-0.058
0.179
0.053
-0.015
-0.105
-0.021
0.086
-0.022
0.065
0.447
0.271
-0.176
-0.605
-0.332
0.002
0.379
0.359
0.210
0.043
-0.071
-0.207
-0.083
-0.073
0.007
0.078
0.055
0.048
-0.001
0.062
0.218
0.093
0.052
-0.098
-0.014
0.066
0.037
0.054
0.030
-0.010
-0.067
-0.042
0.109
0.034
-0.018
-0.030
-0.012
0.054
0.067
0.027
0.051
0.057
-0.038
-0.013
-0.008
-0.002
0.050
0.135
0.107
-0.048
-0.034
-0.019
0.042
0.028
-0.029
0.039
0.057
0.034
0.027
0.063
-0.015
-0.014
0.003
0.087
-0.008
-0.074
0.056
0.024
0.102
0.026
-0.047
0.022
0.062
-0.045
-0.018
0.060
0.080
0.061
0.031
-0.034
0.025
0.007
-0.008
-0.018
-0.014
-0.024
-0.001
0.034
0.143
0.102
-0.063
-0.094
0.038
-0.027
-0.057
0.004
0.147
0.011
0.072
-0.007
0.031
-0.020
-0.098
-0.004
0.013
0.051
0.071
0.017
0.079
-0.034
0.021
-0.017
-0.039
0.004
0.100
0.066
-0.022
-0.038
-0.003
0.113
0.008
0.011
-0.006
0.046
0.045
0.044
0.018
0.023
0.047
-0.046
0.001
-0.047
0.061
0.008
0.036
0.043
0.035
-0.047
-0.079
0.031
-0.035
0.045
0.013
0.056
0.067
0.231
0.317
-0.057
-0.446
-0.484
-0.065
0.344
0.398
0.095
0.111
-0.034
-0.105
-0.094
0.033
0.089
0.054
-0.055
-0.039
0.029
0.143
0.169
-0.022
0.076
0.046
-0.037
-0.048
-0.039
0.061
-0.049
-0.087
0.064
-0.044
-0.083
0.045
0.073
0.169
0.061
-0.128
-0.028
-0.027
0.086
0.041
0.048
0.003
-0.072
0.088
0.038
0.026
0.022
0.009
-0.061
0.015
0.043
0.076
0.058
0.072
-0.009
-0.111
-0.035
0.037
0.003
0.057
0.009
0.026
0.052
-0.092
0.118
0.014
-0.096
-0.004
0.109
0.014
0.152
0.027
0.019
-0.014
-0.052
0.006
0.087
0.065
-0.001
-0.019
0.063
-0.029
0.027
0.053
0.134
0.017
-0.038
0.004
-0.033
0.041
-0.021
-0.030
-0.038
0.066
-0.016
0.058
0.072
-0.022
-0.021
0.061
0.048
0.058
0.029
0.028
-0.027
-0.015
-0.030
0.009
0.175
0.064
-0.072
0.070
0.080
-0.020
-0.028
0.028
-0.040
0.017
0.125
0.119
0.059
-0.091
-0.041
0.073
-0.012
-0.091
0.070
0.083
0.150
0.006
-0.064
-0.065
0.013
0.077
0.063
-0.026
0.070
0.071
-0.073
-0.029
0.050
0.089
0.152
0.341
0.084
-0.196
-0.507
-0.419
-0.041
0.401
0.309
0.114
0.067
-0.077
-0.120
-0.062
0.040
0.008
0.000
0.119
-0.005
0.045
0.006
0.090
0.061
-0.034
-0.030
-0.005
0.048
-0.041
-0.048
-0.019
-0.028
0.004
0.034
0.014
0.047
0.072
0.071
0.103
0.021
0.000
0.068
0.014
0.011
0.036
-0.053
-0.049
0.002
0.000
0.011
0.059
0.008
0.023
0.013
0.051
0.056
0.144
-0.024
-0.086
-0.024
-0.000
0.055
0.037
0.004
0.035
0.037
0.004
-0.001
-0.002
-0.024
0.051
0.076
0.018
-0.009
-0.050
0.009
0.008
-0.046
0.074
0.076
0.094
-0.095
-0.037
0.058
0.079
0.090
-0.052
0.089
0.064
0.061
0.018
-0.033
0.102
-0.011
-0.000
-0.044
0.039
0.066
-0.050
0.081
0.036
0.030
-0.045
-0.039
-0.016
-0.029
0.051
0.013
0.085
0.133
-0.033
0.039
-0.131
-0.018
0.106
0.016
0.054
-0.010
-0.052
-0.034
0.064
0.127
-0.006
0.029
-0.040
-0.044
0.061
0.087
0.023
0.120
-0.117
0.090
0.401
0.164
-0.275
-0.575
-0.288
0.056
0.359
0.420
0.140
-0.089
-0.094
0.002
-0.069
-0.176
-0.051
0.050
0.026
0.194
0.140
0.000
0.067
-0.013
0.084
-0.013
-0.005
-0.090
0.033
-0.058
0.053
0.045
-0.029
0.160
-0.058
0.099
-0.038
0.024
0.069
-0.041
0.008
0.046
-0.008
0.092
0.024
-0.099
-0.031
0.049
0.049
0.117
-0.042
-0.043
-0.061
0.075
0.073
0.013
-0.028
0.014
0.029
-0.005
-0.023
0.075
-0.021
0.033
-0.001
-0.011
0.082
0.107
-0.031
0.001
-0.109
0.046
0.070
0.043
-0.053
0.071
0.002
0.020
0.073
0.116
-0.063
0.035
-0.032
0.058
0.009
0.003
-0.049
0.007
-0.061
0.020
-0.012
0.001
0.040
0.002
0.008
-0.035
-0.007
0.083
-0.015
-0.008
-0.011
-0.060
0.058
0.065
0.072
0.092
-0.051
0.064
-0.079
-0.004
0.044
-0.068
0.093
-0.043
0.074
0.033
0.002
-0.027
0.028
-0.014
0.046
0.108
-0.047
0.020
-0.025
-0.101
0.068
0.038
0.079
-0.025
0.085
0.026
0.045
-0.010
-0.044
-0.006
0.021
0.048
0.218
0.395
0.073
-0.419
-0.552
-0.180
0.112
0.459
0.317
0.059
-0.125
-0.054
-0.080
-0.149
-0.018
0.015
0.164
0.025
0.052
0.139
0.070
0.051
-0.006
-0.088
0.170
0.032
-0.016
0.004
-0.021
0.076
-0.000
-0.001
0.037
-0.044
0.006
0.051
0.014
-0.062
0.032
0.008
-0.045
0.014
-0.056
-0.002
0.046
0.131
-0.039
0.103
0.007
0.092
0.028
0.022
0.074
0.006
0.058
0.049
-0.030
-0.035
-0.124
0.175
0.140
-0.019
-0.054
-0.123
-0.025
0.074
0.117
0.025
0.039
-0.058
-0.055
0.080
-0.007
0.049
0.007
-0.006
0.024
0.047
0.007
-0.008
0.036
0.005
-0.065
0.025
0.145
-0.025
-0.028
0.054
-0.073
-0.056
-0.056
0.054
0.098
0.076
-0.036
0.048
-0.078
0.031
0.065
0.013
-0.061
-0.035
0.046
-0.051
0.030
0.042
0.036
0.050
-0.042
-0.007
0.064
-0.009
0.038
-0.003
0.020
0.013
-0.006
-0.010
0.037
0.017
-0.005
0.014
0.027
0.058
-0.040
0.027
0.072
-0.015
-0.058
0.001
0.081
0.039
0.013
-0.027
0.019
0.092
0.079
0.057
0.308
0.078
-0.239
-0.472
-0.312
0.023
0.384
0.386
0.114
-0.117
-0.128
-0.158
-0.092
-0.003
-0.026
0.079
0.042
0.129
0.139
0.031
0.104
0.002
-0.009
0.104
0.021
-0.037
0.013
-0.044
0.010
0.029
-0.033
-0.041
0.100
0.087
0.063
0.002
0.018
-0.015
-0.032
0.063
0.085
0.001
0.142
0.080
0.038
-0.181
-0.042
0.053
0.026
0.129
0.046
-0.014
-0.025
-0.018
0.062
0.000
0.063
0.061
-0.146
0.093
0.034
0.059
-0.000
0.008
-0.053
-0.002
0.117
-0.009
0.041
0.016
-0.008
0.063
-0.036
0.063
0.032
0.035
0.071
0.015
0.003
-0.000
0.026
-0.019
0.020
0.078
-0.016
0.002
-0.035
-0.050
0.026
0.216
-0.039
-0.050
-0.016
0.049
0.108
0.041
0.002
-0.033
0.015
0.136
0.016
-0.038
-0.045
0.086
-0.070
0.006
-0.003
0.001
0.031
0.044
0.064
-0.064
-0.033
-0.024
0.006
0.088
0.008
0.031
-0.020
0.143
-0.005
0.010
-0.031
-0.008
0.060
0.010
-0.011
0.082
-0.035
0.007
0.055
0.105
0.149
0.032
-0.102
-0.000
-0.040
0.089
0.055
0.001
0.060
-0.032
0.017
0.059
-0.023
0.100
-0.046
0.036
0.461
0.212
-0.275
-0.480
-0.323
-0.051
0.361
0.392
0.178
0.068
-0.064
-0.107
-0.192
-0.008
-0.028
0.081
0.107
0.074
0.086
0.030
0.052
0.052
0.076
0.052
-0.052
0.089
0.050
0.013
-0.060
-0.050
-0.061
-0.058
0.098
0.051
0.004
0.047
-0.059
-0.078
0.152
0.114
-0.030
0.029
-0.048
0.067
0.035
0.105
0.038
0.042
0.032
-0.062
-0.008
0.039
0.094
-0.073
0.025
0.009
0.053
-0.083
0.038
0.038
0.096
-0.078
-0.009
0.045
0.038
0.008
-0.033
0.065
-0.074
-0.008
-0.024
0.126
0.042
0.001
0.033
0.079
-0.016
-0.032
0.034
-0.017
-0.024
0.074
0.019
0.065
0.078
-0.051
-0.020
-0.108
0.046
-0.001
-0.065
0.048
0.042
0.104
-0.042
0.095
0.042
0.042
-0.008
0.012
0.034
0.081
-0.023
-0.032
0.034
0.005
0.030
0.107
-0.035
0.016
0.050
0.005
0.014
-0.025
-0.025
-0.035
0.047
0.057
0.008
0.014
-0.014
-0.052
0.098
0.182
-0.039
-0.053
0.082
0.091
0.001
-0.032
0.014
0.064
0.084
0.074
-0.013
-0.067
0.017
0.065
0.019
0.015
0.043
0.066
0.105
0.514
0.111
-0.423
-0.507
-0.272
0.168
0.255
0.302
0.146
0.002
-0.145
-0.131
-0.058
0.024
0.031
-0.002
0.074
0.035
0.164
0.079
0.160
0.076
-0.046
-0.017
0.035
-0.039
0.050
-0.061
-0.024
0.005
-0.111
0.096
0.066
0.030
0.044
0.073
0.020
-0.104
-0.057
0.029
0.031
-0.031
0.081
0.006
0.129
-0.062
-0.008
-0.022
0.002
-0.047
0.050
0.003
0.028
0.003
-0.072
0.139
0.030
0.043
0.056
-0.041
-0.048
0.003
-0.000
0.007
0.071
0.084
0.040
0.005
-0.066
0.022
-0.043
0.065
0.038
-0.032
-0.039
0.017
-0.006
0.027
0.025
0.028
0.039
-0.030
0.033
0.145
0.057
-0.045
-0.111
-0.140
-0.001
0.202
0.076
-0.031
-0.100
-0.041
-0.021
0.085
-0.007
0.061
-0.012
-0.061
0.010
0.069
0.036
0.045
0.099
-0.059
-0.026
0.021
0.021
-0.015
-0.015
-0.006
0.052
-0.019
0.092
0.147
0.069
-0.056
-0.020
0.034
0.058
0.027
0.026
0.083
-0.073
-0.005
-0.006
0.031
0.050
0.012
0.064
-0.065
0.005
0.018
-0.039
0.082
-0.047
0.035
0.002
0.182
0.452
0.010
-0.389
-0.488
-0.194
0.173
0.336
0.214
0.090
0.007
-0.078
-0.139
-0.126
0.048
0.002
0.131
0.005
0.067
0.050
0.062
0.191
0.043
-0.009
-0.029
0.031
-0.006
-0.034
-0.025
0.121
0.013
-0.058
-0.102
0.040
0.049
0.050
-0.007
-0.045
-0.050
0.171
-0.015
-0.043
0.024
-0.091
0.133
-0.001
0.013
0.051
-0.058
-0.021
0.048
0.034
0.063
-0.015
-0.095
0.027
0.035
0.091
0.043
-0.017
0.021
0.037
0.022
0.028
-0.050
0.031
0.048
0.021
0.092
0.024
-0.019
0.072
-0.068
0.067
0.056
0.018
0.027
-0.029
-0.015
0.062
0.073
-0.060
0.037
-0.031
0.020
0.033
0.035
0.000
0.003
0.068
-0.027
-0.004
0.084
0.011
-0.047
0.018
0.032
0.001
0.089
0.018
0.019
0.020
0.059
-0.040
0.043
0.043
0.084
-0.103
0.130
-0.066
-0.027
-0.020
0.074
0.004
0.001
0.017
0.064
0.021
0.019
-0.021
0.100
-0.051
0.117
0.069
0.083
0.135
-0.044
-0.051
-0.027
0.071
-0.024
0.098
-0.063
-0.006
0.001
0.023
0.058
0.158
-0.060
-0.064
0.004
0.014
-0.065
0.076
0.019
0.024
-0.012
-0.040
0.022
-0.068
-0.055
0.024
0.056
0.046
0.031
-0.028
0.007
0.053
0.023
0.021
0.070
0.019
-0.017
-0.049
0.062
0.046
0.433
0.172
-0.305
-0.534
-0.315
-0.053
0.353
0.313
0.203
0.002
-0.037
-0.101
-0.088
-0.015
0.074
0.032
0.018
0.182
0.099
-0.020
0.106
0.046
-0.023
-0.039
0.009
-0.089
-0.063
-0.007
0.061
0.073
-0.079
0.042
0.127
0.006
-0.079
-0.025
0.036
-0.030
0.009
0.044
0.031
-0.059
-0.064
-0.031
-0.000
0.120
0.008
-0.044
0.073
0.130
-0.055
-0.006
0.019
0.061
0.042
-0.081
0.099
0.182
0.006
-0.113
-0.010
0.036
-0.004
-0.011
0.028
0.058
0.032
-0.034
0.016
-0.094
0.099
0.017
0.008
0.075
0.128
-0.022
-0.026
-0.061
0.038
0.035
0.094
0.093
-0.073
0.067
0.000
-0.050
0.102
0.039
-0.042
0.138
-0.027
-0.047
-0.018
0.052
-0.082
0.037
0.066
-0.099
0.037
0.116
0.060
-0.037
-0.012
0.043
-0.011
0.060
0.004
0.010
0.010
0.086
-0.015
0.077
0.059
-0.029
-0.019
-0.009
0.064
0.054
-0.036
0.043
0.012
-0.017
0.059
0.002
0.064
0.083
0.067
-0.044
0.032
0.027
-0.068
0.011
0.113
0.097
-0.043
-0.022
-0.008
-0.013
0.079
-0.005
0.091
0.045
0.014
0.025
0.009
0.062
0.095
-0.076
-0.006
0.100
0.062
0.052
-0.020
-0.099
0.030
-0.011
0.055
-0.001
-0.056
0.119
0.103
0.046
-0.088
0.156
0.324
-0.100
-0.403
-0.553
-0.135
0.283
0.437
0.225
0.038
0.001
-0.162
-0.121
-0.070
0.041
0.004
0.015
0.028
0.061
0.054
0.075
0.074
0.033
-0.003
0.067
-0.126
-0.050
0.118
0.049
-0.068
-0.034
-0.023
-0.040
0.044
0.031
0.122
0.010
-0.106
0.052
0.023
0.062
0.040
-0.003
-0.034
0.011
0.061
-0.090
0.013
0.047
0.010
-0.042
0.038
0.098
-0.028
0.041
-0.001
-0.079
-0.004
0.080
-0.117
0.091
0.017
0.009
0.009
0.082
0.075
-0.111
0.013
0.075
0.030
0.051
0.008
-0.015
0.045
0.002
0.094
-0.037
0.164
0.044
-0.020
-0.012
0.034
0.079
-0.017
-0.060
-0.073
0.124
0.137
0.028
-0.086
-0.061
0.035
0.142
-0.004
0.056
-0.053
-0.040
-0.014
0.111
0.099
-0.053
0.054
-0.028
0.050
0.069
0.078
-0.000
0.000
-0.022
-0.014
-0.060
0.123
-0.014
-0.037
0.019
0.132
-0.027
0.025
-0.010
0.022
0.043
-0.007
0.083
-0.025
0.056
0.022
-0.028
0.087
-0.011
0.009
0.087
-0.021
-0.056
-0.031
0.030
0.160
0.036
-0.038
-0.097
0.080
-0.023
0.019
0.012
0.038
-0.013
-0.003
-0.013
-0.003
-0.055
0.077
0.036
-0.036
-0.017
0.031
0.015
0.093
0.074
-0.105
0.011
-0.013
0.052
0.138
0.401
0.125
-0.278
-0.579
-0.330
0.120
0.380
0.212
0.080
0.039
-0.076
-0.122
-0.147
-0.046
-0.033
0.057
0.150
0.118
0.034
0.134
-0.026
0.094
0.120
-0.018
-0.059
-0.006
0.028
0.014
-0.028
0.045
0.038
0.097
0.104
0.007
-0.029
-0.002
0.093
-0.026
0.074
-0.020
0.012
0.014
0.030
0.015
0.049
0.001
-0.056
0.066
0.075
-0.013
0.032
0.011
0.048
0.043
0.024
-0.023
0.016
0.107
-0.022
0.036
0.089
-0.109
-0.001
0.154
-0.007
-0.099
0.113
0.010
0.052
0.035
0.112
0.037
-0.007
-0.021
-0.013
0.088
0.019
0.095
-0.046
0.061
-0.093
0.142
0.064
-0.063
-0.036
0.031
0.049
0.076
0.044
0.003
-0.037
0.057
-0.016
0.039
0.086
-0.042
0.042
0.005
-0.031
0.003
0.017
-0.014
-0.032
-0.078
0.041
0.060
0.039
-0.008
-0.008
0.008
0.081
-0.054
0.001
0.000
0.112
-0.031
0.037
-0.040
-0.010
0.070
0.064
-0.107
0.006
0.047
-0.011
0.060
0.040
-0.070
0.031
0.023
0.050
0.085
-0.032
-0.038
0.023
-0.028
-0.036
0.027
0.037
-0.087
-0.005
-0.059
0.057
0.065
-0.056
0.058
0.243
0.329
0.081
-0.499
-0.514
-0.145
0.217
0.432
0.271
0.093
-0.051
-0.103
-0.193
-0.107
0.019
0.059
0.011
0.210
0.106
0.018
0.061
0.051
0.060
0.036
0.002
0.010
-0.010
-0.018
0.005
-0.030
0.113
0.006
-0.003
0.038
0.035
-0.126
-0.044
-0.032
0.064
0.023
0.090
0.015
-0.004
-0.058
-0.045
0.074
0.116
-0.001
0.021
-0.052
-0.093
0.109
-0.030
0.068
0.107
0.016
-0.052
0.089
-0.040
-0.035
0.005
0.091
0.044
0.115
-0.073
-0.043
-0.031
0.030
0.046
0.039
0.057
0.006
-0.005
-0.017
0.002
0.032
-0.012
0.102
-0.002
-0.044
-0.036
-0.029
0.036
0.038
0.121
-0.024
-0.016
-0.004
-0.008
-0.050
0.098
0.030
-0.026
0.011
-0.074
0.148
0.049
0.004
0.008
0.086
0.013
-0.097
0.004
-0.011
-0.047
-0.013
-0.004
0.124
0.023
-0.021
-0.003
0.024
0.017
-0.035
0.069
0.054
-0.064
0.032
0.086
-0.022
-0.081
0.019
0.018
0.073
-0.024
-0.042
0.028
0.119
0.002
-0.043
0.022
0.084
-0.026
0.045
-0.086
0.039
0.083
0.043
0.031
0.049
0.039
0.008
-0.073
0.031
0.043
-0.090
0.025
0.192
0.569
0.189
-0.435
-0.702
-0.269
0.122
0.429
0.398
0.108
0.025
-0.152
-0.118
-0.199
0.022
0.157
-0.003
0.026
0.076
0.140
0.008
0.051
-0.014
0.074
-0.002
-0.036
0.020
-0.028
0.034
0.037
-0.011
-0.160
0.027
-0.052
-0.027
0.065
0.043
0.082
0.036
-0.006
-0.062
0.132
0.047
0.065
0.038
-0.018
-0.064
-0.002
0.035
0.094
0.079
0.019
0.002
0.037
0.005
0.016
0.001
0.062
-0.095
0.006
0.024
0.081
0.082
0.060
0.018
0.015
0.065
-0.010
-0.050
-0.031
0.068
0.005
0.018
0.053
0.004
0.029
0.027
-0.019
0.051
-0.026
-0.003
-0.000
0.053
-0.026
0.062
-0.025
-0.010
0.119
0.076
-0.020
-0.016
0.068
0.010
-0.003
0.096
-0.096
0.053
0.071
-0.052
-0.016
-0.001
0.142
-0.012
0.061
-0.073
-0.060
-0.024
0.120
0.144
-0.054
-0.091
0.032
0.110
-0.018
-0.044
-0.097
0.009
0.070
0.039
0.079
0.006
-0.007
0.039
-0.043
0.071
0.058
-0.032
0.100
0.006
0.008
-0.139
0.057
0.014
0.026
-0.007
0.057
-0.121
-0.004
0.069
0.066
0.002
-0.003
-0.136
0.084
0.111
0.102
-0.103
0.008
-0.012
-0.010
0.108
0.079
0.006
0.001
-0.053
0.046
0.144
0.016
0.006
-0.024
-0.004
0.314
0.201
-0.100
-0.522
-0.490
-0.084
0.290
0.446
0.152
0.102
-0.095
-0.179
-0.109
0.017
-0.032
0.081
0.116
0.010
0.078
0.151
0.002
0.025
0.038
0.093
0.002
-0.124
0.076
-0.071
-0.019
-0.008
0.059
0.024
-0.008
0.004
-0.039
-0.036
0.112
0.136
0.092
-0.051
-0.030
0.072
0.003
0.034
0.088
0.078
-0.044
-0.002
-0.023
0.062
0.059
0.002
-0.061
0.081
-0.047
0.001
0.078
0.072
-0.032
0.068
-0.010
0.080
-0.064
0.112
0.057
0.024
0.012
0.043
-0.022
0.034
0.003
-0.036
-0.017
0.053
0.012
-0.068
-0.046
0.086
-0.015
-0.027
0.024
-0.046
0.031
0.023
0.093
0.089
0.018
0.049
-0.003
0.052
0.013
0.083
0.055
0.067
-0.041
-0.132
0.070
0.128
-0.027
0.022
0.008
-0.049
0.046
-0.026
0.134
0.024
0.024
-0.059
0.039
0.113
-0.045
-0.061
0.037
0.091
0.040
-0.042
0.009
0.011
-0.008
0.129
0.046
-0.021
0.076
0.009
0.002
-0.015
-0.083
0.215
0.116
0.034
-0.035
-0.039
-0.093
0.000
0.021
0.064
0.070
0.032
-0.020
-0.011
0.037
-0.034
0.039
-0.147
0.050
0.078
0.041
0.081
0.072
0.032
0.089
-0.063
-0.058
0.100
0.114
-0.033
0.016
0.066
-0.088
0.008
0.068
0.210
0.315
-0.032
-0.470
-0.534
-0.175
0.260
0.422
0.213
0.122
-0.067
-0.120
-0.173
0.023
-0.025
0.069
0.136
0.115
0.134
0.118
0.062
0.011
0.009
-0.072
-0.013
-0.057
0.138
-0.001
-0.122
-0.035
-0.006
-0.030
0.025
0.091
0.063
-0.055
0.064
-0.011
-0.005
-0.034
0.012
-0.014
-0.027
-0.005
0.004
-0.059
0.048
0.136
0.105
-0.062
-0.098
0.016
-0.059
0.066
0.052
0.034
0.061
0.053
-0.003
-0.017
-0.003
0.105
-0.006
0.009
-0.053
0.025
0.025
-0.023
0.041
0.044
0.013
0.102
0.014
-0.075
0.034
0.070
0.046
-0.061
-0.093
0.099
0.058
-0.033
0.010
-0.077
0.064
0.020
0.068
0.070
0.039
-0.011
-0.059
-0.086
0.021
0.027
0.029
0.032
0.031
0.014
0.054
-0.074
0.019
-0.069
-0.014
0.080
0.020
0.028
0.038
-0.016
0.022
0.007
0.069
0.013
0.070
0.011
0.035
0.072
-0.036
-0.030
-0.076
0.094
0.009
0.033
0.089
0.031
-0.156
0.033
0.110
0.126
-0.039
0.033
-0.057
-0.051
0.134
-0.019
-0.053
0.033
-0.010
-0.010
-0.003
0.004
0.381
0.263
0.002
-0.441
-0.546
-0.124
0.264
0.409
0.174
0.071
-0.049
-0.103
-0.033
-0.015
0.039
0.089
0.009
0.037
0.075
0.069
0.123
-0.005
-0.018
-0.008
-0.043
0.046
0.084
0.019
-0.019
-0.088
-0.075
0.028
0.044
0.004
0.079
-0.002
0.011
0.119
0.093
0.044
-0.014
-0.016
0.083
-0.054
-0.004
-0.025
0.084
0.022
0.031
-0.004
-0.007
0.009
0.002
0.102
-0.006
0.092
0.033
0.090
0.118
-0.064
-0.075
-0.071
-0.025
0.031
0.003
-0.025
0.077
0.009
0.013
0.119
-0.003
0.002
0.032
0.084
0.061
0.014
0.065
0.015
-0.011
-0.013
0.033
0.021
0.048
-0.008
-0.037
0.061
0.032
0.020
0.047
0.027
0.075
0.039
-0.009
-0.089
-0.042
0.060
-0.075
-0.062
-0.016
0.013
-0.019
0.060
-0.006
0.004
0.056
0.052
0.001
-0.024
0.009
0.063
0.043
-0.066
-0.009
-0.001
0.081
0.164
0.028
-0.014
0.058
-0.070
-0.053
0.027
0.073
-0.014
-0.018
-0.010
0.028
0.066
0.054
0.011
0.015
0.008
0.027
0.014
0.007
-0.005
-0.057
0.065
-0.007
0.042
-0.072
0.039
-0.052
-0.066
0.059
0.073
-0.074
0.002
-0.027
-0.056
0.150
0.048
-0.028
-0.068
-0.045
0.039
0.017
0.066
-0.028
-0.037
-0.007
0.063
0.090
-0.010
-0.035
-0.037
0.028
0.041
0.078
0.006
0.019
0.087
0.087
-0.088
0.037
0.094
-0.009
0.061
0.043
0.068
0.096
-0.095
-0.020
-0.036
-0.053
-0.066
0.079
0.023
0.374
0.261
-0.263
-0.570
-0.412
-0.039
0.361
0.454
0.115
-0.086
-0.227
-0.088
-0.035
0.017
0.091
0.042
0.067
0.130
0.096
0.071
-0.032
0.032
0.038
-0.002
-0.009
0.051
-0.038
0.011
-0.106
0.032
0.062
0.033
-0.079
-0.053
0.037
0.063
-0.008
0.079
0.049
0.012
-0.060
0.018
0.022
0.048
0.078
0.077
0.025
0.010
-0.125
0.018
0.061
0.086
0.065
0.058
-0.009
0.007
0.081
-0.028
0.007
0.027
0.023
0.026
0.005
-0.068
0.013
0.020
0.100
-0.009
0.072
-0.009
-0.031
-0.019
0.029
0.048
-0.054
0.043
-0.009
0.012
0.041
0.062
0.025
0.018
0.033
0.007
0.034
0.089
-0.030
0.058
0.042
0.009
-0.060
0.024
0.072
-0.018
0.047
0.052
0.048
0.059
-0.045
0.021
0.081
-0.007
0.069
-0.037
0.015
0.059
0.062
-0.013
0.084
-0.037
0.018
-0.047
0.040
0.016
0.072
-0.015
0.005
-0.052
-0.059
0.097
0.051
-0.033
-0.028
0.035
0.082
0.015
-0.059
0.001
0.059
0.129
0.065
-0.006
0.043
-0.022
0.102
0.027
0.048
-0.013
-0.035
0.060
-0.012
0.012
-0.020
0.020
0.047
0.025
0.004
-0.019
0.019
-0.021
0.020
0.057
0.025
-0.067
0.011
-0.031
0.047
0.035
-0.004
-0.000
-0.023
0.061
-0.039
0.068
0.027
-0.045
-0.059
-0.010
0.048
-0.017
0.072
-0.027
0.006
-0.053
0.127
0.172
0.058
-0.005
0.189
0.304
0.049
-0.467
-0.448
-0.145
0.205
0.380
0.292
0.002
-0.069
-0.147
-0.032
0.076
-0.029
-0.023
-0.063
-0.004
0.060
0.067
0.192
0.103
-0.037
0.042
-0.016
0.017
0.014
-0.053
-0.068
0.013
0.011
-0.044
0.057
0.044
-0.014
0.023
0.021
0.039
0.078
-0.013
0.016
0.071
-0.139
0.029
-0.001
-0.013
-0.086
-0.003
0.109
0.055
0.066
0.026
0.024
0.076
-0.065
-0.010
0.109
0.038
0.073
0.016
0.012
0.030
0.038
0.040
-0.025
0.045
-0.013
0.027
0.014
0.042
0.013
0.081
-0.003
-0.081
-0.040
0.022
0.013
-0.015
0.048
0.060
-0.014
0.006
0.006
0.013
0.012
0.023
0.085
0.071
-0.008
-0.055
0.057
0.022
0.022
0.008
0.043
0.033
0.028
-0.073
-0.070
0.092
0.225
0.046
-0.061
-0.117
-0.113
-0.030
0.016
0.009
0.035
0.008
0.097
0.036
0.093
-0.030
-0.029
0.078
-0.081
-0.056
0.094
0.027
0.261
0.441
0.048
-0.352
-0.558
-0.163
0.201
0.303
0.289
0.080
0.025
-0.164
-0.011
-0.053
-0.051
0.069
0.010
0.077
0.065
0.079
0.176
0.002
-0.050
0.018
-0.007
-0.003
-0.019
0.002
0.003
-0.061
-0.015
0.029
0.055
-0.058
0.034
0.032
-0.009
0.006
0.087
-0.016
0.007
-0.015
-0.005
0.092
0.064
0.069
0.056
0.004
-0.023
-0.038
0.093
0.013
0.013
0.071
0.040
0.011
0.075
-0.019
0.085
0.007
-0.009
0.020
-0.076
0.048
0.033
0.078
-0.002
0.107
-0.069
0.085
0.001
0.049
0.016
0.020
-0.135
-0.094
0.040
0.009
-0.002
0.053
0.044
0.002
0.001
-0.025
0.045
0.018
-0.042
-0.026
-0.018
0.055
0.031
0.020
-0.040
0.035
0.098
0.029
0.082
-0.018
0.033
0.138
0.054
-0.145
-0.032
0.088
0.020
-0.032
0.067
-0.015
0.024
0.022
0.067
-0.064
-0.032
0.064
-0.029
-0.034
-0.028
-0.041
-0.069
-0.045
0.067
0.014
0.016
0.054
0.041
0.051
-0.011
0.003
0.018
0.020
-0.026
0.005
-0.020
0.011
0.097
0.066
-0.012
-0.028
0.019
-0.088
0.130
0.284
0.099
-0.396
-0.534
-0.230
0.105
0.419
0.326
0.119
-0.064
-0.092
-0.153
0.063
-0.039
-0.004
0.010
0.034
0.149
0.085
0.167
0.038
0.034
-0.092
-0.152
0.019
0.027
0.204
-0.029
-0.206
0.043
-0.002
-0.031
-0.020
0.074
0.073
-0.012
0.058
-0.040
0.036
-0.070
-0.097
0.100
0.057
0.010
0.065
-0.018
-0.068
0.114
-0.019
-0.084
0.063
0.132
0.074
0.009
0.007
0.006
0.075
0.076
0.020
0.052
-0.025
0.063
0.019
-0.031
-0.036
0.025
-0.034
-0.016
0.020
-0.116
0.088
0.176
0.024
0.021
0.033
0.029
0.047
-0.064
0.018
0.119
0.015
-0.007
-0.064
0.014
0.032
0.021
0.084
0.050
0.033
0.035
-0.031
-0.078
-0.035
0.081
0.057
0.096
-0.026
0.031
0.057
0.041
-0.035
0.047
0.002
0.075
-0.038
0.128
0.033
0.012
-0.049
-0.058
-0.059
0.072
-0.001
0.045
0.025
0.004
-0.052
0.035
-0.034
0.033
0.016
0.047
0.101
0.054
-0.031
-0.010
0.084
-0.080
0.042
0.007
0.007
0.149
-0.012
0.009
0.053
0.033
0.021
-0.076
0.064
0.036
0.023
-0.089
-0.025
0.004
0.028
0.031
0.029
0.005
0.023
0.100
0.060
-0.024
-0.069
0.058
-0.054
0.056
0.083
0.550
0.233
-0.297
-0.549
-0.313
0.018
0.357
0.326
0.207
0.072
-0.075
-0.237
-0.141
-0.017
-0.028
0.090
0.017
0.091
0.075
0.009
0.061
0.117
0.039
-0.017
0.130
-0.058
-0.049
0.020
0.018
0.102
0.025
0.026
-0.011
0.015
-0.035
0.011
-0.022
0.076
0.025
0.063
-0.062
0.022
-0.015
0.079
0.128
0.069
-0.013
0.005
0.061
-0.023
0.098
0.094
0.024
-0.036
-0.002
-0.029
-0.111
0.096
0.088
0.077
0.039
-0.008
-0.050
0.014
0.058
-0.052
0.034
-0.020
0.078
0.054
-0.058
-0.069
0.077
0.049
-0.033
0.019
0.096
-0.008
0.066
0.035
0.018
0.021
-0.006
-0.088
0.023
0.010
0.086
0.081
0.131
-0.025
-0.104
0.002
-0.050
-0.092
0.140
0.020
0.069
-0.037
0.040
-0.063
-0.012
0.083
0.029
0.023
0.008
-0.021
-0.006
0.012
0.002
-0.011
0.057
0.007
0.037
0.085
0.016
0.020
-0.044
0.040
0.021
0.028
-0.007
-0.074
0.075
0.093
0.101
-0.073
-0.032
0.008
0.032
-0.037
0.002
-0.022
0.345
0.346
-0.140
-0.562
-0.493
-0.173
0.250
0.433
0.226
0.039
-0.052
-0.145
-0.035
-0.005
-0.066
-0.002
0.036
0.186
0.077
0.118
-0.026
0.030
0.045
0.072
-0.016
-0.015
0.007
-0.017
-0.009
-0.010
-0.053
-0.014
-0.031
-0.039
0.036
0.089
0.035
-0.024
0.029
0.076
0.028
-0.041
-0.054
0.101
-0.036
-0.006
-0.015
-0.039
-0.012
0.075
0.006
0.036
0.018
0.036
-0.006
0.068
-0.036
0.000
0.062
0.014
-0.030
0.098
0.008
0.039
0.027
-0.020
-0.057
0.147
0.055
0.050
0.035
-0.064
-0.031
0.059
-0.016
0.043
0.027
0.016
-0.016
-0.001
0.012
-0.055
-0.010
0.203
-0.025
0.013
-0.001
-0.056
0.074
0.108
0.036
-0.035
0.094
-0.041
-0.006
0.024
0.101
0.002
0.067
-0.018
0.028
0.084
0.058
0.000
-0.022
0.068
-0.000
-0.055
0.012
-0.013
-0.001
0.001
0.022
0.064
0.006
0.089
-0.053
0.125
0.012
0.015
-0.025
0.123
0.014
-0.001
-0.046
0.000
-0.026
0.017
-0.001
0.033
0.019
0.016
0.028
0.001
0.117
0.501
0.024
-0.396
-0.522
-0.223
0.031
0.441
0.361
0.080
-0.030
-0.132
-0.213
-0.064
-0.085
-0.033
0.071
0.067
0.068
0.167
0.083
0.047
-0.012
-0.011
-0.027
0.009
0.106
-0.053
-0.044
0.031
-0.027
0.045
-0.055
-0.081
-0.047
0.086
0.051
0.042
0.045
0.036
-0.042
-0.043
0.104
0.040
0.009
0.044
-0.005
0.035
-0.050
0.061
0.021
0.028
0.012
-0.002
-0.053
0.087
-0.009
0.034
0.029
-0.091
-0.177
0.096
0.210
0.128
-0.029
0.016
0.003
-0.062
0.094
-0.057
0.013
0.045
-0.002
0.035
0.011
0.056
-0.072
0.013
0.079
0.080
0.059
-0.003
0.093
-0.075
-0.029
0.016
0.127
0.043
-0.009
0.092
0.005
-0.051
0.003
0.111
0.061
-0.067
-0.030
0.030
0.052
0.066
0.057
-0.055
0.014
0.157
-0.077
-0.071
0.020
0.148
0.164
-0.047
0.012
-0.044
-0.004
0.094
-0.020
0.011
0.015
0.070
0.104
-0.044
-0.048
-0.121
-0.005
0.085
0.108
0.040
-0.027
-0.017
0.082
-0.111
0.030
0.326
0.264
-0.124
-0.495
-0.417
-0.179
0.319
0.435
0.209
0.058
-0.106
-0.197
-0.029
0.018
0.036
-0.001
0.147
0.096
0.010
0.007
0.020
0.128
0.043
-0.005
-0.008
0.075
0.023
-0.119
-0.082
0.074
0.158
-0.010
-0.042
0.095
0.023
-0.050
0.047
-0.000
0.055
0.052
-0.025
0.015
-0.001
0.041
-0.020
-0.010
0.066
0.020
0.048
-0.059
-0.003
0.101
-0.016
-0.035
-0.046
-0.028
0.001
0.087
0.234
0.126
-0.073
-0.063
0.021
-0.044
0.010
0.037
0.044
0.019
0.048
-0.067
0.059
0.006
0.044
-0.026
-0.007
0.068
0.127
0.068
-0.042
0.064
0.075
-0.006
-0.053
0.061
0.049
0.022
-0.035
0.026
0.053
0.025
0.044
0.085
-0.003
-0.004
0.061
0.012
-0.017
-0.050
-0.025
0.055
0.129
0.114
-0.165
0.037
0.023
-0.019
0.033
0.033
0.046
0.024
0.051
0.002
0.038
0.071
-0.041
0.075
0.082
0.078
-0.050
0.078
-0.074
-0.009
0.018
0.053
0.047
0.027
-0.058
-0.049
0.067
0.091
0.018
0.011
-0.026
-0.059
0.011
0.093
0.125
0.004
0.404
0.090
-0.258
-0.518
-0.368
0.006
0.413
0.296
0.085
0.025
-0.023
-0.132
-0.109
-0.106
0.088
0.013
0.138
0.058
0.106
0.087
0.100
0.061
-0.016
0.040
0.042
-0.058
-0.056
0.005
0.078
-0.048
0.022
0.072
-0.027
-0.034
-0.030
0.091
0.047
0.003
0.020
0.025
-0.017
-0.007
0.067
-0.071
0.001
0.014
0.005
-0.010
-0.008
-0.069
0.018
-0.016
0.052
0.000
0.097
0.107
0.013
-0.003
-0.000
-0.002
0.045
0.042
-0.005
0.102
-0.056
0.013
0.014
0.045
0.040
0.134
-0.034
-0.019
0.058
0.024
0.024
-0.022
0.001
-0.009
-0.010
0.154
-0.019
0.058
-0.042
0.012
0.035
-0.011
-0.004
0.024
0.031
0.049
-0.053
0.068
0.209
0.007
-0.006
-0.096
0.056
-0.001
0.122
-0.016
0.039
-0.050
0.069
-0.066
-0.042
-0.001
0.059
0.033
0.108
-0.113
0.001
-0.014
-0.015
0.077
0.019
0.011
0.039
0.138
0.528
0.063
-0.374
-0.497
-0.280
0.076
0.469
0.270
0.126
0.070
-0.172
-0.109
-0.246
0.077
-0.004
0.052
0.111
0.075
0.045
0.061
0.030
0.027
-0.002
0.034
-0.028
0.002
0.028
-0.003
-0.009
-0.046
-0.004
0.001
0.048
0.000
-0.051
0.044
0.052
0.006
0.127
0.002
0.010
-0.014
0.080
-0.064
0.051
0.045
0.001
0.030
0.047
0.074
-0.035
-0.058
-0.045
0.106
0.059
-0.008
-0.057
0.056
0.001
0.063
0.103
0.094
-0.029
-0.026
0.014
0.084
0.029
0.032
-0.011
0.077
0.074
-0.070
-0.057
0.015
0.083
0.029
-0.031
0.074
-0.070
0.002
0.038
-0.050
-0.009
0.038
0.078
0.160
-0.052
-0.002
0.033
0.080
0.077
0.029
-0.039
-0.039
0.021
0.091
-0.008
0.034
0.045
-0.030
0.024
0.029
0.070
0.037
0.006
-0.022
-0.015
0.020
-0.008
0.093
0.074
-0.042
0.048
-0.021
0.059
-0.032
-0.008
-0.068
0.078
0.059
0.005
0.475
0.127
-0.389
-0.470
-0.337
0.007
0.374
0.357
0.081
0.022
-0.124
-0.002
-0.053
-0.085
-0.042
-0.043
0.069
0.108
-0.035
0.028
0.043
0.068
0.110
-0.012
-0.001
-0.130
-0.109
0.067
0.120
-0.022
-0.053
-0.089
0.057
0.055
0.009
-0.049
0.157
0.023
0.015
-0.072
-0.036
-0.053
-0.019
0.045
0.001
0.090
0.032
0.011
-0.025
0.015
0.068
-0.099
-0.030
0.096
0.034
-0.000
0.105
-0.016
0.086
-0.084
-0.021
-0.043
-0.030
-0.032
0.015
0.098
0.069
0.086
0.062
-0.099
-0.015
0.063
0.027
0.035
-0.011
0.043
0.010
0.017
0.077
0.054
0.080
-0.019
-0.022
0.056
0.027
-0.003
-0.012
0.004
0.013
0.127
0.027
-0.061
-0.076
-0.031
0.111
0.129
0.024
-0.099
0.023
0.105
-0.067
0.023
0.027
0.009
0.059
-0.008
0.090
0.052
-0.057
0.010
0.134
0.048
-0.005
0.018
0.040
0.225
0.549
0.006
-0.563
-0.593
-0.092
0.164
0.361
0.355
0.097
0.025
-0.069
-0.072
-0.133
-0.069
-0.038
0.066
0.080
0.055
0.078
0.059
0.073
-0.053
0.067
-0.023
-0.045
0.113
-0.009
-0.049
0.021
0.039
-0.004
0.124
-0.061
-0.007
0.016
0.068
0.036
0.044
-0.087
0.085
0.009
0.053
0.016
0.056
-0.027
0.051
0.055
0.062
-0.051
0.006
0.032
-0.015
-0.030
0.057
-0.010
0.087
-0.017
-0.053
-0.125
0.119
0.040
0.139
-0.028
0.004
-0.029
-0.050
0.020
0.075
0.058
0.054
-0.038
0.003
0.059
-0.062
0.055
0.015
0.074
0.041
-0.001
0.041
0.005
-0.017
-0.005
-0.068
0.015
-0.045
0.104
-0.010
-0.070
0.009
0.052
-0.025
0.007
0.109
0.060
-0.036
0.099
0.070
0.042
-0.005
0.012
0.072
0.112
-0.032
0.025
0.067
-0.066
0.066
-0.106
0.031
-0.030
0.015
0.075
-0.052
-0.055
0.105
-0.026
0.063
0.052
0.041
-0.086
-0.021
0.174
0.446
0.080
-0.354
-0.550
-0.222
0.118
0.396
0.178
0.106
-0.032
-0.145
-0.110
-0.072
-0.021
0.062
-0.009
0.064
0.079
0.208
0.071
-0.020
0.075
0.189
0.033
-0.072
-0.004
0.025
0.083
-0.006
-0.036
0.011
-0.023
0.033
0.067
0.037
-0.008
-0.067
0.038
-0.013
-0.065
-0.011
0.004
0.070
0.077
0.012
0.018
0.093
-0.022
0.029
0.035
-0.032
-0.039
0.080
-0.056
0.053
0.009
-0.074
0.015
0.001
0.005
0.037
-0.066
0.099
-0.046
-0.054
-0.057
0.105
0.110
0.033
-0.025
-0.054
0.119
0.115
0.100
-0.083
0.007
-0.022
0.041
-0.072
0.105
0.063
-0.096
-0.098
0.049
-0.054
0.005
0.094
0.008
0.033
-0.032
0.011
0.046
0.034
-0.039
-0.023
0.091
-0.153
0.007
0.070
0.084
0.048
0.041
0.034
0.054
0.045
-0.004
0.047
-0.064
-0.020
0.058
0.079
0.043
-0.046
-0.065
-0.005
0.089
-0.052
0.060
-0.062
0.022
0.122
0.034
-0.004
-0.042
0.052
0.084
0.088
-0.043
0.008
0.006
-0.065
0.117
0.022
0.029
0.155
0.376
0.115
-0.395
-0.564
-0.238
0.123
0.275
0.324
0.166
0.015
-0.112
-0.119
-0.147
-0.095
0.130
0.124
0.042
0.076
0.141
0.083
0.096
0.123
0.033
-0.036
-0.030
-0.042
0.057
-0.004
-0.010
-0.031
0.056
0.023
0.008
-0.011
-0.033
0.033
0.009
0.085
0.020
0.012
0.024
-0.017
0.054
-0.018
-0.035
-0.001
0.070
-0.022
-0.078
0.017
-0.007
0.028
-0.001
-0.012
-0.034
0.039
0.025
0.038
0.019
0.041
0.074
0.010
-0.028
-0.091
0.035
0.134
0.137
-0.062
-0.003
-0.118
0.108
0.108
0.026
0.008
0.177
-0.118
-0.078
-0.025
0.018
0.011
0.002
0.028
-0.051
-0.017
0.029
0.046
0.053
0.027
-0.002
-0.016
-0.015
0.133
0.033
0.020
0.075
-0.008
0.062
0.062
-0.024
0.048
0.077
-0.090
0.009
0.076
-0.012
-0.022
-0.016
0.037
-0.077
0.062
-0.027
0.071
0.019
0.035
0.030
-0.009
0.031
-0.051
-0.040
0.050
0.105
0.004
-0.014
-0.002
0.158
-0.053
0.057
0.099
-0.008
-0.010
0.025
0.016
0.115
0.108
0.090
-0.095
0.047
-0.026
-0.037
0.012
0.087
-0.002
-0.018
0.047
0.029
0.025
0.032
0.064
-0.017
-0.021
0.002
0.030
0.009
-0.024
0.004
0.067
-0.004
-0.132
0.032
0.151
-0.002
-0.059
0.045
0.005
0.049
0.288
0.242
0.018
-0.455
-0.515
-0.139
0.183
0.393
0.244
0.138
-0.047
-0.169
-0.106
-0.084
-0.017
0.019
0.059
0.061
0.144
0.137
0.114
0.063
0.007
0.010
-0.015
0.006
-0.067
0.025
0.037
0.073
0.027
-0.096
-0.046
0.035
0.046
0.041
-0.000
0.061
-0.062
-0.056
0.038
0.084
0.022
0.040
-0.005
0.037
0.020
-0.004
-0.014
0.027
0.004
0.073
0.021
-0.016
0.033
0.043
-0.031
-0.011
0.001
0.048
0.062
0.016
0.061
0.021
0.024
0.047
-0.110
0.019
0.064
0.014
0.036
0.038
-0.034
0.019
-0.004
0.047
-0.009
0.040
0.084
0.081
0.010
-0.046
-0.025
0.012
0.101
0.092
-0.059
-0.046
-0.033
-0.112
0.042
0.143
0.036
0.003
-0.041
0.113
0.083
0.003
-0.012
0.041
-0.085
0.112
0.027
0.025
0.017
-0.004
-0.020
0.033
0.043
-0.056
-0.043
-0.034
0.068
-0.041
-0.069
0.021
0.044
-0.023
-0.005
0.051
0.052
-0.051
0.055
0.117
-0.028
0.007
0.032
-0.011
0.107
0.089
0.001
-0.081
0.113
0.070
0.018
-0.016
-0.013
0.098
0.013
0.007
-0.034
0.015
0.093
-0.031
0.035
0.038
-0.074
-0.051
0.168
-0.005
0.105
0.012
-0.026
0.023
0.114
-0.026
0.064
-0.001
0.162
0.339
0.013
-0.462
-0.467
-0.169
0.077
0.311
0.335
0.130
0.070
-0.167
-0.110
-0.083
-0.086
0.025
0.083
0.012
0.090
0.079
0.108
0.120
0.099
-0.023
-0.125
0.015
-0.034
0.103
0.099
-0.048
0.064
-0.010
0.044
0.014
0.066
0.011
-0.070
-0.006
0.093
0.029
0.113
0.001
-0.059
0.136
0.038
-0.024
-0.097
0.120
-0.002
0.016
-0.035
-0.002
0.010
0.000
0.056
0.062
0.053
0.097
0.041
-0.084
-0.172
0.019
0.025
0.024
0.009
0.070
-0.026
0.077
0.016
0.046
-0.013
0.014
-0.026
0.038
0.077
0.004
0.036
0.054
0.032
0.021
0.044
0.009
0.019
0.030
0.058
0.068
-0.000
0.020
0.060
-0.037
0.040
0.050
-0.106
0.047
-0.055
0.054
0.093
0.052
-0.069
-0.097
0.021
0.150
0.049
0.001
-0.020
0.008
0.055
0.070
0.023
0.025
0.036
0.048
0.030
0.092
-0.005
-0.043
-0.007
0.091
-0.034
0.012
0.004
-0.077
-0.069
0.034
0.027
0.019
0.000
-0.098
0.118
-0.050
0.070
0.050
0.027
-0.002
0.079
-0.031
-0.075
-0.019
0.125
0.091
0.077
0.034
-0.036
0.005
-0.022
-0.001
0.209
0.225
-0.011
-0.433
-0.487
-0.143
0.287
0.411
0.189
0.094
-0.139
-0.095
0.014
-0.124
-0.093
0.035
0.075
0.123
0.077
0.106
0.043
0.067
0.005
0.049
0.055
0.071
-0.071
-0.136
-0.028
0.042
-0.063
0.008
-0.032
0.092
-0.047
0.011
0.025
-0.022
0.052
0.110
0.022
-0.074
0.015
0.049
-0.017
0.091
-0.026
0.008
0.180
0.088
0.056
-0.150
-0.065
0.046
0.143
-0.003
-0.012
0.001
0.049
-0.018
0.054
0.038
-0.013
-0.062
0.019
0.061
0.019
-0.023
0.087
-0.048
0.091
-0.029
-0.124
0.040
0.028
0.008
0.008
-0.016
0.032
0.070
0.040
-0.061
0.037
-0.047
-0.022
0.001
0.072
0.085
0.072
0.006
0.043
0.013
0.123
-0.081
0.080
-0.042
0.134
0.009
0.067
-0.063
-0.078
0.113
0.029
-0.095
-0.028
-0.027
-0.012
0.199
0.014
-0.042
0.098
-0.145
0.008
-0.001
0.002
0.037
0.094
0.060
0.017
-0.021
0.032
-0.022
-0.047
0.003
-0.015
0.024
0.032
0.123
0.051
-0.023
-0.002
0.062
0.041
0.025
0.119
0.026
-0.094
-0.061
0.005
0.051
0.119
-0.040
0.049
0.035
-0.005
0.022
-0.005
-0.023
0.048
0.005
-0.039
0.005
-0.022
0.086
0.075
0.021
0.066
0.003
0.035
0.008
0.047
0.034
-0.048
-0.013
0.084
0.073
0.035
0.038
0.439
0.144
-0.301
-0.561
-0.269
0.050
0.360
0.339
0.136
-0.039
-0.176
-0.137
-0.113
-0.043
0.128
0.151
0.068
0.081
-0.013
0.111
0.072
-0.047
-0.011
0.015
-0.063
0.044
0.046
0.002
-0.114
0.023
-0.006
0.048
0.045
-0.005
-0.048
0.074
0.065
-0.000
-0.015
0.058
0.001
0.025
0.002
0.043
-0.030
0.071
-0.086
-0.059
-0.047
-0.012
0.087
-0.029
-0.028
0.062
-0.039
0.048
0.030
-0.079
0.026
0.042
0.182
0.127
-0.029
-0.012
0.119
-0.010
0.021
0.102
0.000
0.001
0.005
-0.114
0.072
0.079
-0.091
0.011
0.037
-0.017
0.003
-0.114
0.043
0.014
0.096
0.033
0.086
-0.108
-0.100
0.049
-0.024
0.033
0.088
0.032
0.102
0.013
0.025
0.011
0.056
-0.003
-0.108
0.102
-0.063
0.141
-0.050
0.064
0.054
-0.001
0.017
0.115
-0.005
-0.067
0.051
0.058
-0.035
-0.017
0.024
0.057
0.052
-0.061
0.009
0.023
-0.014
-0.002
0.032
0.080
0.005
-0.058
-0.015
-0.041
0.075
0.033
0.124
0.004
-0.012
-0.045
0.049
-0.062
-0.033
0.099
0.109
-0.078
0.019
-0.075
0.078
0.018
-0.041
0.078
0.120
-0.051
-0.013
0.057
0.076
0.469
0.137
-0.349
-0.526
-0.266
-0.034
0.318
0.344
0.242
0.018
-0.106
-0.249
-0.045
-0.051
-0.042
0.076
0.026
0.088
0.160
0.041
0.039
0.016
0.056
-0.001
0.036
0.014
-0.060
-0.025
0.035
-0.066
0.002
0.028
-0.027
0.052
0.071
0.001
0.063
-0.058
-0.074
-0.128
0.089
0.003
0.102
0.001
0.011
0.060
0.009
-0.003
-0.024
0.024
0.060
0.100
-0.025
-0.008
-0.005
0.052
-0.016
0.008
0.045
-0.008
0.003
0.047
0.117
0.034
-0.005
-0.089
0.066
0.086
-0.016
0.075
-0.049
0.093
-0.083
0.007
0.051
-0.064
0.008
0.077
0.007
-0.042
0.024
0.112
0.101
-0.032
-0.122
0.014
0.042
0.077
-0.059
-0.034
0.018
0.037
0.120
-0.009
0.006
0.062
0.025
0.015
0.024
0.017
-0.105
0.051
0.051
0.024
0.093
0.013
0.007
0.125
0.078
0.023
-0.026
0.016
-0.117
0.021
0.064
0.136
0.042
-0.137
-0.069
0.125
0.011
-0.002
0.027
0.102
0.016
-0.029
0.080
0.018
0.003
-0.001
-0.005
0.070
0.106
0.034
0.006
0.012
0.003
-0.107
-0.009
0.069
0.130
0.116
-0.017
-0.089
-0.020
0.003
0.010
0.004
-0.017
0.060
0.077
0.017
0.005
0.005
0.118
0.083
-0.001
0.046
0.446
0.089
-0.264
-0.481
-0.293
0.078
0.274
0.233
0.111
-0.005
-0.102
-0.121
-0.116
-0.006
-0.027
0.067
0.119
0.109
0.237
0.074
-0.106
0.082
0.032
0.103
-0.058
0.027
-0.032
0.012
-0.015
-0.017
0.034
-0.061
0.072
-0.104
0.022
0.052
-0.002
0.039
-0.061
0.043
0.103
0.061
0.031
-0.016
-0.019
0.024
0.028
0.089
0.011
-0.026
0.093
0.102
0.039
-0.032
-0.000
0.073
-0.009
-0.008
0.033
0.008
-0.009
-0.044
-0.022
0.167
-0.011
0.092
-0.024
-0.002
0.067
0.097
0.015
-0.113
-0.029
-0.018
0.012
0.134
0.039
0.064
-0.091
0.012
0.142
0.012
-0.071
0.140
-0.051
0.063
0.032
-0.004
0.107
0.025
0.011
0.136
0.010
-0.002
-0.035
-0.023
0.105
0.070
-0.089
0.066
0.009
-0.037
0.202
-0.092
-0.058
-0.007
0.088
0.050
0.108
0.030
-0.044
-0.047
-0.038
-0.110
0.136
0.100
0.133
0.111
-0.075
-0.128
0.008
0.129
0.048
0.011
0.051
-0.020
-0.037
0.128
-0.048
0.011
-0.143
0.185
0.062
0.038
-0.056
0.058
0.035
0.001
-0.100
0.014
0.021
0.075
0.064
-0.001
0.043
-0.039
-0.037
0.006
-0.034
0.010
0.069
0.009
0.051
0.188
0.372
0.065
-0.427
-0.432
-0.178
0.081
0.383
0.311
0.059
-0.103
-0.067
-0.093
-0.094
-0.033
0.077
0.077
0.062
0.048
0.060
0.070
0.003
0.061
-0.066
0.068
0.008
-0.023
-0.046
0.077
-0.007
-0.023
-0.029
-0.045
0.096
0.221
-0.099
0.037
-0.028
-0.032
0.068
-0.043
-0.012
0.027
-0.020
0.090
0.050
-0.010
-0.011
-0.082
0.007
0.109
0.056
0.019
0.004
0.119
0.006
0.111
0.064
-0.018
0.052
-0.006
0.018
-0.044
-0.016
0.037
0.112
-0.079
0.076
0.058
-0.073
-0.094
0.127
-0.034
0.045
0.108
0.061
0.003
0.013
0.039
0.062
0.041
0.001
0.014
0.101
-0.060
-0.047
0.200
0.041
0.002
-0.005
0.001
0.040
-0.030
0.069
0.028
0.005
0.029
0.060
0.002
-0.002
0.030
-0.022
0.074
0.056
-0.101
-0.072
0.062
0.021
0.184
-0.004
0.002
0.019
0.056
-0.006
0.010
-0.032
-0.009
0.034
0.110
0.075
0.049
0.091
-0.091
-0.146
0.052
0.063
0.121
0.138
0.032
-0.041
-0.123
-0.064
-0.016
0.032
0.022
0.090
0.043
0.006
-0.033
0.135
0.030
-0.021
-0.074
0.067
0.026
-0.021
0.032
0.017
0.053
0.039
0.051
-0.049
0.043
-0.031
-0.026
-0.074
0.113
0.091
0.125
0.012
-0.062
-0.090
0.053
0.508
0.260
-0.210
-0.602
-0.320
0.057
0.284
0.250
0.190
0.006
-0.119
-0.061
-0.094
-0.020
0.076
0.091
0.005
0.002
0.029
0.101
0.033
0.090
0.048
-0.005
0.048
-0.013
0.001
-0.055
0.002
0.007
0.040
0.001
0.017
0.017
0.004
0.057
-0.054
0.075
0.087
-0.023
0.083
0.036
0.019
0.025
0.052
0.092
-0.049
-0.076
-0.006
0.071
0.070
-0.044
0.087
0.070
-0.007
-0.086
0.001
-0.036
0.158
0.142
0.022
-0.091
-0.057
0.098
0.090
-0.073
0.044
-0.066
0.056
-0.007
0.068
0.005
-0.002
0.042
0.040
-0.006
-0.035
0.086
-0.036
0.045
0.019
0.042
-0.024
0.029
0.060
0.045
0.037
-0.021
0.034
-0.017
-0.009
0.009
-0.031
0.139
-0.015
0.101
-0.027
0.077
0.100
0.023
-0.046
0.016
0.047
-0.002
-0.096
0.115
0.033
0.009
0.016
-0.039
-0.020
-0.093
0.029
0.006
0.118
0.017
0.003
-0.020
-0.021
0.014
0.107
0.031
-0.014
0.014
0.063
-0.052
0.043
0.023
0.008
0.013
0.011
0.055
0.037
-0.038
-0.008
0.049
0.083
0.076
-0.047
-0.034
0.058
0.110
-0.041
-0.008
0.076
0.067
-0.061
-0.001
0.042
0.109
-0.039
0.016
0.031
-0.123
-0.017
0.158
0.164
-0.020
-0.054
-0.033
0.006
0.064
-0.060
0.027
-0.068
0.033
0.016
0.003
-0.025
0.107
0.018
0.030
-0.006
-0.017
-0.016
0.114
0.017
0.104
-0.033
0.073
-0.038
0.007
0.023
0.002
-0.020
-0.007
0.142
0.096
-0.003
0.062
0.006
-0.022
-0.082
-0.109
0.119
0.131
0.123
0.485
0.104
-0.315
-0.511
-0.322
0.027
0.212
0.430
0.191
0.035
-0.043
-0.098
-0.131
0.038
-0.064
0.102
-0.002
0.125
-0.017
0.091
0.035
0.024
-0.045
0.109
0.056
0.047
-0.024
-0.049
-0.062
-0.027
0.028
0.064
0.011
-0.043
-0.026
0.060
0.020
0.090
0.045
0.008
-0.021
0.028
0.034
-0.104
0.004
-0.009
0.150
0.053
-0.033
-0.045
0.050
-0.089
0.084
0.097
0.016
0.078
0.071
-0.047
0.033
-0.020
0.027
-0.028
0.087
0.012
0.079
-0.000
0.039
0.034
-0.123
-0.021
0.049
0.021
-0.042
0.001
0.017
0.091
0.059
-0.050
-0.025
0.054
0.035
0.069
0.084
-0.012
0.020
-0.062
0.055
0.026
0.030
0.027
-0.035
0.045
0.046
0.137
0.000
-0.039
0.022
-0.021
0.011
0.025
-0.029
0.015
-0.040
-0.010
0.007
0.152
-0.014
0.040
-0.027
-0.016
0.009
0.003
-0.002
0.137
-0.001
0.034
-0.030
0.088
0.065
-0.031
-0.023
-0.011
0.093
0.048
-0.021
0.000
0.023
-0.022
0.023
0.025
0.019
-0.007
0.059
0.049
-0.022
-0.002
0.089
-0.059
-0.046
0.057
-0.002
0.073
0.021
-0.009
0.072
-0.009
0.033
0.128
-0.020
-0.130
-0.005
0.048
0.087
0.081
-0.039
0.025
-0.045
0.026
-0.043
0.055
0.023
-0.030
0.032
0.168
-0.000
0.061
-0.058
-0.065
0.056
-0.015
-0.020
0.160
0.064
-0.068
0.009
-0.079
-0.014
-0.007
0.072
0.058
0.017
0.020
0.024
-0.018
-0.011
0.018
0.086
0.044
0.055
-0.029
0.095
0.067
-0.026
-0.010
0.044
0.367
0.271
-0.042
-0.406
-0.459
-0.084
0.206
0.415
0.178
0.135
-0.101
-0.119
-0.069
-0.070
-0.087
0.015
0.126
0.056
0.063
0.142
-0.008
-0.008
0.006
0.067
0.013
0.015
-0.050
-0.011
-0.075
0.101
-0.048
0.049
-0.002
0.024
0.077
0.052
-0.027
-0.039
0.028
0.121
0.136
0.021
-0.058
-0.065
0.010
0.024
-0.021
0.088
0.012
0.053
0.029
0.078
0.077
-0.012
-0.017
0.044
0.058
0.003
-0.060
-0.052
0.028
0.015
-0.026
0.006
0.026
0.076
-0.007
-0.016
-0.044
0.038
-0.046
0.008
0.072
0.069
-0.008
-0.010
-0.007
0.019
0.034
-0.084
0.107
0.089
-0.061
0.075
0.060
0.026
-0.031
-0.060
0.012
0.048
-0.020
0.013
0.083
-0.062
0.057
0.051
-0.022
-0.021
0.008
-0.007
-0.004
0.106
-0.071
0.109
-0.057
0.091
-0.044
-0.005
0.050
0.106
0.008
-0.111
0.037
0.093
0.016
0.008
-0.028
0.076
-0.003
0.014
-0.025
0.043
0.046
-0.004
0.006
-0.010
0.039
0.024
0.048
-0.053
-0.031
0.004
0.128
0.073
0.057
-0.073
-0.086
-0.033
0.019
0.008
-0.045
0.113
0.040
0.075
-0.035
-0.020
0.058
-0.005
0.015
0.064
-0.036
0.023
0.036
-0.131
0.021
0.067
-0.069
0.016
0.026
-0.034
0.045
0.071
-0.057
-0.047
0.031
0.079
0.068
0.083
-0.025
0.089
0.071
-0.015
0.012
0.025
0.001
0.019
0.105
0.065
-0.044
0.007
-0.015
-0.010
0.053
0.038
0.127
0.326
0.120
-0.227
-0.550
-0.322
-0.039
0.274
0.235
0.284
0.058
-0.131
-0.107
-0.065
0.024
-0.123
-0.016
0.201
0.117
0.023
0.146
0.045
-0.034
0.038
0.039
-0.105
0.008
0.020
0.011
0.084
-0.047
0.039
-0.075
-0.005
0.012
0.039
-0.031
0.009
0.116
0.090
0.013
-0.047
-0.019
0.006
0.045
0.049
0.101
0.083
0.040
-0.002
0.019
-0.065
0.030
0.087
0.016
-0.032
-0.022
0.089
0.083
-0.031
0.016
-0.034
0.015
-0.103
0.093
0.021
0.124
0.028
-0.013
0.010
0.005
0.010
0.106
0.017
-0.104
0.101
-0.076
-0.028
0.107
0.042
0.012
0.024
0.046
-0.071
-0.110
0.095
0.021
-0.013
0.069
0.021
-0.045
0.026
0.096
-0.008
-0.075
-0.045
0.060
0.044
0.072
0.109
0.094
-0.087
-0.013
-0.013
0.008
0.042
0.096
0.019
-0.025
0.084
0.023
0.007
-0.027
0.128
-0.024
0.076
-0.065
0.003
-0.117
0.064
0.053
0.115
-0.053
-0.057
0.089
-0.026
-0.113
0.035
0.105
-0.004
-0.033
-0.060
0.012
-0.023
0.073
0.006
0.012
0.037
0.044
-0.036
0.013
-0.000
0.046
-0.032
-0.025
0.051
-0.004
-0.003
-0.014
0.175
0.045
-0.054
0.036
0.137
-0.139
0.012
0.041
0.093
0.064
-0.012
-0.011
-0.026
0.005
0.040
0.035
-0.034
0.018
0.125
-0.090
0.203
0.318
0.029
-0.391
-0.460
-0.248
0.155
0.334
0.257
0.036
-0.036
-0.005
-0.068
-0.096
-0.013
0.012
0.022
0.074
0.019
0.020
0.137
0.043
0.099
0.036
0.004
-0.028
-0.071
0.019
-0.025
-0.042
0.037
0.022
0.008
-0.003
-0.046
0.106
0.111
0.054
0.042
0.063
-0.009
0.049
-0.028
0.022
0.024
0.002
-0.065
0.013
0.051
-0.011
-0.050
0.057
-0.051
-0.016
-0.036
-0.004
0.092
0.073
0.028
-0.039
0.044
0.027
-0.032
0.008
-0.011
0.082
0.074
0.009
0.120
-0.004
-0.047
-0.067
-0.021
0.047
0.021
-0.026
0.065
0.073
0.001
-0.109
0.055
0.089
0.098
-0.035
0.050
-0.021
-0.040
-0.084
0.070
0.018
0.013
-0.005
-0.085
0.118
0.066
0.059
0.046
0.080
0.004
-0.023
-0.011
-0.011
0.021
0.116
-0.022
-0.063
-0.053
-0.019
0.008
0.107
-0.023
0.051
0.034
-0.052
-0.056
0.118
0.123
0.072
-0.055
-0.134
0.054
0.137
0.012
-0.024
0.050
0.012
0.040
-0.099
-0.014
0.042
0.006
0.066
0.050
-0.021
-0.026
0.067
0.028
0.133
0.017
0.052
-0.054
-0.022
0.034
0.061
-0.079
0.070
0.090
-0.042
0.016
-0.043
0.003
0.026
0.039
0.033
-0.017
0.025
-0.031
-0.001
0.101
0.024
0.033
0.005
0.051
-0.017
-0.033
0.025
0.039
0.036
-0.053
-0.018
-0.029
0.045
0.225
0.346
0.004
-0.406
-0.493
-0.149
0.204
0.372
0.287
0.112
-0.036
-0.262
-0.129
-0.085
0.013
0.002
0.112
0.124
0.092
0.030
0.131
0.104
-0.040
-0.023
0.090
0.183
-0.088
-0.057
0.003
-0.026
0.018
-0.072
-0.065
0.054
0.039
0.090
0.072
-0.071
0.007
-0.084
-0.016
-0.013
0.079
0.017
0.069
0.078
-0.092
0.006
0.027
0.006
0.064
-0.047
0.038
0.051
0.021
0.020
0.001
-0.038
0.019
0.014
0.080
0.056
0.041
-0.103
0.116
-0.018
0.174
-0.059
-0.004
0.059
0.022
0.001
-0.046
0.140
0.085
-0.009
0.018
0.010
-0.078
0.052
-0.046
-0.028
-0.015
0.098
0.038
0.035
0.056
-0.008
-0.050
0.088
0.123
-0.037
-0.016
-0.024
0.067
0.059
0.038
0.055
0.078
0.092
0.063
-0.045
-0.014
0.025
-0.072
0.039
0.039
0.093
-0.025
-0.006
0.124
0.070
-0.072
0.006
-0.085
-0.040
0.065
0.134
0.134
0.001
-0.098
0.020
0.074
0.012
-0.076
-0.037
0.122
-0.017
0.096
0.071
0.020
-0.058
0.032
-0.037
-0.026
0.031
0.007
0.093
-0.005
0.129
0.002
0.061
0.062
-0.040
-0.013
-0.005
-0.005
-0.017
0.059
0.163
0.050
-0.054
0.013
0.109
-0.086
-0.046
-0.148
0.067
0.125
-0.052
0.035
-0.043
0.064
0.080
-0.007
0.039
-0.060
-0.061
-0.008
-0.073
0.121
0.038
0.134
-0.014
0.007
0.339
0.184
-0.170
-0.475
-0.476
-0.062
0.209
0.379
0.275
0.044
-0.095
-0.144
-0.115
0.003
-0.034
-0.005
0.083
0.090
0.134
0.099
0.115
-0.017
0.018
0.010
-0.187
-0.033
0.127
-0.102
-0.019
0.044
0.001
0.063
0.020
-0.085
0.052
0.150
0.078
-0.006
-0.001
0.018
0.029
0.013
-0.044
0.004
0.058
0.002
0.040
0.006
-0.017
-0.083
-0.032
0.033
0.039
0.094
0.061
0.017
-0.088
0.083
0.089
-0.009
0.052
0.012
0.071
-0.017
-0.042
0.061
0.026
-0.009
0.039
-0.049
0.019
0.065
-0.028
-0.017
0.074
0.051
0.016
-0.042
-0.011
0.060
0.038
0.081
0.037
-0.058
0.031
0.037
-0.105
0.008
0.020
0.060
0.031
-0.091
0.034
0.082
0.047
0.080
0.001
0.066
-0.018
0.113
-0.124
-0.003
0.009
0.100
0.016
0.025
0.084
-0.133
0.114
-0.040
0.038
0.052
-0.038
0.053
0.022
-0.072
0.004
0.049
-0.032
-0.032
0.035
0.076
0.066
-0.043
0.006
-0.092
0.049
0.019
-0.011
0.094
-0.073
0.025
-0.037
0.054
0.131
-0.026
0.045
0.009
0.081
0.001
0.014
-0.008
0.078
0.057
0.030
0.043
-0.060
0.050
0.012
-0.027
0.062
0.051
-0.033
0.040
-0.027
0.005
0.061
0.018
-0.010
-0.011
-0.038
0.054
0.101
0.002
-0.044
0.041
-0.029
0.030
0.035
0.081
0.052
-0.022
0.012
0.034
0.037
0.064
0.447
0.150
-0.301
-0.497
-0.219
0.023
0.237
0.306
0.186
0.026
-0.157
-0.150
-0.072
0.046
-0.037
0.053
0.106
0.057
0.053
0.107
0.054
-0.102
0.077
0.111
0.114
0.067
-0.011
-0.039
-0.083
-0.016
-0.016
0.106
0.040
0.072
0.020
-0.076
-0.035
-0.007
0.123
0.048
0.015
-0.010
0.027
0.015
-0.013
-0.016
0.020
-0.046
-0.021
0.027
0.086
0.038
-0.008
-0.023
0.081
0.127
0.023
-0.141
0.041
-0.084
0.124
0.048
-0.021
0.009
0.038
-0.036
-0.047
0.001
0.059
0.045
0.027
0.041
-0.030
0.099
0.068
-0.025
-0.025
0.001
-0.022
0.111
0.025
-0.073
0.059
0.054
0.041
0.088
-0.016
-0.041
-0.014
0.042
0.026
0.043
0.093
-0.068
0.050
0.024
0.112
-0.014
-0.022
0.044
-0.106
-0.056
0.044
0.016
0.074
-0.011
0.045
-0.051
-0.022
0.154
0.122
0.010
0.032
-0.052
0.014
0.019
0.093
-0.071
-0.002
0.010
0.043
-0.030
0.076
-0.031
-0.034
-0.050
0.059
0.034
0.074
0.028
-0.015
-0.009
0.020
0.063
-0.000
-0.067
0.044
0.100
0.077
-0.080
0.033
-0.099
-0.037
0.098
0.026
0.090
-0.022
-0.115
0.046
0.060
0.063
-0.019
-0.003
0.038
0.054
0.043
0.008
0.022
0.002
0.241
0.198
-0.093
-0.384
-0.393
-0.091
0.269
0.298
0.273
0.090
-0.039
-0.213
-0.150
-0.016
0.004
-0.030
0.065
0.040
0.143
0.032
0.049
0.001
0.011
0.082
0.023
0.026
-0.051
-0.102
-0.012
-0.034
0.020
0.054
0.042
0.036
-0.010
0.004
0.010
0.102
0.044
0.005
0.008
-0.059
0.049
0.191
0.069
-0.101
-0.136
0.052
0.070
0.091
0.038
0.057
0.108
-0.042
-0.018
0.093
-0.074
-0.040
0.061
0.049
-0.016
-0.051
0.024
0.102
0.057
-0.031
0.063
0.025
0.013
0.055
0.019
-0.018
-0.055
0.090
0.026
0.035
-0.049
0.071
0.059
0.072
0.034
-0.076
0.097
0.099
0.042
-0.064
0.058
-0.023
-0.046
0.180
0.109
-0.091
0.016
-0.017
-0.016
-0.003
-0.048
0.097
0.001
0.033
0.043
-0.008
0.021
-0.069
0.056
0.060
-0.036
-0.012
0.139
0.009
-0.051
-0.004
0.020
0.034
-0.022
0.060
-0.048
-0.043
0.034
0.077
0.002
0.049
0.061
-0.059
-0.112
0.003
0.028
0.084
0.041
0.107
0.103
-0.081
-0.007
-0.002
0.017
0.003
0.022
0.039
0.068
0.054
0.026
0.048
0.023
-0.170
-0.098
0.048
0.127
0.027
-0.031
-0.010
0.039
-0.020
0.062
0.008
0.080
-0.018
-0.010
0.091
-0.028
0.388
0.200
-0.175
-0.411
-0.486
-0.049
0.217
0.348
0.187
0.113
-0.081
-0.077
-0.145
-0.084
-0.012
0.025
0.150
0.162
0.093
0.118
0.113
0.065
-0.005
0.133
0.016
0.038
-0.026
-0.053
-0.067
-0.028
0.093
0.001
0.007
-0.022
0.049
0.108
-0.071
0.008
0.052
0.045
0.034
-0.001
-0.024
0.057
-0.007
-0.056
0.051
-0.039
0.118
0.028
-0.048
0.054
0.068
-0.091
0.075
0.177
-0.033
0.002
0.001
-0.013
0.093
-0.011
0.074
-0.063
0.093
0.079
0.097
-0.105
-0.089
-0.009
0.040
0.034
0.088
-0.061
0.103
-0.034
-0.042
0.039
-0.031
-0.002
0.031
-0.002
-0.003
0.006
0.045
0.025
-0.101
0.052
0.086
0.022
0.104
-0.051
-0.023
0.028
0.133
-0.064
0.046
-0.076
0.068
0.020
-0.024
0.055
-0.052
0.116
0.071
-0.018
-0.057
-0.064
0.015
0.075
-0.015
0.009
0.027
0.016
-0.020
0.030
-0.024
-0.011
0.045
-0.004
0.005
0.036
0.038
-0.040
-0.004
0.057
-0.001
-0.033
-0.068
0.063
0.075
0.028
0.024
0.438
0.237
-0.205
-0.490
-0.397
-0.007
0.316
0.434
0.348
0.059
-0.193
-0.159
-0.155
-0.043
0.003
0.004
0.046
0.210
0.181
-0.020
0.038
-0.032
0.074
0.105
-0.036
-0.036
0.019
0.072
0.061
-0.040
-0.037
-0.002
-0.021
-0.019
0.067
0.087
0.054
0.094
-0.032
-0.002
-0.129
-0.022
0.055
0.057
0.092
0.071
0.055
0.043
-0.020
0.049
-0.035
-0.020
0.134
0.000
0.029
0.011
0.072
0.028
0.051
0.042
-0.015
-0.024
0.047
0.052
0.016
0.013
-0.097
-0.095
0.079
0.108
0.021
0.043
0.022
-0.020
0.050
0.058
0.016
0.066
-0.041
0.027
0.093
-0.089
0.053
0.156
0.045
0.034
0.007
0.012
-0.047
0.031
0.036
0.075
0.044
-0.042
-0.027
0.027
0.102
0.068
0.133
-0.132
-0.044
0.046
0.065
0.065
0.134
-0.048
-0.075
-0.003
0.044
0.075
0.164
-0.092
-0.118
0.054
0.135
0.084
0.037
-0.024
-0.018
0.009
0.053
-0.025
-0.012
0.026
-0.104
0.016
0.013
0.034
0.008
0.023
0.107
-0.002
0.010
0.035
0.007
0.013
0.003
0.045
0.036
0.035
0.094
-0.008
0.132
0.111
-0.024
0.067
-0.017
-0.026
-0.118
0.010
0.061
0.122
-0.053
0.016
0.078
0.105
-0.022
-0.089
-0.033
-0.053
0.092
0.072
-0.012
-0.048
0.403
0.141
-0.187
-0.471
-0.373
-0.030
0.334
0.427
0.120
-0.055
-0.152
-0.052
-0.204
0.043
0.090
-0.052
0.100
0.016
0.051
0.039
0.052
0.011
0.008
0.009
-0.000
0.008
0.029
0.015
0.000
0.068
0.038
-0.138
-0.011
0.112
0.137
-0.073
0.034
0.063
-0.005
-0.078
0.028
0.112
-0.036
-0.010
0.113
-0.008
-0.058
-0.055
0.051
0.008
-0.082
0.023
0.097
0.023
0.090
0.023
-0.034
0.108
0.008
0.036
-0.088
0.022
0.068
0.090
-0.022
-0.100
0.051
0.032
-0.100
0.216
-0.049
0.014
-0.013
-0.038
0.027
0.022
-0.034
0.076
0.017
0.064
-0.120
0.014
0.071
0.071
0.132
-0.040
-0.028
0.141
-0.004
-0.056
-0.033
0.013
0.042
-0.014
0.036
0.146
0.070
-0.030
0.046
0.101
-0.037
-0.091
0.074
0.032
-0.018
0.070
0.027
-0.000
0.046
0.039
-0.048
-0.013
0.044
0.004
0.010
0.098
-0.013
-0.109
0.056
0.001
0.058
0.178
0.056
-0.057
-0.042
-0.073
0.067
0.034
0.012
0.107
-0.094
-0.042
0.083
0.023
0.038
-0.071
0.051
0.031
0.030
-0.074
-0.047
0.110
0.042
0.172
0.017
0.016
-0.029
-0.026
-0.055
0.066
0.091
-0.046
-0.029
0.119
0.062
0.416
0.156
-0.276
-0.565
-0.255
0.092
0.456
0.303
0.093
-0.011
-0.047
-0.211
-0.012
0.007
0.017
0.057
0.073
0.057
-0.008
0.111
0.052
-0.020
0.091
-0.027
0.017
-0.090
0.047
0.048
-0.011
0.072
0.023
0.051
-0.089
0.131
-0.065
0.031
0.065
-0.028
0.008
0.011
0.018
0.005
-0.075
0.100
0.065
0.007
0.024
-0.026
-0.050
0.074
0.102
0.018
0.004
-0.019
0.040
0.269
0.042
-0.196
0.026
-0.031
-0.032
0.012
0.024
0.037
0.041
0.023
0.042
0.035
-0.053
-0.004
0.079
-0.025
0.029
0.034
0.002
-0.048
0.085
-0.043
0.073
0.052
0.078
0.048
0.002
-0.028
0.019
-0.065
0.003
-0.032
0.123
0.010
-0.001
0.009
0.020
-0.052
-0.019
-0.031
0.058
0.027
0.071
0.055
-0.044
0.065
0.047
0.019
-0.027
0.014
0.122
0.014
-0.011
-0.059
0.120
-0.045
-0.091
-0.001
0.038
-0.041
0.044
0.077
0.003
-0.027
0.088
0.120
-0.069
-0.055
-0.049
0.058
0.289
0.339
0.013
-0.411
-0.390
-0.164
0.087
0.309
0.288
0.127
-0.121
-0.087
-0.105
-0.035
-0.015
-0.019
0.115
0.080
0.126
0.066
0.145
-0.004
0.002
0.084
0.026
-0.048
0.103
-0.010
0.044
-0.003
-0.099
0.016
0.020
0.030
0.041
-0.043
0.076
0.012
-0.013
0.086
0.090
-0.022
-0.042
0.003
-0.024
0.142
0.032
0.049
0.076
-0.020
-0.007
-0.053
-0.062
0.062
-0.014
0.012
0.139
-0.001
-0.008
-0.035
0.060
-0.001
0.028
-0.007
0.067
-0.014
-0.023
0.028
0.115
-0.021
-0.061
-0.032
0.076
-0.017
0.143
0.075
0.012
-0.014
-0.025
0.043
0.032
-0.040
-0.012
-0.037
0.022
0.095
0.042
0.085
-0.060
0.033
0.024
0.004
0.088
0.010
-0.036
0.012
0.047
0.123
0.055
-0.027
-0.045
-0.070
0.000
0.036
0.012
-0.035
0.011
0.044
0.049
-0.016
-0.069
0.029
-0.012
0.102
-0.097
0.043
0.002
0.004
0.030
-0.016
0.054
0.040
0.063
-0.033
0.033
0.019
0.043
0.034
-0.076
0.072
0.073
-0.054
-0.014
-0.038
0.117
-0.020
-0.013
0.036
-0.008
0.075
-0.047
0.096
-0.031
-0.024
-0.048
-0.094
0.051
0.099
0.219
-0.012
-0.111
0.122
0.449
0.073
-0.433
-0.516
-0.294
0.191
0.525
0.320
0.137
-0.132
-0.146
-0.230
-0.130
0.035
0.086
0.063
0.113
0.030
-0.005
-0.002
0.174
0.064
0.117
-0.034
-0.068
0.060
-0.040
-0.015
-0.089
-0.032
0.062
-0.084
-0.054
0.061
0.004
0.098
0.022
-0.055
0.040
0.020
-0.025
0.026
-0.012
0.053
0.034
-0.031
0.088
0.002
0.089
0.031
0.025
-0.033
-0.054
0.069
0.087
0.048
-0.035
0.012
0.072
0.060
0.027
-0.005
0.064
-0.003
0.073
0.053
-0.140
0.008
0.027
0.117
-0.084
0.056
0.050
-0.048
0.024
0.059
0.126
0.004
0.053
-0.079
0.033
0.008
0.108
-0.004
0.125
-0.068
0.071
-0.048
0.046
0.088
-0.077
0.055
0.085
0.035
0.043
-0.036
0.056
-0.069
-0.016
0.115
-0.067
0.054
0.079
0.001
-0.011
-0.017
0.015
0.006
-0.029
0.078
0.100
0.044
-0.051
0.037
0.012
0.012
0.064
-0.070
0.127
0.006
-0.067
0.060
0.092
0.016
0.036
0.005
0.048
0.074
-0.045
0.101
-0.007
-0.031
-0.075
-0.021
0.001
0.164
-0.027
-0.002
-0.067
0.117
0.039
0.044
-0.086
0.011
0.032
0.017
0.075
-0.107
-0.024
0.054
0.353
0.256
-0.244
-0.561
-0.332
0.010
0.320
0.292
0.101
-0.040
-0.100
0.007
-0.074
0.055
-0.090
0.012
0.137
0.013
0.053
0.126
0.059
-0.023
0.005
0.005
-0.011
0.077
0.036
-0.056
0.007
0.020
0.078
-0.048
-0.017
-0.002
0.052
0.071
0.034
0.048
0.043
0.008
0.015
-0.033
0.017
-0.019
-0.035
-0.022
0.059
-0.005
0.055
0.061
-0.040
0.042
0.035
0.032
0.036
0.107
-0.022
-0.074
0.126
-0.100
0.047
0.103
0.071
-0.020
0.002
-0.027
0.075
-0.019
0.012
0.016
0.076
-0.080
0.019
0.078
-0.008
0.089
-0.049
-0.056
-0.023
0.083
0.134
-0.013
0.055
0.000
-0.147
0.052
0.081
0.106
0.090
0.150
0.045
-0.066
-0.110
0.055
0.021
0.013
0.036
0.078
0.008
0.017
0.015
-0.015
0.040
0.087
-0.012
-0.064
0.055
-0.010
0.015
0.052
-0.013
0.136
-0.028
0.037
-0.024
0.047
-0.044
0.042
0.028
0.045
0.019
-0.059
0.057
0.001
0.032
0.025
-0.056
0.059
0.025
-0.023
-0.021
0.022
0.012
0.051
-0.046
-0.024
0.094
0.010
0.060
0.081
0.048
0.006
-0.028
0.043
0.059
-0.047
-0.020
0.091
0.444
0.191
-0.283
-0.455
-0.319
-0.023
0.260
0.336
0.182
0.085
-0.033
-0.166
-0.115
-0.009
0.012
-0.002
0.003
0.045
0.213
0.124
0.017
0.030
0.027
0.058
0.072
-0.130
-0.037
-0.102
-0.037
0.014
0.027
0.052
-0.011
0.038
-0.008
0.006
-0.002
0.051
-0.019
0.036
0.035
0.022
0.039
0.052
-0.038
-0.061
0.016
0.090
0.105
-0.016
0.086
-0.031
-0.050
-0.014
0.003
-0.057
0.130
0.136
0.063
-0.130
0.094
-0.047
0.065
0.007
-0.078
0.147
0.015
-0.015
0.108
0.028
-0.029
-0.093
-0.000
0.050
0.015
0.026
0.003
0.022
0.011
0.003
-0.006
0.032
-0.054
0.038
0.065
0.017
0.055
0.072
0.038
-0.051
-0.045
0.005
0.056
0.072
-0.055
-0.012
0.047
-0.070
0.090
0.027
0.133
-0.048
-0.115
0.052
0.096
0.077
0.042
-0.121
0.001
0.088
0.019
0.027
0.120
0.011
-0.030
-0.056
0.042
-0.104
-0.045
0.089
0.071
0.054
-0.033
-0.037
0.005
0.026
0.093
-0.016
0.029
-0.018
0.126
0.063
0.044
-0.117
-0.072
0.028
0.097
-0.008
-0.058
-0.043
-0.004
0.080
0.062
0.062
0.062
-0.197
0.045
0.016
0.013
0.456
0.236
-0.180
-0.541
-0.426
-0.103
0.241
0.437
0.267
0.125
-0.047
-0.127
-0.117
-0.105
-0.042
0.032
0.120
0.061
0.043
0.086
0.065
0.063
0.079
0.038
0.026
-0.062
-0.021
-0.064
-0.043
0.034
0.035
0.056
-0.023
-0.070
0.118
0.131
0.001
-0.122
-0.018
-0.018
0.014
0.056
0.024
0.103
0.028
-0.031
-0.027
0.013
0.074
-0.005
0.047
0.015
0.006
0.033
0.033
0.080
0.033
0.031
0.038
-0.038
0.012
0.078
0.064
-0.002
0.016
0.033
0.111
0.028
-0.023
0.010
0.096
0.002
-0.040
-0.060
0.024
0.027
-0.019
0.107
-0.006
0.057
-0.021
0.012
0.028
0.048
0.044
-0.026
0.017
0.045
0.000
-0.025
0.073
0.016
-0.040
0.067
-0.004
0.071
0.014
0.118
0.025
0.127
0.040
-0.097
-0.013
-0.007
0.008
0.124
-0.010
0.028
0.144
0.016
0.034
-0.007
0.046
-0.067
-0.055
-0.014
0.059
0.043
0.113
0.059
-0.080
-0.029
-0.063
0.093
0.142
-0.057
-0.061
0.055
0.040
0.051
-0.101
0.074
0.066
0.131
-0.013
0.004
-0.035
0.125
0.024
0.044
0.058
0.049
-0.060
0.034
0.001
0.067
0.074
-0.066
0.000
-0.036
-0.058
-0.011
0.043
0.019
0.119
0.003
0.042
-0.060
0.008
-0.136
0.162
0.037
0.034
0.359
0.234
-0.117
-0.507
-0.411
-0.098
0.208
0.286
0.188
0.083
-0.015
-0.253
-0.030
-0.049
0.098
0.008
0.029
0.101
0.046
0.066
0.106
-0.047
0.013
0.081
0.030
-0.020
-0.147
0.081
-0.024
-0.030
0.023
0.001
0.124
0.064
-0.004
-0.108
-0.012
0.037
-0.037
0.117
0.033
0.005
-0.018
0.021
0.050
-0.037
0.097
-0.082
-0.074
0.028
0.071
-0.026
0.072
0.075
-0.022
-0.042
-0.023
0.006
-0.027
0.118
0.032
0.036
0.064
-0.044
0.022
0.027
0.016
0.076
0.036
-0.028
0.073
0.067
-0.005
0.059
0.038
0.073
0.039
-0.062
-0.075
0.110
-0.032
0.106
-0.006
-0.036
0.112
0.036
-0.011
-0.044
-0.012
0.099
0.066
-0.006
-0.009
-0.003
0.018
0.038
-0.025
-0.019
-0.028
0.116
0.047
-0.095
0.097
0.098
0.045
-0.029
0.026
0.046
0.056
0.001
0.005
0.001
-0.005
0.074
0.028
0.078
-0.093
0.026
0.028
0.024
-0.019
0.037
0.147
0.028
-0.061
-0.076
-0.029
0.056
0.002
0.005
0.004
0.094
-0.036
-0.034
-0.030
0.013
0.125
0.038
-0.014
-0.022
0.038
0.014
0.084
-0.058
-0.057
0.051
0.068
0.076
0.050
-0.017
0.033
0.013
-0.125
0.055
0.015
0.021
0.083
-0.069
-0.001
-0.038
0.040
-0.017
0.077
0.055
0.104
0.044
0.032
-0.105
0.039
-0.018
0.059
0.032
-0.001
0.017
-0.013
0.033
0.119
-0.019
-0.029
0.045
0.059
0.034
0.036
0.071
-0.018
-0.025
0.221
0.474
0.066
-0.295
-0.616
-0.260
0.030
0.284
0.214
0.120
0.041
-0.016
-0.118
-0.159
-0.023
0.006
0.034
-0.001
0.127
0.058
0.038
0.172
0.106
0.047
-0.135
0.012
-0.053
0.048
-0.000
0.002
0.028
-0.008
-0.034
0.047
0.069
0.072
0.044
-0.079
0.026
-0.024
0.002
-0.017
-0.039
-0.001
0.012
0.034
0.147
0.041
0.023
0.074
-0.008
0.017
-0.005
-0.043
0.044
0.040
0.002
-0.007
-0.012
0.001
0.001
-0.039
-0.092
0.106
0.074
0.038
0.010
-0.000
-0.032
0.073
-0.002
-0.007
0.104
-0.160
0.016
-0.030
0.085
0.063
-0.016
0.031
0.063
0.001
0.009
0.003
0.057
0.021
0.015
0.036
-0.004
0.013
-0.010
0.015
-0.016
0.135
0.060
-0.026
-0.089
0.023
0.011
0.058
-0.031
0.026
-0.043
-0.009
0.081
-0.009
0.062
0.006
-0.073
0.064
0.099
-0.004
0.019
0.096
0.045
0.015
-0.059
0.084
-0.065
0.111
0.029
-0.017
-0.108
-0.036
-0.009
0.057
-0.037
0.025
0.095
0.025
0.005
0.012
0.014
-0.013
0.059
0.115
0.054
0.012
-0.132
0.009
0.062
-0.034
0.034
-0.022
0.121
0.018
-0.048
-0.003
0.026
-0.038
0.075
-0.032
-0.061
-0.009
0.063
0.020
-0.006
0.070
0.043
-0.183
0.063
0.000
-0.029
0.017
0.029
0.024
0.083
-0.037
0.046
-0.067
0.107
0.371
0.274
-0.137
-0.489
-0.379
-0.077
0.287
0.299
0.186
0.014
-0.035
0.009
-0.138
-0.192
-0.045
-0.006
0.045
0.163
0.160
0.018
0.004
0.078
0.044
-0.004
0.001
-0.037
0.061
0.005
-0.037
0.063
-0.024
-0.003
0.056
-0.059
-0.019
-0.040
0.104
-0.002
0.042
0.001
-0.083
-0.077
0.021
0.024
0.037
-0.025
-0.009
-0.022
0.025
0.055
-0.017
0.086
0.068
0.063
0.042
-0.055
0.007
0.068
0.103
-0.006
0.025
0.039
0.005
0.011
-0.028
-0.040
-0.004
-0.014
0.018
0.035
-0.008
0.014
-0.053
0.122
0.129
0.000
0.048
0.044
-0.050
-0.032
0.107
0.068
0.019
-0.042
0.024
0.083
-0.042
-0.111
0.067
0.200
0.011
-0.098
-0.081
0.077
0.019
-0.003
0.056
0.043
0.051
-0.135
0.010
0.052
0.037
-0.018
-0.036
-0.039
0.058
-0.028
0.078
0.073
-0.030
-0.033
0.144
-0.025
0.027
0.020
-0.017
0.025
0.047
0.055
0.029
0.027
-0.004
-0.042
0.126
-0.059
-0.046
0.059
0.042
0.106
0.038
0.047
0.092
-0.072
-0.100
-0.009
-0.036
0.060
0.004
0.116
-0.057
0.024
-0.056
0.056
0.016
0.122
-0.038
-0.045
0.089
0.011
0.018
-0.112
0.063
0.097
0.060
0.025
-0.077
-0.029
0.060
0.069
-0.052
0.064
-0.034
0.044
0.039
-0.026
-0.011
0.183
0.012
0.078
0.064
-0.110
0.012
0.014
-0.049
-0.094
0.089
0.059
0.095
-0.082
0.022
0.010
-0.049
0.056
0.037
0.038
-0.016
0.042
0.383
0.278
-0.135
-0.446
-0.437
-0.150
0.121
0.497
0.223
0.098
-0.014
-0.065
-0.249
-0.018
0.045
0.024
0.172
0.102
0.018
0.007
0.059
0.109
-0.078
-0.026
0.037
0.008
-0.035
-0.030
-0.004
-0.066
-0.020
-0.009
0.100
0.070
0.137
0.002
-0.052
0.025
0.049
-0.046
-0.013
0.025
0.093
0.019
0.073
-0.089
-0.019
-0.030
0.035
0.012
-0.019
0.026
0.054
0.012
0.015
0.075
-0.145
0.012
0.048
0.016
0.034
0.151
-0.071
-0.028
0.055
-0.077
-0.028
0.015
-0.029
0.078
0.023
0.133
0.034
0.006
-0.063
0.028
-0.035
0.146
-0.066
0.023
-0.011
0.038
0.086
0.046
0.021
-0.012
0.048
0.045
0.018
0.016
0.008
0.049
0.040
0.003
-0.089
-0.070
-0.004
0.072
0.055
0.124
0.044
-0.011
-0.010
0.104
0.085
-0.048
-0.021
-0.040
0.009
-0.025
-0.002
0.065
-0.025
-0.028
0.038
0.016
0.000
-0.063
-0.012
0.113
0.079
-0.038
-0.020
0.035
0.051
-0.022
0.082
0.005
-0.014
0.082
0.069
0.027
0.025
0.028
0.006
0.071
-0.008
0.002
0.021
0.010
0.093
-0.002
-0.037
0.043
0.067
0.006
-0.045
0.018
0.026
0.024
-0.057
0.061
0.090
-0.021
0.059
-0.002
0.061
0.038
0.023
-0.035
-0.112
0.046
0.097
0.045
0.059
-0.042
0.005
0.033
0.238
0.392
0.003
-0.301
-0.535
-0.209
0.162
0.373
0.323
0.098
-0.150
-0.145
-0.111
-0.063
-0.076
0.009
0.016
0.019
0.143
0.129
0.021
0.043
0.072
0.031
-0.008
-0.015
0.075
0.048
-0.031
0.082
-0.015
-0.027
-0.055
0.037
-0.008
0.023
0.077
0.024
-0.109
-0.078
0.101
0.001
-0.053
0.039
0.076
0.056
0.053
-0.035
0.020
0.063
0.020
0.068
0.011
-0.113
-0.013
0.009
0.105
0.049
-0.105
-0.024
0.021
-0.007
-0.002
-0.024
0.090
0.017
0.010
-0.010
-0.009
-0.029
-0.008
0.054
-0.008
0.017
0.021
-0.033
0.029
-0.010
0.018
0.011
-0.017
0.008
0.044
0.039
0.001
0.017
-0.058
0.108
0.090
-0.051
-0.015
-0.031
-0.023
0.021
-0.001
0.039
-0.005
-0.063
-0.045
0.112
0.042
0.029
-0.030
0.139
-0.050
-0.003
0.016
-0.088
0.120
0.065
-0.044
0.048
-0.004
0.044
-0.035
0.004
-0.057
0.016
-0.009
0.045
-0.022
0.080
0.059
-0.039
-0.110
0.148
0.038
0.043
0.454
0.089
-0.328
-0.561
-0.268
0.121
0.446
0.296
0.154
-0.068
-0.185
-0.075
0.057
-0.094
0.019
0.009
-0.058
0.123
0.056
0.087
0.016
0.104
0.043
-0.014
-0.071
-0.045
-0.028
0.040
0.055
-0.048
-0.012
0.110
0.055
-0.020
0.033
-0.023
-0.071
0.129
0.000
0.018
0.014
-0.026
-0.033
0.044
-0.018
0.021
-0.056
0.004
0.043
0.098
-0.061
0.109
0.027
0.073
0.012
-0.016
-0.043
0.081
-0.099
-0.022
0.054
0.086
0.091
0.005
0.059
-0.100
0.047
-0.018
0.063
-0.180
0.005
0.103
0.009
0.104
0.036
-0.011
-0.040
-0.027
0.108
0.031
0.012
-0.114
0.059
-0.018
0.084
-0.072
-0.002
0.084
0.021
-0.039
-0.014
0.015
0.025
0.009
0.042
-0.055
0.021
-0.016
0.084
0.027
0.060
0.037
0.086
-0.127
0.001
0.116
0.007
0.000
-0.022
-0.081
-0.017
0.101
0.030
-0.090
-0.012
0.167
0.021
0.027
-0.033
0.046
0.029
0.068
0.075
0.040
0.029
-0.072
0.075
0.014
0.004
0.018
0.052
-0.010
0.070
-0.047
0.003
0.045
0.019
0.126
-0.017
0.037
-0.042
0.029
-0.008
0.016
0.044
0.081
0.043
0.020
0.343
0.099
-0.136
-0.397
-0.295
-0.073
0.210
0.263
0.198
0.115
-0.116
-0.140
-0.125
0.044
0.033
0.056
0.130
0.071
0.056
0.159
0.071
0.045
0.008
0.036
0.049
-0.075
0.053
-0.053
-0.031
0.046
0.056
-0.024
-0.085
0.091
0.026
-0.005
0.022
0.030
-0.017
-0.025
0.059
-0.018
0.035
0.037
0.036
-0.031
0.009
0.063
0.039
0.080
0.022
-0.062
0.043
-0.054
0.009
0.074
0.002
-0.049
-0.112
0.031
0.044
0.067
-0.084
0.065
0.063
0.032
-0.030
0.090
0.002
0.027
-0.083
0.008
0.049
0.042
0.067
0.048
-0.041
-0.097
-0.092
0.084
0.058
0.029
0.003
-0.006
0.035
0.073
-0.041
0.057
0.079
0.028
-0.009
-0.011
0.011
-0.022
0.084
0.060
0.020
-0.007
-0.044
-0.110
0.025
0.060
0.036
-0.020
-0.050
0.033
0.050
-0.005
0.118
0.025
0.016
-0.023
-0.035
0.084
0.043
0.001
0.021
0.077
-0.005
0.080
0.018
-0.069
0.025
0.061
-0.007
-0.054
0.062
0.021
0.071
0.062
0.032
-0.003
0.038
-0.032
0.042
-0.025
0.051
0.012
0.205
0.290
0.060
-0.441
-0.533
-0.167
0.169
0.349
0.346
0.060
-0.004
-0.096
-0.209
-0.136
-0.006
0.110
0.084
0.095
0.061
0.022
-0.041
0.050
0.076
0.152
0.015
0.058
-0.070
-0.057
-0.090
0.105
0.022
0.092
-0.014
-0.041
0.033
0.107
-0.023
0.009
-0.054
-0.056
0.080
0.034
0.004
0.038
0.030
-0.001
-0.031
0.069
-0.006
0.009
0.067
-0.073
0.026
-0.024
-0.057
0.072
-0.042
0.044
0.056
0.035
-0.050
-0.031
0.033
0.080
-0.024
0.042
0.055
0.085
-0.019
-0.064
0.036
0.027
-0.021
-0.028
0.058
0.122
0.033
0.061
0.154
-0.054
-0.040
0.038
0.033
0.046
-0.009
0.013
0.062
0.059
-0.058
0.107
-0.002
0.031
-0.034
-0.014
0.063
0.080
0.021
-0.031
0.047
-0.004
0.013
-0.076
0.004
-0.037
0.064
-0.023
0.029
0.094
-0.012
0.080
0.039
0.127
-0.042
-0.059
-0.065
0.098
0.052
0.145
-0.039
0.056
0.016
-0.021
-0.066
0.108
0.057
0.028
-0.019
0.046
0.073
-0.087
0.029
0.063
-0.054
0.035
0.007
0.052
0.036
-0.013
-0.026
0.019
-0.032
0.080
0.105
0.039
0.024
-0.001
0.078
-0.034
-0.050
0.038
0.045
-0.004
0.047
0.065
-0.017
-0.026
0.173
-0.081
0.455
0.232
-0.334
-0.456
-0.278
-0.021
0.295
0.321
0.268
0.075
-0.113
-0.073
-0.119
-0.123
-0.036
0.042
0.091
0.213
0.144
0.142
0.024
0.016
-0.026
0.038
-0.078
0.033
-0.022
0.072
0.043
-0.049
0.045
0.039
-0.040
0.101
0.046
0.037
0.047
0.024
-0.043
0.097
0.040
0.068
-0.036
-0.008
0.044
-0.035
0.078
-0.012
0.084
0.101
0.090
0.094
0.061
-0.047
0.028
0.002
0.012
-0.028
-0.019
0.102
0.060
0.019
-0.010
0.040
0.075
0.036
-0.126
-0.002
0.128
-0.033
0.078
0.079
-0.032
0.079
-0.068
-0.001
-0.009
0.057
-0.017
0.080
-0.060
-0.004
0.106
0.104
-0.013
-0.048
0.013
0.083
-0.059
0.057
-0.004
0.053
0.056
-0.076
0.024
0.115
0.023
-0.029
-0.013
0.048
-0.036
0.040
-0.020
0.038
-0.015
-0.055
0.003
0.078
0.198
0.083
-0.217
-0.082
-0.065
-0.032
0.047
0.050
-0.059
0.048
0.149
0.073
0.003
0.010
-0.012
0.059
0.010
-0.010
0.034
0.037
-0.009
-0.035
0.106
0.020
-0.017
-0.023
0.052
0.032
0.068
-0.071
0.020
0.075
0.098
0.062
-0.013
0.020
-0.018
-0.017
-0.003
0.031
0.049
0.056
-0.056
0.044
0.007
0.025
0.124
0.040
0.024
-0.002
0.068
0.028
0.003
-0.050
-0.013
0.007
0.000
0.105
-0.006
0.041
0.311
0.260
-0.145
-0.367
-0.480
-0.074
0.191
0.323
0.289
0.079
0.005
-0.047
-0.197
-0.069
0.008
-0.020
0.068
0.108
0.196
0.097
-0.028
-0.017
0.120
0.146
0.040
-0.053
0.058
0.028
-0.014
-0.101
-0.063
-0.075
-0.035
0.127
0.071
-0.003
0.041
-0.056
0.069
0.016
-0.064
-0.114
0.107
0.180
0.012
-0.119
0.005
0.026
0.011
0.047
0.116
-0.027
-0.051
0.021
0.035
0.016
-0.007
0.046
-0.070
-0.027
0.065
-0.029
0.057
0.144
0.036
0.042
-0.054
-0.044
-0.003
0.072
0.062
-0.012
-0.035
0.008
0.050
-0.001
0.062
-0.051
0.051
0.030
-0.019
0.107
0.073
-0.014
-0.047
0.098
0.018
-0.023
0.019
0.015
-0.023
0.055
0.034
0.053
-0.027
-0.064
-0.011
0.024
-0.008
0.044
0.070
0.083
0.165
-0.107
-0.046
0.029
0.108
-0.063
0.005
0.118
0.119
0.039
-0.028
0.001
0.007
0.029
0.047
-0.028
0.049
0.071
-0.035
-0.163
0.086
-0.004
0.049
-0.025
0.011
0.112
0.062
-0.063
0.091
0.005
0.014
0.093
0.065
-0.015
0.028
-0.012
-0.025
0.041
0.106
0.103
0.472
0.033
-0.266
-0.537
-0.287
-0.010
0.408
0.435
0.219
-0.115
-0.087
-0.126
-0.164
0.014
0.046
0.050
0.074
0.035
-0.013
0.043
0.135
0.049
0.039
-0.023
0.017
0.054
0.003
0.033
-0.075
-0.061
-0.087
0.088
0.029
0.161
0.006
-0.071
0.084
0.052
-0.071
-0.010
0.040
0.231
0.098
-0.154
-0.043
-0.078
0.095
0.161
0.020
-0.011
0.110
-0.009
0.020
-0.031
-0.086
0.092
-0.031
0.006
0.138
-0.000
-0.101
0.077
-0.011
-0.018
0.036
-0.001
0.036
0.042
0.061
0.023
0.042
0.022
-0.018
0.012
0.034
0.098
0.049
-0.011
0.011
-0.032
-0.024
0.099
0.004
0.027
0.048
-0.017
-0.037
0.050
0.047
-0.007
-0.075
0.072
-0.043
0.051
-0.064
0.053
0.079
0.001
0.085
-0.019
0.038
0.035
0.013
0.074
0.043
-0.015
-0.005
-0.021
0.124
0.016
-0.095
-0.045
-0.055
0.179
0.020
-0.048
-0.031
0.011
0.021
-0.031
-0.091
0.038
0.080
0.071
0.112
-0.069
-0.017
0.033
0.076
0.053
0.035
-0.042
0.062
0.008
-0.033
-0.010
0.060
-0.017
-0.018
0.040
-0.005
-0.027
0.051
0.004
0.004
-0.003
0.056
0.009
-0.081
0.058
0.029
0.163
-0.081
-0.047
0.007
-0.024
0.079
0.057
-0.012
0.003
0.006
0.048
-0.068
0.039
0.054
0.426
0.198
-0.315
-0.465
-0.304
0.136
0.217
0.361
0.124
0.027
-0.043
-0.071
-0.156
-0.080
-0.027
0.084
0.157
0.024
0.035
0.096
0.070
0.136
0.066
0.011
-0.008
-0.012
-0.090
0.010
-0.004
-0.067
0.051
-0.018
0.064
-0.059
-0.006
0.010
0.099
-0.067
0.036
0.046
0.109
-0.083
0.038
-0.028
0.080
0.052
0.040
0.041
0.044
-0.006
-0.052
-0.094
0.125
0.138
-0.006
-0.025
-0.009
-0.049
0.032
0.014
-0.053
-0.023
0.006
0.019
0.085
-0.052
0.098
0.012
0.003
0.031
0.022
0.098
0.004
-0.014
-0.032
0.049
-0.031
0.069
0.067
-0.010
0.014
0.013
0.048
0.040
0.070
0.034
-0.087
-0.042
0.078
-0.043
0.092
0.071
-0.006
0.060
-0.075
-0.029
0.015
0.062
0.062
0.021
-0.063
0.086
0.017
0.064
0.020
0.113
-0.056
-0.006
-0.037
0.052
0.024
0.038
-0.013
-0.041
0.014
0.071
0.043
0.063
0.086
0.083
-0.003
-0.077
-0.019
0.042
0.069
0.019
0.102
-0.006
0.031
0.087
-0.097
0.028
-0.009
0.203
0.067
0.042
-0.082
-0.052
0.061
-0.048
0.107
-0.021
0.036
0.170
0.020
-0.025
-0.029
-0.040
0.024
0.098
0.064
-0.067
-0.052
0.057
0.042
0.029
-0.024
0.010
0.040
-0.021
-0.048
0.049
0.137
0.057
-0.082
-0.058
0.035
0.079
-0.011
0.011
0.067
0.048
0.027
0.041
-0.007
-0.034
0.158
-0.043
0.031
-0.009
0.026
0.482
0.169
-0.311
-0.529
-0.279
0.066
0.223
0.323
0.166
-0.072
-0.023
-0.143
-0.088
-0.016
0.031
0.032
0.103
0.030
0.103
0.071
0.089
0.078
0.002
0.019
0.055
-0.057
-0.106
0.019
0.049
-0.023
-0.129
0.113
0.086
0.024
0.033
0.026
0.028
0.062
0.040
-0.093
0.015
0.070
0.158
-0.090
-0.119
0.061
-0.016
-0.042
0.012
-0.002
0.046
0.119
-0.034
0.042
-0.028
-0.087
0.060
0.012
0.020
0.024
0.130
0.028
0.026
-0.104
-0.059
0.026
0.050
0.073
-0.003
0.128
-0.055
0.083
-0.082
-0.104
0.028
0.054
0.117
0.009
0.013
0.140
-0.063
-0.054
0.006
0.047
-0.055
0.047
0.104
-0.038
-0.001
0.002
0.002
0.024
0.006
-0.003
0.019
0.047
-0.039
-0.009
-0.010
0.006
-0.034
-0.022
0.010
0.006
0.015
0.049
-0.003
0.022
0.078
-0.053
0.073
0.095
0.119
-0.036
0.026
-0.002
0.002
0.108
-0.012
-0.019
0.068
0.104
0.055
-0.046
-0.085
0.056
0.026
-0.038
0.044
0.251
0.294
0.058
-0.416
-0.534
-0.203
0.153
0.401
0.263
0.072
-0.105
-0.082
-0.084
-0.088
0.018
0.078
0.194
0.009
0.024
0.133
0.068
0.080
0.060
-0.053
0.060
-0.019
-0.046
-0.016
0.039
0.029
0.048
0.039
0.026
0.084
-0.106
-0.071
0.079
-0.000
0.065
0.025
-0.001
0.002
0.010
0.018
0.022
0.032
-0.051
-0.029
0.054
0.101
0.052
-0.051
0.015
0.071
0.024
-0.052
-0.081
0.135
0.022
0.094
-0.055
-0.019
-0.053
0.008
0.035
0.095
-0.035
0.008
0.040
0.164
0.012
-0.051
0.004
0.010
0.066
0.043
-0.029
0.154
-0.078
0.027
-0.029
-0.065
-0.004
0.052
0.039
0.030
-0.000
0.032
0.024
0.041
0.013
0.008
-0.008
0.042
0.138
-0.157
0.008
0.098
0.120
-0.056
-0.080
-0.004
0.027
-0.037
0.030
0.069
0.023
-0.013
0.028
0.031
0.020
0.031
0.021
-0.031
0.026
0.044
-0.027
-0.041
0.088
-0.067
0.025
0.076
0.015
-0.003
0.107
0.033
-0.032
-0.035
-0.011
0.107
0.091
0.038
0.067
0.024
-0.006
-0.063
0.180
0.407
0.025
-0.413
-0.401
-0.240
0.157
0.330
0.215
0.210
-0.012
-0.042
-0.210
-0.159
-0.079
0.100
0.177
0.125
0.163
0.026
0.014
0.020
-0.074
0.072
0.015
0.022
0.022
-0.074
0.105
0.021
-0.002
-0.037
0.059
0.025
0.000
0.012
0.053
0.095
0.142
0.018
-0.055
0.056
0.034
0.004
-0.031
0.132
-0.004
0.059
-0.003
0.101
0.051
0.062
-0.040
0.021
-0.026
0.033
0.020
0.031
0.051
0.075
0.116
0.096
-0.109
0.003
0.053
0.061
0.065
-0.003
-0.012
0.042
0.035
-0.039
0.054
0.060
0.006
0.069
-0.037
0.018
0.043
0.073
-0.013
0.083
0.059
0.052
-0.080
-0.052
-0.029
0.123
0.115
0.046
-0.074
0.000
-0.044
0.053
0.037
-0.008
0.023
0.028
0.003
0.061
-0.018
0.055
-0.007
0.072
-0.003
-0.046
0.028
0.013
-0.018
0.032
0.010
0.017
0.067
0.090
-0.003
-0.029
0.046
0.051
0.096
-0.059
0.095
0.024
-0.001
-0.062
0.083
0.010
-0.032
0.019
0.078
0.028
0.114
0.019
-0.029
0.006
-0.093
0.048
-0.012
0.093
0.007
-0.046
0.006
0.097
0.048
0.054
0.134
0.044
-0.081
-0.028
-0.070
-0.010
0.028
0.090
0.017
0.086
-0.090
0.032
0.087
0.025
-0.049
0.006
0.313
0.302
-0.126
-0.464
-0.417
-0.089
0.302
0.326
0.221
0.092
-0.114
-0.212
-0.070
-0.014
0.034
0.137
0.083
0.021
0.048
0.112
0.109
0.017
0.027
0.019
0.086
-0.074
0.043
-0.010
-0.078
0.054
0.024
0.067
-0.066
0.038
0.055
0.032
-0.034
-0.028
0.040
0.030
-0.003
-0.028
0.016
-0.033
-0.006
0.018
0.027
0.078
0.029
-0.021
-0.103
0.043
0.082
0.086
-0.068
-0.099
0.053
0.003
0.038
0.046
-0.031
-0.000
0.007
0.135
-0.037
-0.081
0.037
-0.044
0.010
0.032
0.069
0.181
0.052
0.066
-0.097
-0.020
0.015
0.092
-0.038
0.016
-0.068
0.037
-0.037
0.054
0.083
0.076
-0.019
-0.031
0.004
-0.051
0.138
0.160
0.042
-0.105
-0.045
0.068
0.027
0.085
-0.061
0.036
0.028
0.098
0.064
0.036
-0.014
-0.001
-0.092
0.041
0.048
0.064
0.029
0.006
0.039
-0.049
0.050
-0.051
0.041
0.118
-0.023
-0.083
0.028
0.049
-0.019
-0.022
0.088
0.076
0.003
0.010
0.066
0.026
0.009
0.045
0.076
-0.004
-0.054
0.110
0.081
0.019
-0.037
0.004
0.024
0.098
-0.046
0.020
0.106
0.026
0.027
-0.022
0.019
0.072
0.069
0.124
-0.102
0.058
0.111
0.002
-0.016
0.005
-0.013
0.022
0.049
0.120
-0.018
-0.009
0.143
-0.033
0.004
0.050
0.056
-0.118
-0.035
0.154
0.275
0.446
0.005
-0.445
-0.603
-0.172
0.102
0.347
0.322
0.206
-0.026
-0.075
-0.059
-0.136
-0.045
0.115
0.087
-0.055
0.022
0.127
0.103
-0.026
0.122
-0.049
0.159
-0.030
-0.065
-0.036
0.035
0.007
0.020
0.011
0.023
-0.021
0.033
0.085
0.019
0.021
0.098
-0.045
-0.039
0.135
-0.008
0.035
0.050
-0.034
-0.003
0.085
-0.057
-0.049
0.023
0.072
-0.004
0.084
-0.068
0.012
0.046
-0.005
-0.012
-0.006
0.010
0.074
-0.028
0.026
-0.065
0.076
0.022
-0.118
0.086
-0.037
0.002
0.038
0.003
0.062
-0.001
0.003
0.017
0.037
0.041
-0.043
0.036
-0.002
0.127
0.067
0.087
-0.026
-0.010
-0.017
0.090
-0.120
0.012
0.044
-0.049
0.080
0.072
-0.023
-0.060
0.018
0.019
0.065
0.052
0.004
0.028
-0.048
0.082
0.029
0.002
-0.062
-0.079
0.050
0.029
0.058
0.089
0.044
0.041
-0.092
-0.062
0.045
0.073
0.083
0.011
0.004
0.010
0.005
0.128
0.074
-0.066
-0.071
0.016
0.089
-0.069
0.009
0.150
0.050
0.054
0.042
-0.037
-0.016
-0.047
0.077
0.029
-0.075
0.030
0.405
0.226
-0.216
-0.513
-0.340
-0.057
0.309
0.392
0.146
0.019
-0.054
-0.171
-0.062
-0.023
0.070
-0.012
0.019
0.074
0.137
0.126
0.034
-0.026
0.123
0.004
-0.070
-0.006
0.030
-0.099
-0.024
0.041
0.128
0.032
-0.076
0.050
0.041
-0.079
-0.007
-0.026
0.060
0.044
-0.032
-0.009
0.021
0.042
-0.056
0.001
-0.028
0.068
0.111
0.027
0.004
0.014
0.039
-0.037
0.034
0.029
0.022
0.054
0.018
0.018
0.105
0.040
-0.026
-0.072
0.046
0.043
-0.027
-0.028
0.046
0.081
-0.103
0.014
0.101
0.082
-0.008
-0.017
0.035
-0.020
0.001
0.029
0.057
0.025
-0.027
0.088
0.036
-0.103
0.033
0.045
0.023
0.040
0.021
0.006
-0.021
0.060
-0.033
0.034
-0.008
0.082
0.067
0.082
-0.102
-0.030
0.025
0.018
0.004
0.015
0.025
0.142
0.077
-0.029
0.040
0.041
-0.059
0.096
-0.014
0.037
0.019
-0.010
0.142
0.033
-0.086
-0.004
0.032
0.038
0.030
-0.021
0.053
0.108
0.098
-0.100
-0.010
-0.024
0.042
0.022
0.130
0.013
-0.035
0.009
0.074
-0.052
0.011
0.049
-0.009
0.252
0.371
-0.042
-0.345
-0.443
-0.253
0.124
0.406
0.376
0.117
-0.112
-0.163
-0.048
-0.042
-0.032
0.134
-0.003
0.089
0.083
0.077
0.090
0.005
0.102
-0.022
0.003
0.087
0.057
-0.047
-0.005
0.056
-0.092
-0.024
0.008
0.091
0.131
0.027
-0.057
-0.047
0.022
0.066
0.041
0.005
0.034
-0.082
0.122
0.063
0.043
-0.028
-0.004
0.064
0.130
0.015
-0.027
-0.014
0.094
-0.013
-0.095
0.055
0.103
0.026
0.034
0.041
0.034
0.006
0.010
-0.017
-0.025
0.074
-0.001
0.038
-0.074
0.017
0.023
0.019
0.033
0.105
0.053
0.005
-0.002
-0.010
-0.029
0.061
0.038
0.046
0.081
0.038
-0.034
-0.005
-0.023
0.070
0.043
-0.014
-0.027
0.024
0.043
0.030
0.068
-0.043
0.093
0.022
-0.043
0.000
0.008
-0.008
0.114
0.001
0.051
-0.054
0.087
-0.033
0.031
-0.023
-0.022
-0.038
0.061
0.127
0.179
0.018
-0.105
-0.033
0.051
0.056
0.076
-0.064
0.000
-0.029
0.078
0.002
0.027
-0.012
0.029
-0.007
0.031
0.043
0.004
0.027
-0.071
-0.040
0.062
0.140
0.360
0.259
-0.205
-0.402
-0.412
-0.116
0.243
0.308
0.296
0.077
-0.023
-0.099
-0.088
-0.095
-0.094
0.038
-0.036
0.140
0.080
0.080
0.005
0.063
0.125
0.085
-0.027
-0.032
-0.060
-0.030
-0.083
0.005
0.070
-0.004
0.042
0.027
-0.003
-0.030
-0.020
0.096
-0.053
0.026
0.049
0.085
0.040
-0.057
0.083
-0.002
0.027
0.044
0.016
-0.076
-0.029
0.010
0.036
-0.031
0.012
0.124
-0.095
-0.020
0.065
0.128
0.069
-0.146
-0.042
-0.011
0.047
0.038
-0.003
0.074
0.003
0.103
0.075
-0.035
-0.006
-0.010
-0.020
0.005
0.000
-0.042
0.022
0.151
0.065
0.042
-0.001
-0.007
-0.054
-0.032
-0.008
0.055
0.067
0.067
0.025
0.003
-0.007
0.003
0.017
0.078
-0.071
0.059
-0.017
0.050
0.102
0.055
-0.025
0.037
-0.023
0.002
0.001
-0.009
0.055
0.044
0.026
0.044
0.039
0.004
-0.097
0.019
0.067
0.048
-0.096
0.053
0.062
0.079
-0.020
0.055
0.065
-0.130
0.062
0.060
-0.004
0.074
0.125
-0.032
-0.084
-0.020
-0.035
0.430
0.272
-0.277
-0.407
-0.348
-0.108
0.222
0.384
0.175
0.141
0.023
-0.140
-0.120
0.011
-0.036
-0.011
0.068
-0.024
0.145
0.036
0.069
0.047
-0.013
0.005
0.040
-0.004
-0.054
-0.021
0.142
-0.003
-0.048
-0.033
0.070
-0.024
-0.046
0.034
0.030
0.019
0.040
0.041
-0.024
-0.038
0.022
0.020
0.088
0.060
-0.043
0.070
0.083
-0.011
0.039
0.025
0.034
0.028
0.103
-0.064
0.026
0.067
-0.010
-0.010
0.032
0.045
-0.037
-0.022
0.039
0.010
0.047
-0.017
0.109
0.100
-0.075
0.052
0.016
0.058
-0.028
0.034
0.063
-0.001
0.035
0.014
-0.070
-0.013
-0.046
-0.011
0.028
0.104
0.076
-0.087
-0.025
-0.036
0.033
0.013
0.080
0.015
0.003
0.071
-0.016
-0.075
0.078
-0.041
0.056
0.107
0.021
-0.023
0.036
-0.072
0.048
0.037
0.066
0.075
0.098
0.016
-0.003
-0.011
-0.026
-0.055
0.037
0.038
0.125
-0.045
-0.018
0.068
0.100
-0.126
-0.071
-0.045
0.071
0.006
0.040
0.029
0.081
-0.017
0.016
-0.091
0.039
-0.024
0.097
0.024
-0.089
-0.086
0.062
0.099
-0.003
0.025
0.012
-0.000
-0.058
0.049
0.040
0.066
-0.120
-0.018
-0.046
0.019
0.053
0.106
0.225
0.431
0.122
-0.459
-0.433
-0.215
0.144
0.400
0.331
0.111
-0.048
-0.169
-0.044
-0.015
-0.017
0.037
0.041
0.084
0.091
0.156
0.024
0.063
0.051
-0.062
-0.077
0.082
0.049
-0.016
-0.046
0.004
-0.014
-0.006
0.012
0.079
0.088
0.091
0.009
-0.007
-0.022
0.044
0.033
-0.014
0.039
-0.042
0.114
-0.050
0.098
-0.070
0.043
0.049
0.061
0.014
-0.050
-0.029
0.032
0.052
0.059
-0.023
0.067
0.066
0.116
-0.047
0.063
-0.003
-0.024
-0.022
0.105
-0.016
0.040
-0.010
0.105
-0.001
-0.043
0.012
0.083
0.011
0.112
0.108
-0.121
0.003
0.039
0.071
-0.056
0.036
0.002
0.125
-0.012
0.010
-0.083
0.027
0.064
0.040
-0.058
0.097
0.084
-0.011
-0.108
-0.007
0.040
0.052
0.064
0.016
0.060
-0.019
0.030
0.044
-0.023
-0.099
-0.028
0.064
0.063
0.163
-0.066
0.093
-0.001
-0.050
0.031
0.047
0.113
-0.005
-0.091
0.051
0.067
0.039
0.035
0.027
0.007
0.014
0.077
0.123
-0.045
-0.042
0.058
-0.027
0.006
0.063
0.004
0.030
-0.005
-0.042
0.057
0.046
0.031
0.024
0.007
0.035
0.323
0.174
-0.149
-0.402
-0.427
-0.105
0.211
0.332
0.240
0.050
0.015
-0.182
-0.119
-0.065
0.049
0.049
0.005
0.040
0.124
0.119
0.000
0.097
-0.034
0.113
-0.024
-0.100
-0.016
-0.144
-0.008
0.107
0.137
0.017
0.022
0.005
-0.005
-0.012
-0.046
0.023
0.007
-0.057
0.035
0.056
0.037
0.047
-0.010
0.028
-0.086
-0.018
0.091
-0.057
0.095
-0.027
0.084
-0.025
-0.071
-0.013
0.047
0.084
-0.043
0.067
0.101
-0.041
-0.041
0.027
0.034
-0.005
0.004
0.009
0.037
0.059
-0.135
-0.008
0.020
0.009
0.081
-0.013
-0.004
0.035
0.005
0.047
0.034
-0.068
-0.007
0.147
0.066
0.008
-0.028
-0.026
0.071
0.025
0.029
0.070
-0.047
0.047
0.062
0.053
0.026
0.053
0.018
-0.021
-0.006
-0.044
0.028
0.032
-0.108
0.071
0.071
0.056
-0.057
-0.087
-0.030
0.006
-0.014
-0.068
0.128
0.210
0.044
-0.154
-0.049
0.071
-0.007
0.030
-0.055
-0.004
-0.084
0.074
0.184
0.025
-0.088
0.071
-0.005
0.070
-0.038
-0.008
0.050
0.030
0.030
0.005
-0.003
-0.093
0.079
0.082
0.029
-0.017
-0.017
-0.003
0.071
0.034
-0.009
0.041
-0.068
-0.048
0.049
0.113
0.035
0.007
-0.046
0.001
0.058
-0.015
0.029
0.029
0.005
-0.099
0.053
0.096
0.038
0.100
0.037
0.067
-0.060
-0.177
0.035
0.167
0.075
0.023
0.064
0.402
0.114
-0.405
-0.450
-0.292
0.035
0.334
0.275
0.084
0.042
-0.036
-0.087
-0.059
-0.045
0.069
0.006
0.042
0.182
0.043
0.117
0.078
0.060
0.015
-0.061
-0.030
0.183
0.007
-0.016
-0.137
-0.025
0.059
-0.015
0.005
0.041
0.095
0.081
0.142
0.053
-0.041
-0.004
-0.002
0.011
0.036
-0.046
-0.057
0.017
0.089
-0.020
0.069
-0.019
0.102
-0.003
0.062
-0.114
-0.114
0.002
0.173
-0.001
0.040
0.104
0.027
0.069
-0.046
0.088
-0.029
0.019
-0.009
-0.078
0.073
-0.033
0.091
0.055
0.053
-0.007
-0.029
0.068
0.026
0.054
0.029
0.040
-0.035
-0.001
0.001
0.004
-0.014
0.060
0.043
0.055
0.070
0.038
-0.067
0.122
-0.035
0.013
0.011
0.040
-0.014
0.005
0.078
0.042
-0.106
0.077
-0.046
0.068
0.089
-0.017
0.006
-0.025
0.106
0.038
0.117
-0.036
-0.030
-0.017
-0.013
0.073
0.058
-0.042
0.027
-0.027
0.047
0.045
0.065
0.018
-0.019
-0.008
0.028
-0.119
0.042
0.044
0.029
0.084
-0.002
0.029
-0.013
0.006
-0.018
-0.023
0.031
-0.001
0.081
0.065
0.042
0.112
-0.012
-0.026
-0.016
0.031
0.093
0.016
0.008
-0.016
-0.001
0.080
0.013
0.075
-0.050
-0.049
0.093
0.030
-0.028
-0.002
-0.022
0.026
0.012
0.028
-0.007
-0.051
0.049
0.058
-0.057
-0.016
0.064
0.100
0.397
0.179
-0.317
-0.496
-0.292
0.085
0.235
0.390
0.169
0.023
-0.034
-0.202
-0.090
0.021
0.079
-0.033
0.036
0.075
0.107
0.077
0.038
0.002
0.070
0.137
0.072
-0.059
-0.063
-0.096
0.015
0.019
0.054
0.018
0.044
0.039
0.008
-0.077
0.031
-0.044
-0.011
-0.040
0.036
-0.050
0.114
0.095
0.006
-0.020
-0.021
0.003
0.008
0.045
0.084
0.010
-0.026
0.012
0.156
-0.011
-0.033
-0.045
0.039
-0.007
0.092
0.002
0.045
-0.009
0.125
-0.009
-0.100
-0.018
0.074
-0.018
0.110
-0.014
-0.084
0.028
0.089
0.103
-0.018
0.000
-0.077
0.042
0.075
0.009
0.057
-0.075
-0.021
0.178
-0.001
-0.077
-0.040
-0.002
-0.025
0.037
0.077
0.027
0.077
0.006
0.018
0.089
0.038
-0.022
-0.017
0.074
-0.015
0.007
0.023
-0.018
0.021
0.043
0.087
0.058
0.071
-0.138
-0.021
-0.061
0.029
0.052
0.072
0.011
-0.010
0.047
-0.079
0.036
0.039
0.069
-0.010
0.095
-0.028
-0.113
-0.099
0.099
0.010
0.004
0.135
0.028
0.006
-0.062
0.016
0.089
0.127
-0.031
0.017
0.033
0.029
0.022
0.083
-0.005
-0.010
-0.121
0.040
0.092
0.051
0.136
-0.029
-0.146
-0.032
0.047
0.081
-0.111
0.052
0.082
0.002
-0.073
0.046
-0.037
0.013
-0.022
-0.052
-0.014
0.101
0.106
-0.053
0.004
-0.052
0.069
-0.000
-0.022
-0.006
-0.049
-0.017
0.084
-0.017
0.102
0.037
-0.055
0.088
-0.011
0.027
0.026
0.005
0.001
0.015
-0.052
0.044
0.335
0.219
-0.267
-0.461
-0.375
0.100
0.406
0.271
0.087
-0.000
-0.006
-0.089
-0.021
0.011
-0.015
0.019
0.042
0.057
0.022
0.099
0.129
0.020
-0.053
0.009
0.021
-0.051
0.060
-0.046
-0.008
0.053
-0.021
0.036
-0.017
0.032
-0.073
0.039
-0.024
0.066
0.006
0.049
0.072
0.049
-0.043
-0.105
-0.031
0.014
0.109
0.029
0.026
-0.044
0.005
0.145
0.067
0.014
-0.079
0.059
0.064
0.023
0.007
0.056
0.033
-0.000
-0.011
0.057
0.024
0.112
-0.043
-0.066
0.094
0.150
-0.074
-0.003
0.018
0.067
0.028
0.098
0.036
-0.016
0.016
-0.013
0.073
-0.022
0.058
0.007
0.042
0.024
-0.045
-0.074
-0.011
-0.051
0.019
-0.031
0.108
0.041
-0.041
0.013
0.088
0.008
0.067
0.074
0.077
-0.037
0.025
0.013
0.067
0.018
0.023
-0.016
0.055
0.003
0.096
-0.062
0.084
-0.067
-0.022
0.029
0.153
0.061
0.024
0.041
-0.054
-0.099
0.005
0.041
0.082
0.079
-0.030
0.024
-0.021
0.005
0.043
-0.073
0.068
0.059
0.041
0.013
0.040
0.083
-0.013
0.077
0.013
0.013
-0.023
0.042
0.105
-0.017
-0.037
0.009
0.010
0.019
-0.048
0.082
0.014
-0.154
-0.003
0.058
0.050
0.040
0.036
-0.029
0.033
0.064
0.061
0.018
0.027
0.130
-0.018
0.023
0.016
0.093
-0.035
0.064
0.001
-0.004
-0.078
-0.067
0.018
0.117
0.087
-0.163
-0.031
0.048
0.032
-0.044
-0.045
0.104
0.061
0.032
0.054
0.081
-0.050
0.019
0.013
-0.098
0.169
0.066
0.100
-0.016
-0.108
0.024
0.032
-0.004
-0.096
0.419
0.264
-0.152
-0.484
-0.392
0.018
0.290
0.270
0.154
0.088
-0.095
-0.067
-0.139
0.009
-0.019
0.035
0.115
0.041
0.146
-0.031
0.008
0.092
0.104
0.001
0.004
-0.084
0.041
0.012
0.019
-0.038
-0.005
-0.041
0.046
-0.047
0.028
0.120
-0.070
0.069
0.039
0.015
0.047
0.050
0.005
-0.014
-0.001
0.055
0.044
-0.049
0.054
-0.020
0.061
0.055
-0.043
-0.018
0.036
0.064
0.142
0.107
-0.054
-0.126
0.020
0.112
-0.009
-0.006
-0.034
0.009
-0.007
0.035
0.130
0.034
0.012
-0.068
0.019
0.015
0.073
-0.052
-0.019
-0.028
0.097
0.078
0.095
-0.020
0.017
-0.078
0.015
0.021
0.086
-0.039
0.012
-0.087
0.097
0.074
0.023
-0.006
-0.024
-0.042
0.062
0.067
0.120
0.019
0.029
-0.002
-0.081
0.010
0.058
0.005
0.012
0.024
-0.003
-0.052
-0.032
0.057
0.062
-0.031
0.038
0.056
-0.006
0.066
0.035
-0.001
-0.095
-0.042
0.050
-0.030
0.100
0.052
0.023
-0.002
0.137
-0.051
0.019
0.082
-0.083
0.051
0.104
0.012
-0.054
-0.100
0.057
0.064
-0.080
-0.006
0.099
0.012
-0.087
0.007
0.120
0.064
-0.066
0.013
0.040
0.075
0.046
0.058
0.046
-0.016
0.065
0.029
0.018
0.023
-0.055
-0.070
-0.046
-0.025
0.175
0.081
-0.050
0.068
-0.032
0.019
-0.007
-0.055
0.012
0.053
0.086
0.086
0.061
-0.041
0.013
-0.008
-0.041
-0.078
0.168
0.081
0.034
0.001
-0.018
0.042
0.089
-0.036
-0.002
-0.064
-0.006
0.090
-0.078
0.087
0.080
-0.010
0.045
0.086
-0.010
0.033
-0.008
-0.130
0.014
0.058
0.003
-0.052
0.014
0.090
0.008
0.018
-0.053
0.022
0.091
0.065
0.264
0.277
-0.118
-0.412
-0.437
-0.133
0.254
0.422
0.203
0.048
-0.117
-0.155
-0.116
0.015
-0.014
-0.041
0.082
0.038
0.095
0.100
0.092
0.022
0.054
0.008
-0.101
0.027
0.112
-0.036
-0.003
0.057
0.052
-0.017
-0.026
-0.044
0.003
0.119
0.065
-0.041
0.049
-0.066
-0.007
0.028
-0.039
0.040
-0.023
0.068
-0.038
-0.027
0.007
-0.005
-0.062
0.038
0.042
0.113
0.048
0.007
0.070
-0.029
0.030
0.053
0.050
-0.019
-0.026
-0.019
-0.057
0.060
-0.020
0.004
0.006
-0.031
0.046
0.000
0.031
0.015
0.008
0.030
0.098
-0.031
-0.033
0.009
0.050
0.034
-0.021
0.008
0.041
0.019
0.015
-0.037
-0.066
0.064
0.016
0.033
0.076
-0.067
-0.007
-0.042
-0.023
0.026
0.058
0.126
0.085
-0.094
0.036
0.019
0.059
-0.052
-0.021
-0.010
0.004
0.039
0.029
-0.006
-0.035
0.022
0.035
0.021
0.006
0.016
0.007
0.033
0.061
-0.050
0.155
0.110
-0.063
-0.044
0.028
-0.028
-0.003
0.024
0.084
-0.036
0.035
0.014
0.064
-0.097
-0.034
0.034
0.052
0.077
-0.001
0.021
-0.005
-0.055
0.012
0.026
0.022
0.019
0.020
0.017
0.064
0.025
0.116
-0.038
0.016
-0.051
0.123
0.113
-0.017
0.028
-0.012
0.031
0.001
-0.011
0.020
0.037
0.053
0.020
-0.019
-0.004
0.036
0.042
0.077
0.045
-0.030
-0.046
0.041
0.072
0.035
-0.055
0.025
0.038
-0.012
0.026
0.036
0.109
0.029
0.044
0.007
-0.060
-0.018
0.031
0.068
-0.017
0.078
0.011
0.027
0.375
0.139
-0.156
-0.520
-0.251
-0.031
0.291
0.335
0.225
0.042
-0.117
-0.149
-0.121
0.031
0.082
-0.000
0.054
0.035
0.131
0.116
0.068
-0.003
0.091
-0.026
-0.044
0.036
0.052
-0.039
-0.040
0.117
-0.059
-0.058
0.087
-0.020
-0.008
0.097
-0.042
0.076
-0.008
0.001
0.025
-0.058
0.009
0.114
-0.017
-0.017
0.114
-0.019
-0.107
0.050
0.096
0.109
0.008
-0.005
-0.021
-0.010
-0.036
0.092
0.060
0.011
0.042
-0.018
0.052
-0.050
0.031
0.058
0.059
0.019
-0.000
-0.112
-0.020
0.012
0.014
0.023
-0.023
0.040
0.076
0.017
0.041
-0.011
-0.022
-0.052
0.055
-0.019
0.082
-0.105
0.011
-0.016
0.072
0.019
-0.004
0.004
0.085
0.067
0.053
-0.015
-0.062
-0.019
0.080
0.055
0.002
0.047
0.039
0.142
-0.015
-0.025
-0.068
-0.064
0.148
0.036
0.085
0.041
0.031
-0.112
0.020
0.076
0.113
0.039
0.030
-0.061
-0.043
0.000
-0.007
0.034
0.086
0.016
0.020
0.038
-0.008
-0.035
0.043
-0.045
-0.010
-0.021
0.022
0.073
-0.009
0.024
0.084
0.019
0.036
-0.027
-0.002
-0.009
-0.056
0.036
0.029
0.075
-0.007
0.035
-0.047
0.066
0.119
-0.047
0.002
0.069
0.074
-0.063
-0.089
0.040
0.050
0.068
-0.055
0.046
0.158
-0.046
-0.023
0.017
0.044
0.052
0.051
-0.036
-0.014
0.076
-0.017
0.056
-0.024
-0.021
0.024
-0.006
0.008
0.107
-0.010
-0.080
-0.023
0.119
-0.022
0.018
0.071
-0.004
0.025
-0.034
0.245
0.315
0.046
-0.373
-0.393
-0.227
-0.003
0.363
0.281
0.165
-0.047
-0.151
-0.134
-0.066
-0.060
0.069
0.083
0.160
0.098
-0.015
0.194
-0.027
0.089
0.021
0.062
-0.049
-0.025
-0.020
0.041
-0.046
0.031
0.070
-0.000
0.075
0.035
-0.083
-0.029
0.068
0.065
-0.015
0.049
0.014
0.085
-0.042
-0.094
-0.004
0.104
0.121
-0.015
-0.122
0.039
0.004
0.072
-0.019
-0.007
0.033
0.066
0.059
0.010
-0.071
0.060
0.024
0.176
-0.046
-0.072
0.031
0.014
0.056
0.085
0.009
-0.140
0.099
-0.050
0.076
-0.025
0.056
0.069
-0.038
-0.040
-0.034
0.049
0.055
0.055
0.011
-0.065
-0.051
0.033
0.020
0.008
0.055
-0.025
0.078
0.015
0.146
0.013
0.030
-0.094
-0.039
-0.048
0.017
0.106
0.108
-0.045
-0.015
-0.039
0.054
0.066
0.005
0.037
0.050
0.065
0.001
-0.005
-0.003
0.023
-0.008
0.095
-0.002
0.028
0.058
0.067
-0.118
-0.014
0.131
0.086
0.084
0.024
-0.090
0.002
0.040
-0.074
0.131
0.089
0.064
-0.009
-0.009
0.008
0.004
-0.035
0.041
0.001
0.092
0.035
0.092
-0.024
-0.010
-0.020
-0.024
0.033
0.032
0.054
0.055
0.037
-0.073
0.061
0.021
0.002
-0.010
-0.010
0.033
0.074
0.081
0.049
0.015
0.046
0.079
0.013
0.037
-0.088
0.081
0.094
-0.073
-0.024
-0.008
0.021
0.129
-0.030
-0.034
-0.039
0.069
0.020
-0.023
0.066
0.007
-0.002
0.013
0.104
0.065
-0.024
-0.007
-0.001
0.044
-0.051
-0.029
0.114
0.036
0.010
-0.011
0.013
0.081
0.035
-0.062
0.073
-0.035
-0.025
0.112
0.090
0.008
-0.103
-0.056
-0.011
0.023
0.135
0.002
-0.010
-0.045
-0.005
0.077
0.033
0.411
0.177
-0.026
-0.423
-0.418
-0.096
0.182
0.468
0.104
0.010
-0.015
-0.138
-0.066
-0.076
-0.025
0.028
0.044
0.095
0.149
0.050
0.042
0.117
0.046
-0.085
-0.017
0.093
0.013
-0.084
0.102
0.026
-0.031
-0.029
-0.017
0.093
-0.042
0.053
0.039
-0.038
0.031
-0.004
0.071
-0.037
0.084
-0.064
0.006
0.020
0.007
-0.013
0.031
-0.001
0.086
-0.040
-0.020
0.122
-0.005
-0.089
0.035
0.044
0.007
0.027
0.048
0.121
0.068
-0.023
0.040
0.028
0.049
-0.014
0.065
-0.052
0.013
0.023
0.088
0.018
0.004
-0.102
0.045
0.016
-0.064
-0.008
0.011
0.080
0.004
0.062
-0.120
-0.014
0.087
0.024
0.027
0.031
-0.074
0.141
0.079
-0.014
-0.035
0.031
-0.033
-0.002
-0.034
-0.016
0.032
0.047
0.091
0.061
0.029
-0.075
0.086
-0.023
0.103
-0.181
-0.070
0.051
-0.017
0.050
0.023
-0.011
-0.023
0.037
0.111
0.068
0.048
0.008
0.007
0.032
0.032
0.025
0.078
0.005
0.004
0.002
0.058
-0.025
0.015
0.028
0.006
-0.069
0.026
0.044
0.042
-0.134
0.144
0.071
-0.089
0.042
-0.040
-0.060
-0.009
0.012
0.108
-0.010
-0.027
0.019
0.066
-0.017
-0.037
0.063
-0.035
0.043
0.016
0.066
0.015
0.031
0.024
0.024
0.025
-0.007
0.035
0.012
-0.062
0.046
0.082
0.105
0.089
-0.080
-0.069
0.069
0.035
0.070
-0.086
-0.012
0.092
0.036
-0.005
0.006
0.058
-0.043
-0.024
0.025
0.097
0.009
0.058
-0.009
0.036
-0.013
-0.048
-0.026
-0.003
0.094
-0.064
0.155
0.360
0.135
-0.248
-0.426
-0.330
0.030
0.250
0.333
0.200
-0.007
-0.136
-0.164
-0.032
-0.033
-0.059
0.061
0.087
0.039
0.038
0.138
0.114
0.085
0.076
-0.098
0.066
-0.017
0.027
-0.050
0.078
-0.005
0.055
-0.075
0.038
0.067
-0.004
-0.053
0.002
0.060
-0.006
-0.021
0.113
-0.035
-0.009
-0.047
-0.026
-0.037
0.049
0.101
0.032
-0.035
0.031
0.019
0.020
-0.020
0.062
-0.030
0.022
0.011
0.163
0.047
-0.089
-0.048
-0.062
0.111
0.147
0.034
-0.045
0.083
-0.148
0.038
0.079
0.059
0.006
-0.038
0.026
0.090
-0.001
0.145
0.059
-0.040
-0.033
0.008
-0.001
0.160
-0.048
-0.121
0.045
0.004
-0.038
-0.039
0.128
0.048
0.034
-0.015
0.052
-0.108
0.034
0.090
-0.033
-0.007
-0.004
0.082
0.049
-0.041
0.005
-0.033
0.027
0.113
0.027
-0.035
-0.049
0.076
-0.019
-0.009
0.090
0.051
-0.032
0.065
-0.032
0.041
0.005
0.119
0.110
0.014
-0.027
-0.041
-0.079
-0.095
0.114
-0.043
-0.004
0.116
0.169
0.069
0.005
-0.029
-0.005
-0.091
-0.020
0.024
0.131
0.051
0.037
-0.024
0.102
0.036
-0.110
-0.050
0.076
0.044
0.018
-0.014
0.084
0.024
0.056
-0.011
-0.089
-0.086
0.067
0.003
0.078
0.019
0.054
0.015
0.008
0.023
-0.015
0.107
-0.014
-0.003
0.024
-0.017
0.063
0.001
0.004
0.068
0.074
-0.048
-0.012
0.034
0.021
0.089
0.069
-0.018
0.026
0.412
0.113
-0.234
-0.389
-0.379
0.026
0.287
0.329
0.156
0.013
-0.178
-0.121
-0.110
0.010
0.021
0.059
0.002
0.131
0.004
0.089
0.104
0.109
0.036
-0.068
-0.131
-0.029
0.022
-0.007
0.182
0.093
0.006
-0.095
0.002
0.022
0.074
0.008
0.023
-0.057
0.112
0.098
-0.015
0.009
0.016
-0.097
0.001
0.087
0.032
-0.020
0.013
-0.017
0.062
0.048
-0.038
0.025
-0.016
0.029
0.065
0.001
-0.015
0.126
0.056
-0.001
0.018
0.050
-0.003
0.035
0.033
0.077
-0.028
0.044
0.047
0.126
0.037
0.033
-0.046
0.037
-0.032
0.097
-0.031
0.076
-0.080
0.023
0.004
0.019
0.039
0.064
0.065
0.124
-0.044
0.041
0.041
0.082
-0.034
0.013
0.105
0.023
-0.006
-0.020
0.067
0.097
0.010
-0.040
0.003
0.108
0.206
-0.017
-0.103
-0.150
-0.012
0.026
0.117
0.124
0.026
-0.052
0.036
-0.063
0.036
-0.072
0.017
-0.009
0.128
0.038
-0.026
0.050
0.048
-0.091
0.139
0.006
0.078
0.121
-0.053
-0.035
0.044
-0.016
-0.007
-0.082
0.089
0.085
0.028
-0.033
-0.040
-0.034
0.045
-0.012
0.039
0.041
-0.035
0.031
0.015
0.054
0.002
-0.070
0.003
0.073
0.039
-0.095
0.069
0.091
-0.003
0.056
-0.086
0.062
-0.063
0.064
-0.027
-0.012
0.306
0.302
-0.083
-0.406
-0.476
-0.126
0.180
0.345
0.268
0.046
-0.129
0.008
-0.074
-0.083
-0.104
0.124
0.125
0.048
0.105
0.143
-0.022
-0.042
0.051
0.078
0.030
-0.047
-0.031
0.014
0.031
-0.111
-0.008
0.020
0.079
0.076
0.027
-0.051
0.009
-0.019
0.039
0.036
0.044
0.038
0.024
0.083
0.095
-0.060
0.041
-0.088
-0.002
0.019
0.167
0.096
-0.026
-0.073
-0.012
0.044
-0.024
0.039
0.066
0.052
0.039
-0.036
-0.029
-0.094
0.197
0.003
0.036
-0.027
0.028
0.072
0.048
-0.072
-0.115
0.015
0.018
0.031
0.049
0.091
0.025
-0.015
0.009
-0.005
0.031
0.102
-0.023
0.037
0.005
-0.074
0.043
0.120
0.083
-0.108
-0.106
-0.013
0.024
0.053
0.027
0.143
-0.006
-0.013
0.034
-0.069
-0.070
0.044
0.044
0.123
0.038
-0.055
-0.050
-0.010
0.008
0.050
0.050
0.083
-0.011
-0.155
0.013
0.094
0.070
0.086
-0.053
-0.033
0.021
0.005
-0.058
0.060
0.037
0.051
0.043
-0.065
0.055
0.026
0.022
0.060
0.044
0.034
-0.065
0.018
-0.036
0.049
0.067
0.092
0.029
0.028
0.001
0.008
0.005
0.027
-0.051
-0.007
0.075
0.092
0.026
0.074
0.028
0.060
-0.011
0.026
0.023
0.044
-0.002
-0.011
0.078
-0.002
0.040
-0.046
-0.037
0.069
0.123
-0.158
0.059
0.216
0.270
-0.126
-0.370
-0.354
-0.019
0.140
0.255
0.240
0.069
-0.053
-0.090
-0.041
-0.002
-0.061
0.045
0.045
0.043
0.129
0.149
0.087
-0.054
0.022
0.062
0.026
0.014
0.015
0.071
0.038
-0.028
-0.057
-0.100
0.046
0.004
0.106
0.048
-0.072
-0.106
-0.046
-0.018
0.159
0.058
-0.043
0.063
-0.021
0.012
0.027
0.016
0.010
-0.008
-0.010
0.023
0.017
0.017
-0.060
0.127
-0.012
0.052
0.027
-0.083
0.026
0.038
0.012
0.030
-0.083
0.026
0.052
-0.015
0.011
-0.062
-0.024
0.124
0.072
0.045
-0.084
-0.063
-0.025
0.068
0.184
0.092
-0.083
0.057
0.131
0.043
0.006
-0.032
-0.022
0.074
0.056
-0.006
0.026
-0.059
0.088
0.006
0.031
-0.025
-0.044
0.114
-0.048
-0.044
0.106
0.077
0.016
-0.070
-0.008
0.103
-0.089
0.067
-0.044
0.087
0.047
0.083
-0.075
-0.045
0.070
0.010
-0.026
0.101
0.074
0.006
0.013
-0.005
0.050
0.010
0.094
0.026
-0.007
-0.115
-0.022
0.075
0.123
0.004
0.025
-0.021
0.013
0.028
0.049
0.072
-0.016
0.058
0.171
0.023
0.003
-0.093
-0.146
-0.083
0.107
0.241
0.038
-0.039
0.245
0.205
-0.190
-0.497
-0.366
-0.105
0.229
0.327
0.203
0.139
-0.126
-0.095
-0.047
-0.165
0.035
0.038
0.102
0.079
-0.026
0.155
0.110
0.065
0.071
0.058
-0.020
-0.038
-0.031
-0.004
-0.005
-0.067
0.021
0.119
0.034
-0.125
0.045
0.030
0.000
0.055
0.002
-0.078
-0.019
0.015
0.001
0.076
0.051
-0.016
-0.046
0.017
0.025
0.065
-0.034
0.012
0.004
-0.031
0.080
0.040
0.112
-0.006
-0.006
0.016
-0.018
0.039
0.006
0.023
0.014
0.047
0.030
0.090
-0.047
-0.012
0.043
0.065
0.023
-0.013
0.034
-0.083
-0.010
0.017
0.045
0.022
-0.021
0.064
0.041
0.046
-0.070
-0.017
0.033
0.052
-0.044
0.009
-0.016
0.042
-0.043
0.058
