0.151
0.130
-0.012
0.032
-0.087
-0.038
0.055
0.044
0.095
0.007
-0.001
0.015
-0.035
0.034
-0.028
0.003
0.014
-0.052
0.087
0.046
0.011
0.069
0.039
0.005
0.041
0.027
0.004
-0.013
0.068
-0.033
0.023
0.035
0.095
0.620
0.012
-0.729
-0.414
0.081
0.159
0.254
0.295
0.157
0.039
-0.062
-0.221
-0.127
0.013
0.019
0.061
0.435
1.055
-0.501
-1.383
-0.288
0.454
0.686
0.324
0.168
-0.051
-0.372
-0.243
0.077
0.198
0.071
0.055
-0.019
0.100
0.093
0.058
0.093
0.030
0.027
0.084
-0.047
-0.003
-0.019
0.044
-0.016
0.067
-0.005
0.078
-0.015
-0.037
0.038
0.052
0.131
0.059
-0.022
0.067
0.041
0.034
0.009
-0.104
0.001
-0.018
0.033
0.041
-0.002
0.047
-0.038
-0.020
0.020
0.051
0.043
0.020
0.085
0.027
-0.040
0.004
0.035
0.032
0.123
0.053
0.048
0.112
0.046
0.007
-0.036
0.085
0.089
0.026
0.045
-0.025
0.040
-0.006
-0.026
0.087
0.073
0.046
0.046
-0.080
-0.028
0.004
0.013
0.060
0.081
-0.036
-0.001
0.027
0.087
-0.017
0.113
-0.056
0.293
1.003
-0.393
-1.401
-0.366
0.471
0.635
0.430
0.148
-0.141
-0.138
-0.115
-0.064
-0.059
0.053
-0.121
-0.033
0.166
0.354
0.284
0.094
-0.103
-0.004
-0.064
-0.010
0.013
0.092
0.064
0.001
-0.037
0.082
-0.001
0.072
-0.040
-0.010
0.064
0.061
0.013
0.270
0.562
-0.258
-0.745
-0.312
0.197
0.210
0.356
0.230
0.040
-0.137
-0.094
-0.119
-0.021
-0.070
0.103
0.086
0.107
0.081
0.166
0.139
0.119
0.063
0.113
0.001
-0.005
-0.056
0.007
-0.036
0.007
0.086
0.056
-0.058
0.043
-0.029
0.087
0.063
0.051
0.946
0.105
-1.284
-0.600
0.303
0.591
0.527
0.085
-0.121
-0.113
-0.144
-0.057
-0.053
-0.053
0.096
0.082
0.123
0.129
0.029
0.058
0.024
0.075
0.058
0.001
0.055
0.133
-0.159
-0.121
0.090
0.220
0.107
-0.005
-0.005
-0.070
0.064
0.069
0.002
0.041
0.024
0.126
0.055
0.063
0.012
-0.013
-0.000
0.020
0.056
0.029
0.005
0.002
0.077
0.075
0.108
-0.027
0.018
-0.011
0.008
0.039
0.048
-0.036
0.040
0.027
0.197
-0.018
-0.044
-0.015
-0.014
0.099
0.086
0.029
0.005
0.054
0.057
-0.049
0.036
0.077
0.039
0.251
0.964
-0.237
-1.407
-0.540
0.438
1.236
0.569
-0.694
-0.608
-0.028
0.041
0.108
0.222
0.129
0.085
-0.127
-0.114
0.078
0.056
0.110
0.019
0.105
0.048
0.063
0.113
0.093
-0.037
-0.014
-0.038
0.038
0.108
0.059
0.052
-0.011
-0.011
-0.088
0.023
0.002
0.042
0.208
-0.057
-0.214
0.027
0.240
0.263
0.065
-0.061
-0.149
-0.043
0.057
0.048
0.005
-0.017
0.032
0.005
0.060
-0.024
0.083
-0.016
-0.038
0.030
0.079
0.071
0.083
0.040
-0.036
-0.017
0.001
0.003
0.035
-0.098
0.109
0.014
0.031
0.067
0.038
0.022
-0.068
0.017
0.986
0.064
-1.376
-0.629
0.280
0.597
0.498
0.228
0.116
-0.074
-0.162
-0.148
-0.137
-0.091
0.021
0.111
0.094
0.163
0.270
0.700
0.025
-0.777
-0.476
0.057
0.105
0.180
0.233
0.103
-0.114
-0.116
0.041
-0.016
-0.048
0.058
0.048
0.079
0.056
0.107
0.115
0.055
0.004
-0.018
0.045
0.030
0.026
-0.002
-0.032
-0.019
-0.091
-0.006
0.051
0.014
-0.003
0.061
0.069
0.145
0.045
-0.052
-0.002
0.086
0.076
0.043
0.050
0.067
-0.270
-0.037
0.109
0.211
0.090
-0.015
-0.012
0.033
-0.013
0.058
-0.070
0.245
1.149
-0.256
-1.389
-0.299
0.277
0.582
0.445
0.075
-0.119
-0.059
-0.171
-0.083
-0.121
-0.038
0.124
0.126
0.109
0.085
0.082
0.105
0.004
0.019
-0.065
0.067
0.059
0.037
0.016
-0.064
0.015
0.024
0.061
0.043
0.006
0.034
0.054
-0.001
0.079
0.047
0.033
0.078
-0.029
0.002
0.008
0.088
-0.010
0.000
0.066
0.007
0.006
0.128
-0.040
-0.060
0.042
0.069
-0.006
0.109
0.064
0.012
0.056
0.047
-0.030
0.104
0.088
0.126
0.549
0.043
-0.779
-0.480
0.192
0.222
0.187
0.234
0.167
0.073
-0.231
-0.300
-0.037
0.240
0.235
0.002
-0.025
-0.021
0.043
0.084
0.113
0.132
0.091
-0.070
0.031
0.058
0.930
0.105
-1.415
-0.783
0.121
0.614
0.567
0.170
-0.019
-0.117
-0.094
-0.133
-0.014
-0.001
0.152
0.070
0.145
0.091
0.057
0.013
0.057
0.064
0.064
0.024
0.028
-0.018
-0.004
-0.001
0.057
0.022
0.016
-0.008
0.081
0.023
-0.047
0.015
-0.033
0.057
0.038
-0.001
0.084
0.028
-0.027
0.063
0.050
0.107
0.032
0.082
0.089
0.038
-0.018
-0.057
-0.062
0.076
0.056
0.111
0.133
0.008
-0.033
-0.078
0.051
0.052
0.062
0.092
0.051
0.080
0.013
0.006
-0.015
0.059
-0.008
-0.037
-0.034
0.156
0.201
-0.084
-0.212
-0.011
0.248
0.469
1.047
-0.242
-1.504
-0.543
0.276
0.692
0.531
0.102
0.033
-0.188
-0.211
-0.072
-0.110
-0.058
0.555
0.417
-0.570
-0.478
0.060
0.278
0.278
0.330
0.156
0.007
-0.049
-0.071
-0.080
-0.023
-0.065
-0.063
0.123
0.165
0.187
0.248
0.053
-0.099
-0.014
0.022
0.036
-0.011
-0.008
0.057
0.000
-0.006
0.085
-0.017
0.080
0.002
0.057
-0.010
0.073
0.093
0.063
0.060
0.064
-0.019
0.018
-0.003
0.023
-0.027
0.091
0.007
0.006
0.004
0.116
-0.059
0.002
0.018
0.096
0.134
-0.004
0.016
0.070
-0.001
0.051
-0.035
0.053
-0.006
0.046
0.066
0.057
0.050
0.040
0.017
0.071
0.205
-0.106
-0.242
0.065
0.336
0.248
0.015
-0.086
-0.135
0.406
0.876
-0.854
-1.224
-0.101
0.456
0.567
0.374
0.084
-0.121
-0.137
-0.179
-0.099
-0.058
0.032
0.104
0.120
0.167
0.089
0.118
0.070
0.044
0.077
0.009
0.044
-0.056
-0.111
0.129
0.044
0.070
0.062
0.006
-0.032
0.045
0.015
-0.054
0.015
-0.010
0.126
0.107
-0.022
0.005
-0.009
-0.049
0.179
0.546
-0.093
-0.769
-0.384
0.170
0.216
0.273
0.243
0.121
-0.039
-0.125
-0.057
-0.049
-0.061
0.051
0.105
0.080
0.071
0.060
0.115
0.066
-0.017
-0.019
-0.011
0.021
0.022
0.014
0.014
-0.019
0.045
0.059
0.014
0.026
0.068
0.067
0.017
-0.043
-0.030
-0.026
0.085
0.069
0.345
0.879
-0.520
-1.455
-0.237
0.487
0.685
0.384
-0.005
-0.170
-0.140
-0.158
-0.024
0.036
0.098
0.111
0.083
0.112
0.055
0.117
0.070
0.059
0.034
-0.034
-0.044
-0.012
-0.027
-0.022
-0.004
0.046
0.031
0.094
0.064
0.004
0.049
-0.003
0.019
-0.021
0.060
0.102
0.051
0.005
0.059
-0.069
0.018
0.040
0.039
0.099
0.009
0.061
-0.029
-0.039
0.071
0.034
0.029
0.023
0.003
0.075
0.061
0.081
0.060
0.027
0.099
0.052
0.010
-0.019
0.001
-0.100
-0.017
0.047
0.144
0.046
0.026
-0.007
-0.050
-0.039
0.175
0.120
0.149
0.023
-0.035
0.048
-0.016
0.071
-0.019
-0.053
0.034
0.038
0.034
0.040
0.084
0.014
0.029
0.014
-0.005
0.099
-0.023
-0.020
0.019
0.007
0.082
0.030
-0.093
-0.008
1.047
0.441
-1.296
-0.881
0.114
0.525
0.623
0.148
0.014
-0.090
-0.186
-0.138
0.010
0.145
0.048
0.113
0.029
0.001
0.155
0.131
0.512
0.246
-0.783
-0.537
0.162
0.216
0.223
0.152
0.126
-0.054
-0.147
-0.068
-0.069
-0.008
0.089
0.039
0.065
0.144
0.098
0.084
0.141
0.064
-0.032
-0.058
0.029
0.043
-0.065
0.021
0.135
-0.039
-0.006
0.010
0.018
0.053
-0.008
0.097
0.011
0.013
-0.014
0.017
-0.052
0.003
0.065
0.060
-0.005
0.084
0.082
0.059
-0.029
-0.066
-0.035
0.165
0.155
-0.209
-0.182
0.169
0.269
0.105
-0.056
0.015
-0.028
-0.060
-0.053
-0.026
0.104
0.134
0.278
1.120
-0.421
-1.390
-0.329
0.314
0.648
0.435
0.052
-0.129
-0.104
-0.120
-0.037
-0.002
-0.004
-0.038
0.046
0.134
0.123
0.103
0.154
0.054
0.005
-0.006
0.062
-0.029
-0.055
-0.089
-0.003
0.152
0.081
0.046
0.025
-0.008
0.009
-0.078
0.063
0.031
0.054
0.099
0.061
0.042
0.062
-0.027
0.011
-0.023
0.069
-0.003
0.075
0.001
0.008
0.014
0.059
0.159
-0.020
0.014
-0.040
-0.083
0.124
0.017
0.010
0.076
-0.058
0.011
0.046
0.028
0.056
0.170
0.526
0.146
-0.815
-0.427
0.092
0.224
0.185
0.279
0.199
0.036
-0.084
-0.406
-0.199
0.148
0.274
0.200
0.029
0.014
-0.052
0.079
0.009
0.114
0.126
0.968
0.263
-1.401
-0.805
0.226
0.617
0.479
0.171
-0.134
-0.210
-0.169
-0.061
-0.044
0.002
0.032
0.123
0.072
0.070
0.127
0.074
0.040
0.093
0.080
0.068
-0.011
-0.042
-0.013
0.085
0.030
0.039
-0.035
0.065
0.011
0.032
0.023
0.052
-0.023
0.058
0.113
0.081
0.000
-0.007
0.024
-0.018
0.050
0.062
0.008
0.048
-0.028
-0.001
0.016
0.068
0.100
0.051
0.003
0.085
0.022
0.090
-0.005
0.020
-0.100
0.086
0.101
0.084
-0.057
0.094
0.091
0.054
0.103
-0.023
0.016
-0.010
-0.009
-0.028
0.078
0.155
-0.068
-0.043
0.049
0.061
0.103
0.101
-0.053
-0.243
0.157
0.297
0.144
0.034
-0.030
-0.045
-0.058
-0.059
0.011
0.079
0.071
0.055
-0.016
0.005
0.048
0.745
0.593
-1.308
-1.099
0.093
0.568
0.682
0.269
-0.060
-0.093
-0.189
-0.045
-0.069
-0.009
0.042
0.116
0.185
0.085
0.047
0.044
0.039
0.070
0.044
0.001
0.163
0.064
-0.195
0.005
0.068
0.174
0.095
0.014
-0.027
-0.030
-0.032
-0.019
0.042
0.085
0.053
0.064
-0.074
-0.013
0.006
0.014
0.055
0.587
0.172
-0.718
-0.441
0.105
0.299
0.223
0.264
0.086
-0.049
-0.205
-0.080
0.049
-0.024
-0.028
0.067
0.077
0.075
0.099
0.119
0.049
0.040
0.059
-0.002
-0.013
-0.007
0.067
0.020
0.007
0.043
0.079
-0.157
-0.138
0.114
0.441
0.112
-0.061
-0.173
-0.061
0.016
0.058
-0.022
0.053
0.033
0.166
0.070
-0.018
-0.029
0.030
0.071
0.061
1.040
0.143
-1.481
-0.817
0.156
0.589
0.493
0.171
0.072
-0.047
-0.141
-0.144
-0.090
0.008
-0.014
0.078
0.141
0.105
0.184
0.121
0.029
0.009
0.037
0.040
0.018
-0.095
-0.031
0.010
0.066
0.037
0.001
0.060
-0.037
-0.007
0.032
0.036
0.113
0.002
-0.036
0.089
-0.016
-0.017
0.006
0.060
0.060
0.030
-0.031
-0.041
-0.010
0.151
0.022
0.029
0.012
-0.038
0.106
0.032
0.046
0.022
-0.011
0.076
-0.012
0.061
0.108
0.020
0.102
0.033
0.119
-0.259
-0.215
0.149
0.257
0.183
-0.075
-0.134
0.000
0.008
-0.001
0.036
0.058
0.075
-0.008
0.094
0.062
0.044
0.046
0.004
0.030
0.049
0.023
0.015
0.531
0.740
-0.923
-1.141
-0.138
0.488
0.604
0.245
0.034
0.006
-0.196
-0.173
-0.097
-0.064
0.055
0.106
0.108
0.161
0.163
0.031
0.014
0.078
0.037
0.042
0.042
-0.047
-0.066
0.015
0.058
-0.057
0.017
-0.049
0.025
0.031
0.106
0.044
0.047
0.503
0.343
-0.632
-0.603
-0.044
0.272
0.182
0.255
0.173
-0.011
-0.215
-0.046
-0.178
-0.100
0.057
0.192
0.168
0.048
-0.003
0.005
0.006
-0.002
0.081
-0.011
0.079
0.041
0.043
0.051
-0.015
-0.062
-0.033
-0.015
0.107
-0.065
-0.010
0.013
0.069
0.016
0.123
0.104
-0.017
-0.272
-0.051
0.217
0.282
0.073
-0.135
-0.018
-0.046
-0.006
-0.003
0.022
0.051
0.057
0.010
0.121
0.010
-0.048
0.001
0.024
0.796
0.388
-1.360
-0.844
0.119
0.642
0.579
0.226
-0.096
-0.085
-0.146
-0.146
-0.044
-0.073
0.083
0.124
0.121
0.159
0.043
0.039
0.114
0.056
0.024
-0.034
-0.091
0.036
0.069
0.042
0.000
0.024
0.038
0.029
-0.002
0.037
0.020
0.000
-0.052
0.099
0.065
0.027
0.009
0.033
-0.023
0.006
0.027
0.128
0.060
0.039
-0.063
0.049
0.067
0.054
-0.019
0.028
0.101
0.096
-0.004
-0.040
0.034
0.032
0.050
0.044
-0.016
0.125
-0.090
-0.239
-0.002
0.292
0.225
-0.009
0.018
-0.066
-0.014
-0.138
-0.002
0.089
0.245
0.486
0.492
-0.454
-0.688
0.431
0.796
-0.993
-1.013
0.295
0.629
0.583
0.138
-0.153
-0.245
-0.241
-0.080
0.029
-0.020
0.115
0.160
0.173
0.129
0.073
0.156
0.144
-0.035
-0.012
-0.048
0.072
-0.045
0.055
-0.022
-0.004
-0.035
0.003
0.066
0.049
0.040
0.089
-0.010
-0.051
0.023
0.019
0.032
0.033
0.033
0.002
0.051
-0.014
-0.002
0.020
0.035
0.009
0.137
0.038
-0.069
0.095
0.068
0.018
0.054
0.018
0.056
0.011
0.068
-0.019
-0.005
0.145
0.011
-0.060
-0.054
0.088
0.134
0.064
0.071
-0.007
0.071
0.034
0.029
0.051
0.028
-0.001
-0.015
0.003
0.040
0.110
0.059
-0.009
-0.278
-0.077
0.208
0.200
0.114
0.024
-0.073
-0.016
-0.043
0.018
0.066
0.173
0.742
0.506
-1.194
-1.000
0.054
0.584
0.568
0.208
-0.032
-0.107
-0.170
-0.073
-0.056
-0.002
0.036
0.148
0.147
0.119
0.147
0.035
0.062
0.047
-0.075
-0.092
-0.037
0.016
-0.023
0.033
0.049
-0.038
-0.021
-0.025
0.001
0.068
-0.080
0.001
0.174
0.143
0.084
-0.050
0.020
-0.034
-0.032
0.094
0.015
-0.004
0.049
0.037
0.068
-0.068
0.009
-0.017
-0.014
0.026
0.048
0.079
-0.038
-0.026
-0.022
0.020
0.046
0.070
0.055
0.539
0.274
-0.702
-0.410
0.095
0.166
0.196
0.245
0.205
-0.040
-0.141
-0.121
0.017
-0.084
0.046
-0.003
0.058
0.056
0.061
0.093
0.208
0.141
-0.212
-0.182
0.226
0.291
0.189
0.021
-0.102
-0.031
-0.059
-0.056
0.005
0.083
0.061
-0.046
0.910
0.320
-1.395
-1.004
0.229
0.670
0.612
0.206
0.029
-0.149
-0.145
-0.082
-0.048
0.104
0.082
0.083
0.080
0.147
0.144
0.094
-0.031
-0.014
-0.023
0.007
0.008
0.001
0.028
0.018
-0.040
0.023
0.011
0.081
-0.018
0.018
0.069
0.054
0.161
-0.022
-0.018
-0.106
0.011
0.054
0.032
0.054
0.063
-0.057
0.027
0.098
0.024
0.039
0.030
0.036
0.092
0.022
0.039
0.047
0.022
-0.019
0.077
0.071
-0.010
0.064
0.020
0.010
-0.033
-0.042
0.065
0.052
0.249
-0.152
-0.284
-0.011
0.148
0.214
0.080
-0.058
-0.066
0.005
0.108
0.080
0.024
0.051
0.007
0.018
-0.033
0.027
0.860
0.392
-1.294
-1.049
0.113
0.626
0.578
0.246
0.045
-0.137
-0.170
-0.141
-0.056
0.008
0.048
0.118
0.131
0.194
0.076
0.097
0.042
0.015
0.018
0.027
-0.049
-0.040
0.030
0.011
-0.028
0.045
0.128
0.069
-0.038
-0.007
0.030
0.063
0.079
0.115
0.048
-0.008
0.017
-0.019
-0.061
0.044
0.069
0.001
-0.033
0.047
0.074
0.003
0.043
-0.035
0.019
0.058
0.042
-0.060
0.081
0.064
-0.024
0.074
0.053
0.015
-0.016
0.076
0.051
0.039
0.055
-0.092
0.020
0.039
0.008
0.136
0.032
-0.029
0.036
0.098
0.161
-0.190
-0.061
0.185
0.199
0.167
-0.052
-0.054
0.030
-0.043
0.035
0.007
0.066
-0.040
0.057
0.139
0.015
-0.050
-0.076
0.066
0.033
0.024
0.073
0.046
0.079
0.008
0.280
0.950
-0.431
-1.368
-0.378
0.369
0.673
0.436
0.081
-0.179
-0.136
-0.074
-0.098
-0.098
-0.164
0.085
0.183
0.216
0.155
0.102
0.032
0.048
-0.011
0.013
0.039
0.439
0.396
-0.578
-0.644
-0.063
0.117
0.231
0.237
0.234
-0.032
-0.131
-0.165
-0.114
-0.039
0.045
0.021
0.153
0.051
0.118
0.105
0.061
0.050
-0.077
-0.000
0.122
-0.026
-0.032
-0.021
0.011
0.063
-0.102
0.005
0.066
0.054
-0.002
0.003
0.097
0.270
-0.204
-0.239
0.151
0.336
0.188
0.003
-0.102
-0.059
-0.005
0.015
0.054
0.096
0.042
-0.010
-0.100
-0.035
0.084
-0.010
0.023
0.076
0.066
0.019
-0.096
-0.026
0.074
0.036
0.081
0.094
0.081
0.411
0.880
-0.602
-1.448
-0.280
0.547
0.600
0.370
0.043
-0.115
-0.152
-0.077
-0.118
-0.043
-0.001
0.102
0.140
0.214
0.144
0.072
0.053
0.020
-0.020
0.084
0.055
0.068
-0.059
0.024
-0.017
0.002
0.117
0.029
-0.023
0.002
0.014
0.024
0.047
0.033
0.033
-0.057
0.023
0.071
0.121
0.000
0.009
0.033
0.005
0.003
0.044
-0.043
0.031
-0.120
0.010
0.235
0.186
0.010
0.057
-0.040
0.024
-0.012
-0.004
0.080
0.050
0.152
-0.043
-0.206
0.046
0.163
0.250
0.064
-0.109
-0.153
0.052
0.006
-0.040
0.049
0.083
0.056
0.073
-0.034
0.026
0.057
0.036
0.053
0.006
-0.013
0.001
0.008
0.105
1.083
0.584
-1.227
-1.459
-0.223
0.767
0.679
0.232
0.023
-0.058
-0.214
-0.221
-0.084
-0.003
0.125
0.059
0.114
0.190
0.185
0.064
0.098
0.151
0.074
-0.078
0.036
-0.050
-0.018
-0.007
-0.008
0.040
-0.033
0.000
0.010
-0.013
0.085
0.070
0.097
-0.030
-0.010
0.021
0.005
0.056
0.159
0.040
-0.005
0.024
0.087
-0.048
-0.051
-0.055
-0.025
-0.007
0.065
-0.006
0.048
0.019
0.034
-0.027
0.023
0.196
-0.210
-0.089
0.187
0.223
0.171
0.051
-0.091
-0.045
-0.058
-0.009
0.121
0.048
0.050
0.069
0.082
0.131
-0.125
-0.034
0.034
0.089
-0.005
-0.032
0.045
0.078
0.100
0.136
-0.058
0.009
0.012
0.057
-0.086
0.012
0.073
0.102
0.074
0.016
0.240
0.991
-0.413
-1.571
-0.357
0.353
0.745
0.391
0.113
-0.059
-0.195
-0.208
-0.009
-0.053
0.000
0.023
0.160
0.120
0.060
0.016
0.080
0.048
0.057
0.062
0.030
0.064
0.061
0.072
0.004
0.026
0.040
0.026
0.044
0.015
-0.077
0.030
0.047
0.104
0.023
0.051
-0.034
0.006
-0.036
0.024
0.088
0.071
0.045
0.100
0.037
0.115
-0.233
-0.123
0.216
0.270
0.196
0.043
-0.100
-0.169
0.009
0.004
0.081
0.066
0.086
-0.015
0.042
0.026
-0.005
-0.029
-0.047
0.069
0.082
0.018
0.070
0.032
0.000
0.063
0.012
0.085
0.001
0.016
-0.010
0.040
0.035
0.060
0.035
-0.037
0.049
0.175
0.005
0.052
0.040
0.611
0.245
-0.713
-0.524
0.118
1.122
0.461
-1.148
-0.774
0.000
0.408
0.583
0.214
-0.003
-0.162
-0.201
-0.138
0.006
0.043
0.088
0.180
0.207
0.105
0.106
0.040
0.030
0.013
0.010
0.026
0.045
-0.029
0.026
-0.073
-0.027
0.045
0.033
0.076
0.034
0.028
-0.034
-0.015
0.060
-0.024
0.112
0.014
-0.036
0.112
0.020
-0.212
0.052
0.137
0.322
0.053
0.013
-0.097
-0.088
0.030
0.010
0.062
0.035
0.083
0.058
0.045
-0.031
-0.019
0.055
0.046
0.051
0.036
-0.058
0.022
0.009
0.074
0.049
0.040
0.047
0.130
0.008
-0.019
0.026
-0.019
0.005
0.086
0.059
-0.007
0.009
0.034
0.031
0.114
0.051
-0.035
0.032
-0.026
-0.028
0.144
-0.006
0.020
-0.039
-0.006
0.116
0.029
-0.006
-0.015
0.062
0.096
0.074
0.031
0.047
0.006
-0.007
-0.015
-0.054
0.122
0.058
0.023
-0.009
0.064
0.734
0.650
-0.996
-0.908
0.009
0.476
0.590
0.198
-0.065
-0.146
-0.064
-0.089
0.005
-0.028
-0.037
0.083
0.114
0.122
0.013
0.073
0.079
0.037
0.073
0.016
-0.197
-0.195
0.148
0.316
0.288
-0.021
-0.166
-0.113
-0.066
0.100
0.037
0.066
0.038
0.045
0.133
0.072
0.068
0.008
-0.073
0.026
0.056
-0.024
0.051
-0.022
0.019
0.052
0.051
0.118
0.056
0.065
-0.000
0.011
0.016
0.006
0.054
0.078
0.027
0.024
0.003
0.014
-0.020
0.053
0.009
0.044
0.018
0.130
0.034
0.015
0.033
-0.107
0.060
0.046
-0.003
-0.025
-0.050
0.067
0.041
0.066
-0.021
0.008
0.057
-0.018
0.048
0.030
0.079
0.028
0.009
0.018
0.066
0.045
0.018
0.640
0.627
-1.205
-1.219
0.119
0.552
0.664
0.315
-0.059
-0.121
-0.144
-0.113
-0.119
-0.035
0.121
0.119
0.188
0.111
0.159
0.052
0.090
0.046
0.077
-0.136
-0.113
0.116
0.290
0.091
-0.066
-0.158
-0.092
-0.009
0.037
0.124
0.031
0.097
0.081
-0.020
-0.011
-0.082
0.072
0.004
-0.012
0.017
0.032
-0.019
0.091
0.084
0.032
0.039
-0.023
0.049
0.011
0.036
0.050
-0.012
0.072
0.007
0.002
0.024
0.068
0.029
0.058
0.045
0.100
-0.011
-0.011
0.026
-0.036
0.039
0.124
0.098
0.016
-0.068
-0.031
0.097
0.059
0.083
0.036
0.102
0.024
0.099
-0.012
-0.044
0.088
-0.071
-0.015
0.072
0.088
-0.031
-0.060
0.006
0.048
0.078
0.089
-0.010
-0.019
-0.001
-0.014
0.017
0.044
0.117
0.941
0.388
-1.342
-0.961
0.096
0.637
0.521
0.190
-0.044
-0.010
-0.114
-0.376
-0.197
0.203
0.233
0.112
0.124
-0.010
0.072
0.080
0.088
0.045
0.032
-0.037
0.053
0.001
0.100
-0.047
-0.088
-0.022
0.056
-0.013
0.049
-0.023
0.132
-0.024
0.078
0.048
0.031
0.153
0.076
0.007
0.005
0.017
0.047
-0.031
-0.055
0.011
0.094
-0.006
0.020
0.024
-0.010
0.040
0.031
0.107
0.034
0.015
-0.038
0.059
0.080
0.022
0.032
-0.002
0.027
0.068
0.027
0.033
0.092
-0.076
0.084
0.064
-0.024
0.076
-0.014
0.026
-0.051
0.001
0.020
0.099
0.015
0.023
0.059
0.077
-0.010
0.038
0.015
-0.015
0.066
0.029
0.037
0.025
0.029
0.003
0.063
0.114
0.086
0.132
0.940
-0.168
-1.222
-0.606
0.064
0.682
0.664
0.269
-0.148
-0.242
-0.282
-0.137
-0.020
0.608
0.345
-0.567
-0.474
0.047
0.212
0.345
0.306
0.196
0.051
-0.135
-0.188
-0.059
0.082
-0.020
0.017
0.078
0.078
0.054
0.061
0.030
0.105
0.042
0.098
-0.058
0.009
-0.019
-0.065
0.015
-0.050
0.047
0.111
0.036
0.079
0.021
-0.013
0.025
0.035
-0.028
-0.050
0.023
0.127
0.006
0.008
0.040
0.144
0.096
-0.024
-0.043
0.008
0.044
0.031
0.058
0.098
-0.017
0.017
0.016
0.048
0.035
0.015
0.043
0.032
0.026
-0.045
0.157
0.007
-0.174
-0.063
0.231
0.257
0.129
-0.013
-0.145
-0.010
-0.046
0.091
0.066
0.058
0.022
0.199
1.066
-0.157
-1.593
-0.572
0.273
0.631
0.516
0.165
-0.029
-0.093
-0.201
-0.166
-0.005
0.028
0.127
0.087
0.137
0.155
-0.003
0.083
0.028
0.056
0.079
-0.074
0.022
0.011
0.094
0.044
-0.046
0.041
0.073
0.116
0.041
0.037
0.023
-0.013
0.045
0.026
0.004
0.018
0.049
-0.002
0.084
0.025
0.067
-0.021
-0.016
0.013
0.025
-0.029
0.039
0.034
0.096
0.085
-0.022
-0.002
0.034
0.062
0.137
0.024
0.050
0.037
-0.012
-0.043
-0.015
0.014
0.111
0.003
0.081
0.013
0.031
-0.042
-0.020
0.076
0.020
0.089
0.001
0.014
0.065
-0.042
0.007
0.064
0.120
-0.216
-0.143
0.166
0.277
0.197
-0.021
-0.062
-0.088
0.085
0.017
0.091
0.036
0.053
-0.043
0.002
0.008
0.107
-0.003
0.090
0.922
0.030
-1.376
-0.710
0.139
0.593
0.555
0.258
-0.027
-0.123
-0.116
-0.079
-0.114
-0.054
0.139
0.126
0.148
0.118
0.099
0.122
0.113
-0.069
0.050
-0.034
-0.080
0.052
0.029
0.040
-0.040
0.076
0.022
-0.001
0.079
-0.035
0.012
0.060
0.094
0.025
0.046
0.005
-0.020
0.004
-0.013
-0.002
0.105
0.040
0.157
0.105
0.006
0.039
0.065
-0.004
0.014
-0.017
-0.032
-0.006
0.126
0.109
0.094
-0.018
-0.035
0.002
0.061
0.057
0.032
0.071
0.071
0.203
-0.088
-0.244
0.058
0.208
0.133
0.033
-0.089
-0.047
0.032
0.042
0.072
0.036
0.149
0.037
0.026
0.027
-0.013
0.059
0.030
-0.055
0.029
0.067
0.017
-0.007
0.164
0.623
0.230
-0.738
-0.607
0.897
0.566
-1.143
-0.684
0.323
0.616
0.461
0.033
-0.158
-0.198
-0.160
-0.090
0.025
0.103
0.089
0.147
0.193
0.080
0.093
0.094
0.076
-0.033
0.017
0.020
-0.077
0.004
-0.052
0.049
0.103
-0.002
-0.022
0.043
0.042
0.072
-0.045
0.006
0.001
0.056
0.051
-0.010
0.092
-0.012
0.008
-0.028
0.012
0.061
0.046
0.120
0.004
0.041
0.011
0.010
-0.015
0.004
0.087
0.131
0.086
-0.056
-0.017
0.082
0.044
-0.097
0.024
0.065
0.059
0.070
0.149
-0.302
-0.023
0.229
0.260
0.153
-0.147
-0.041
-0.027
-0.082
0.119
0.033
0.092
0.011
0.030
0.104
0.066
-0.031
0.019
0.084
0.067
0.005
0.019
-0.031
0.022
0.044
0.033
0.056
-0.006
0.011
0.032
0.036
0.092
-0.012
0.041
0.052
0.086
0.030
0.060
-0.109
0.062
0.315
1.159
-0.209
-1.610
-0.527
0.278
0.624
0.487
0.167
-0.093
-0.249
-0.126
-0.079
0.005
0.084
0.109
0.044
0.080
0.201
-0.008
0.145
0.117
0.076
-0.054
-0.066
-0.102
-0.041
0.046
0.154
0.024
-0.018
-0.062
-0.044
0.112
0.066
-0.276
-0.126
0.190
0.335
0.182
0.053
-0.100
-0.077
-0.035
0.076
0.010
0.030
0.042
0.093
0.067
0.007
0.001
0.024
0.046
0.089
-0.043
-0.007
-0.012
-0.039
0.053
0.057
0.073
-0.037
-0.005
0.020
-0.006
0.091
-0.003
-0.027
0.007
0.032
0.110
-0.018
0.064
0.041
0.128
0.037
-0.109
-0.010
0.023
0.018
0.163
0.106
0.003
0.108
0.372
0.423
-0.595
-0.649
-0.090
0.279
0.155
0.171
0.212
0.112
-0.103
-0.125
-0.067
-0.064
0.068
0.068
0.099
0.163
0.109
0.069
0.104
0.052
-0.013
0.005
-0.002
-0.041
-0.032
0.048
-0.029
0.054
0.011
0.105
1.037
0.084
-1.513
-0.662
0.303
0.639
0.468
0.233
-0.123
-0.155
-0.225
-0.085
-0.044
0.013
0.130
0.110
0.020
0.010
0.162
0.162
0.117
0.088
-0.005
-0.090
0.033
0.141
-0.204
-0.136
0.135
0.156
0.107
-0.002
-0.020
0.040
-0.100
0.040
-0.048
0.099
0.154
0.053
0.040
0.028
-0.107
0.018
-0.045
0.029
0.024
0.017
0.051
0.011
0.039
-0.015
-0.042
-0.031
0.045
-0.001
0.029
0.061
0.124
0.147
0.000
-0.043
-0.054
0.009
0.076
0.119
-0.014
-0.070
0.099
0.133
0.180
1.002
-0.475
-1.425
-0.302
0.278
0.688
0.467
0.147
-0.043
-0.163
-0.100
-0.058
-0.060
-0.072
0.021
0.155
0.146
0.068
0.194
0.026
0.134
0.084
0.025
0.050
0.013
0.000
-0.071
0.014
0.041
0.022
0.002
0.100
0.018
0.028
-0.010
0.012
0.029
-0.004
-0.001
0.046
0.020
0.044
0.005
0.072
0.106
0.124
-0.039
-0.002
-0.005
0.000
-0.023
0.160
0.090
-0.242
0.005
0.232
0.253
0.082
-0.022
0.008
-0.097
-0.006
0.026
0.145
0.099
0.084
0.102
0.028
-0.075
0.052
-0.089
0.052
0.038
0.113
-0.012
-0.049
0.076
0.096
0.012
-0.024
0.015
0.115
-0.003
0.009
0.108
-0.010
0.002
0.109
0.080
-0.001
-0.038
0.057
-0.046
0.036
-0.038
0.003
0.010
0.304
0.576
-0.253
-0.845
-0.166
1.203
0.639
-1.162
-0.746
0.132
0.487
0.492
0.118
-0.088
-0.097
-0.159
-0.187
0.006
0.141
0.074
0.138
0.151
0.139
0.113
0.136
0.024
-0.043
0.006
0.041
0.035
-0.011
-0.027
-0.030
0.068
0.025
0.068
0.003
-0.032
-0.048
-0.006
0.068
0.085
0.067
0.076
-0.007
0.048
0.034
0.014
0.044
-0.007
-0.005
0.179
0.160
-0.182
-0.192
0.166
0.219
0.104
0.008
-0.063
-0.033
-0.028
0.044
0.065
0.034
0.058
0.056
0.020
0.097
0.046
-0.001
-0.025
-0.028
-0.014
0.141
-0.009
0.048
-0.013
0.053
0.056
-0.026
0.046
-0.049
0.056
0.183
0.023
0.079
0.080
0.063
-0.028
-0.029
-0.033
0.016
0.017
0.055
0.058
0.091
0.913
0.171
-1.370
-0.833
0.185
0.737
0.580
0.161
-0.111
-0.106
-0.138
-0.123
-0.054
-0.033
0.066
0.100
0.111
0.186
0.113
0.153
-0.037
-0.168
0.002
0.200
0.179
0.035
-0.026
-0.002
-0.039
-0.045
-0.014
0.037
0.052
-0.009
0.008
0.024
0.020
0.181
-0.033
-0.020
-0.029
-0.011
0.084
0.030
0.044
0.056
0.044
0.045
-0.080
0.014
0.091
0.059
0.042
0.064
0.033
0.036
-0.009
-0.007
0.016
-0.033
-0.016
0.106
0.178
0.087
-0.021
-0.081
0.078
0.110
0.049
0.017
0.080
0.050
0.118
-0.008
0.014
0.079
-0.013
-0.028
0.001
0.012
-0.003
0.025
0.026
0.037
0.060
0.050
0.099
0.023
0.105
0.602
0.042
-0.838
-0.365
0.159
0.256
0.352
1.161
-0.173
-1.511
-0.643
0.258
0.675
0.439
0.032
-0.010
0.041
-0.143
-0.080
-0.041
0.020
0.129
0.196
0.098
0.130
0.205
-0.174
-0.083
0.098
0.228
0.144
-0.024
-0.113
-0.053
-0.052
0.004
0.035
0.065
0.076
0.046
-0.045
0.002
-0.002
0.015
0.041
-0.013
0.054
-0.071
0.022
0.004
0.041
0.066
0.016
0.049
0.051
0.016
0.102
-0.007
-0.029
0.072
0.105
0.034
0.050
0.056
-0.019
0.028
-0.001
-0.017
0.003
0.085
0.091
0.033
0.030
0.001
0.041
-0.018
0.045
-0.030
-0.034
0.094
0.060
0.030
0.134
-0.068
-0.051
0.034
0.024
0.019
0.095
0.033
0.059
0.039
0.057
-0.028
0.013
0.030
0.003
0.064
-0.064
0.085
-0.009
0.059
0.122
0.013
0.102
0.926
0.309
-1.391
-1.041
0.141
0.583
0.542
0.134
0.030
0.001
-0.056
-0.307
-0.130
0.070
0.207
0.107
0.087
0.087
-0.003
0.064
0.101
0.189
0.023
0.004
-0.045
-0.019
-0.025
-0.005
0.019
0.016
-0.028
0.075
-0.046
0.032
-0.049
0.061
0.051
0.069
0.032
0.052
0.082
0.096
-0.049
-0.046
-0.009
0.076
0.095
-0.009
-0.043
0.053
0.092
0.099
-0.038
0.015
0.017
0.067
0.038
0.126
0.005
0.087
-0.051
0.043
0.070
0.046
0.026
-0.031
-0.000
0.121
0.117
-0.069
-0.065
-0.036
0.003
-0.072
0.019
0.048
0.113
-0.008
0.081
0.014
0.026
0.116
0.075
0.016
0.018
0.100
0.094
-0.035
0.068
0.153
0.090
-0.063
0.004
-0.034
0.013
0.101
1.023
0.018
-1.377
-0.637
0.145
0.726
0.470
0.121
-0.036
-0.081
-0.062
-0.087
-0.039
0.058
-0.215
-0.038
0.215
0.259
0.178
-0.032
-0.024
-0.031
0.029
0.018
0.025
0.008
0.003
0.072
0.067
-0.044
0.002
-0.049
-0.032
0.133
0.019
0.010
0.040
-0.033
-0.041
0.086
-0.012
0.018
-0.020
0.038
-0.029
-0.017
0.060
0.057
0.125
0.032
0.063
-0.029
-0.008
0.031
0.010
0.033
0.073
0.002
0.050
0.055
0.085
-0.025
0.019
-0.008
-0.022
0.028
0.045
0.012
-0.013
0.016
0.139
0.015
-0.018
0.063
0.049
-0.048
0.024
0.027
0.058
0.085
0.096
-0.033
0.030
0.022
0.039
-0.043
0.054
0.080
0.076
-0.005
-0.022
0.012
0.099
0.037
0.063
0.081
0.032
0.083
0.055
-0.285
-0.134
0.153
0.876
0.883
-1.083
-1.322
-0.124
0.510
0.655
0.317
-0.019
-0.208
-0.135
-0.067
-0.099
-0.010
-0.004
0.134
0.086
0.059
0.149
0.106
0.046
0.155
0.021
0.101
0.082
0.033
-0.074
-0.038
0.122
-0.019
-0.069
0.070
0.029
0.022
0.076
0.087
0.044
-0.071
0.069
0.004
-0.017
0.011
0.016
0.037
-0.022
0.047
0.085
0.005
0.030
0.010
0.013
0.067
0.081
0.015
-0.022
0.008
0.015
0.118
0.088
0.029
-0.003
0.026
-0.002
-0.012
0.085
0.009
0.055
0.051
0.009
-0.019
0.060
0.053
0.034
0.025
0.058
0.098
0.042
-0.042
-0.054
0.017
0.104
0.116
0.146
0.054
0.054
0.040
0.032
-0.043
0.017
0.100
0.131
-0.164
-0.155
0.057
1.049
0.814
-1.358
-1.068
-0.080
0.508
0.684
0.219
0.004
-0.172
-0.110
0.020
-0.045
-0.062
-0.019
0.136
0.096
0.154
0.063
0.043
0.102
0.018
-0.012
0.019
0.017
0.011
0.055
-0.004
0.052
0.130
-0.028
0.005
0.061
0.057
0.056
0.115
0.033
-0.059
-0.057
-0.009
0.070
0.025
0.021
0.113
0.013
0.008
-0.053
0.035
-0.006
-0.011
0.064
-0.088
0.068
0.130
0.080
-0.048
0.009
0.018
0.040
-0.018
0.098
0.038
0.235
-0.207
-0.111
0.141
0.163
0.144
-0.029
-0.040
0.090
-0.034
-0.038
0.006
0.077
0.098
0.005
0.079
0.030
0.051
0.065
0.055
0.025
0.100
-0.085
0.029
0.040
0.017
0.054
0.002
0.065
0.074
0.004
0.069
-0.018
0.004
0.046
0.046
0.075
0.079
-0.047
0.035
0.011
0.057
0.030
0.012
0.030
0.032
0.067
-0.052
0.022
-0.021
0.063
0.120
0.030
0.142
1.116
-0.113
-1.481
-0.670
0.382
0.672
0.540
0.058
-0.106
-0.126
-0.068
-0.085
-0.058
-0.050
0.034
0.158
0.132
0.106
0.130
0.002
0.046
0.002
0.004
-0.028
-0.006
0.131
0.079
0.052
-0.045
-0.055
0.067
-0.029
-0.006
0.023
0.108
0.123
0.067
0.068
0.163
0.581
-0.051
-0.802
-0.435
0.168
0.192
0.251
0.190
0.145
0.091
-0.321
-0.311
0.016
0.256
0.073
-0.017
0.063
-0.021
-0.002
-0.003
0.057
0.114
0.125
0.042
0.048
0.036
0.041
-0.053
-0.065
-0.019
0.017
0.024
0.049
0.045
0.056
-0.024
-0.008
0.195
-0.034
-0.019
-0.017
0.071
-0.004
0.042
0.095
0.094
-0.011
0.107
0.050
0.016
0.251
1.028
-0.532
-1.475
-0.363
0.440
0.757
0.447
0.039
-0.111
-0.226
-0.187
-0.057
-0.051
0.011
0.015
0.125
0.215
0.025
0.087
0.099
0.008
0.103
0.096
-0.019
-0.028
0.062
-0.040
-0.041
0.067
0.035
0.013
0.054
-0.019
-0.000
0.096
0.048
0.048
-0.037
0.026
0.076
-0.012
-0.056
0.054
0.016
0.089
0.011
0.066
0.031
-0.037
-0.019
-0.001
0.101
0.083
-0.019
0.101
0.032
0.057
-0.034
0.001
0.079
-0.003
0.010
0.014
0.059
0.045
-0.009
0.076
0.094
-0.197
-0.188
0.084
0.278
0.200
0.085
0.072
-0.098
-0.042
0.094
-0.005
0.062
0.035
0.065
0.023
0.020
-0.021
-0.030
0.003
-0.078
-0.001
-0.042
0.040
0.149
0.048
0.049
-0.048
0.015
0.044
0.212
1.068
-0.097
-1.434
-0.639
0.415
0.744
0.475
0.099
-0.085
-0.169
-0.188
-0.120
-0.087
-0.018
0.052
0.137
0.156
0.138
0.141
0.102
0.025
0.034
-0.042
-0.027
0.052
0.018
-0.004
0.078
-0.007
0.066
0.012
-0.018
0.020
-0.012
0.062
-0.023
0.071
0.100
0.050
0.024
0.061
-0.027
0.072
-0.003
-0.021
0.041
0.155
0.118
-0.020
-0.009
-0.011
0.029
0.003
-0.044
0.127
0.171
-0.282
-0.015
0.163
0.256
0.136
-0.032
-0.114
-0.109
0.024
0.062
0.107
0.113
0.094
0.056
0.106
0.076
-0.022
0.035
0.002
0.036
-0.037
0.007
-0.005
-0.065
0.065
0.046
-0.013
0.052
0.027
0.004
0.004
0.083
0.052
0.056
0.121
-0.021
0.022
0.137
-0.005
0.000
-0.051
0.086
0.032
0.105
-0.001
0.003
0.028
0.009
-0.034
0.070
0.032
0.040
-0.026
-0.013
-0.001
0.251
1.125
-0.330
-1.488
-0.337
0.453
0.629
0.467
0.078
-0.132
-0.110
-0.121
-0.110
-0.095
-0.092
0.087
0.180
0.134
0.065
0.048
0.089
-0.072
0.011
0.080
0.124
0.071
0.001
-0.048
0.056
-0.012
0.008
0.021
0.015
-0.005
0.055
0.168
-0.017
0.033
0.005
0.025
-0.057
0.048
0.090
0.060
0.023
0.028
0.036
-0.054
0.035
0.207
-0.149
-0.170
0.138
0.307
0.256
-0.017
-0.164
-0.088
-0.000
0.025
0.020
0.042
-0.010
0.057
0.063
0.008
0.022
-0.009
0.087
0.061
0.036
0.012
-0.068
-0.116
0.016
0.210
0.078
0.126
0.057
0.041
-0.018
-0.034
0.642
0.663
-0.805
-0.565
-0.308
-0.291
0.510
0.558
0.027
0.008
0.008
-0.019
-0.084
-0.161
-0.076
-0.010
0.089
0.163
0.128
0.136
0.160
0.114
0.087
0.096
0.040
-0.020
0.068
-0.048
-0.045
0.038
-0.029
0.018
0.059
0.013
0.011
-0.094
0.024
0.047
0.030
0.143
0.002
0.020
0.007
-0.119
0.048
0.044
0.027
0.004
0.004
0.175
0.123
-0.027
0.103
-0.043
-0.045
0.092
0.092
0.052
0.064
0.015
-0.012
0.007
0.097
0.120
-0.195
-0.076
0.135
0.238
0.085
-0.068
-0.046
-0.050
0.004
0.063
0.034
0.044
-0.042
0.016
0.070
0.140
0.030
-0.060
-0.009
0.141
0.092
0.081
0.034
0.032
0.039
0.054
-0.029
0.030
0.039
0.001
0.078
1.108
-0.083
-1.525
-0.644
0.337
0.647
0.431
0.106
-0.108
-0.131
-0.165
-0.105
0.014
0.028
0.081
0.212
0.130
0.063
0.040
0.029
0.016
0.034
0.015
0.037
-0.006
0.027
0.013
0.018
-0.026
-0.000
0.054
0.070
0.046
0.019
0.027
0.067
0.055
0.013
0.001
0.026
0.074
0.053
-0.087
0.021
-0.015
0.047
-0.014
0.027
0.060
-0.030
0.031
0.028
-0.001
0.148
0.005
0.033
0.088
0.021
0.038
0.030
0.074
0.011
0.105
-0.164
-0.105
0.042
0.274
0.191
-0.045
-0.116
-0.055
0.036
0.044
0.065
0.141
0.156
0.043
0.029
0.027
-0.004
-0.100
-0.035
0.101
0.068
0.025
-0.018
-0.069
0.074
0.052
0.001
-0.065
0.086
0.077
0.116
-0.009
0.101
0.580
-0.066
-0.704
-0.305
0.865
0.921
-1.019
-0.952
0.090
0.419
0.501
0.115
-0.114
0.041
-0.094
-0.031
-0.045
-0.071
-0.028
0.097
0.169
0.211
0.191
0.128
0.100
0.088
-0.067
-0.148
-0.040
0.037
0.026
-0.030
-0.093
0.084
-0.013
-0.001
-0.015
0.074
0.085
0.014
-0.007
0.008
-0.027
0.126
0.022
0.003
0.112
0.027
0.006
-0.031
-0.107
0.134
0.050
0.020
0.062
-0.005
0.074
-0.021
-0.014
0.064
-0.025
0.004
0.046
0.071
0.170
-0.083
-0.205
0.058
0.237
0.224
0.021
-0.149
-0.014
-0.012
0.037
0.046
0.037
-0.036
0.039
0.041
0.061
0.087
0.070
-0.036
0.053
0.044
-0.038
0.058
0.113
-0.042
-0.043
0.086
0.011
0.074
0.061
0.080
0.045
-0.039
0.045
-0.004
0.049
0.070
0.053
0.855
0.265
-1.307
-0.835
0.130
0.580
0.642
0.172
-0.123
-0.087
-0.130
0.005
-0.042
-0.095
-0.001
0.078
0.174
0.087
0.113
0.122
0.045
0.019
-0.010
0.103
0.111
0.089
-0.013
-0.010
-0.009
-0.089
-0.041
0.020
0.077
0.061
0.010
0.066
0.032
-0.008
-0.028
0.122
0.080
0.003
0.014
-0.058
0.085
0.098
0.065
0.001
0.069
0.182
-0.093
-0.240
-0.014
0.178
0.233
-0.021
-0.081
0.078
0.057
-0.054
-0.028
0.115
0.043
0.009
-0.009
0.100
-0.002
0.044
0.061
0.071
0.093
0.021
0.039
-0.051
-0.004
0.131
0.023
0.025
0.053
0.113
-0.005
-0.034
0.047
0.035
0.028
0.003
0.079
0.470
0.484
-0.537
-0.634
-0.062
0.204
0.175
0.268
0.255
0.026
-0.152
-0.069
0.488
0.805
-0.971
-1.348
-0.054
0.609
0.740
0.477
0.122
-0.080
-0.239
-0.164
-0.095
0.050
0.024
0.089
0.090
0.170
0.112
0.096
0.118
-0.001
-0.010
-0.002
0.002
-0.036
0.016
0.019
0.018
0.087
0.019
0.011
-0.012
-0.028
0.050
0.034
0.051
0.020
0.038
0.051
0.042
0.058
0.052
-0.021
0.057
-0.063
0.004
0.103
0.134
0.069
0.016
-0.021
-0.129
-0.042
0.015
0.031
0.100
0.140
0.029
0.023
0.110
0.026
0.025
0.125
-0.227
-0.119
0.089
0.220
0.159
0.073
-0.112
-0.082
-0.010
0.117
0.203
0.036
0.049
-0.033
0.020
0.009
0.064
0.041
-0.010
0.123
0.049
0.035
-0.024
-0.071
-0.026
0.020
0.032
0.021
0.079
0.042
0.034
0.043
0.285
1.023
-0.337
-1.457
-0.483
0.464
0.635
0.438
0.085
-0.053
-0.178
-0.146
-0.077
-0.080
0.004
0.108
0.147
0.142
0.107
0.064
0.145
0.074
0.036
0.066
0.003
-0.061
0.004
0.045
-0.009
0.019
-0.012
0.088
-0.041
0.009
0.053
0.017
0.037
0.027
0.040
0.043
0.054
0.027
0.029
0.168
-0.011
-0.002
0.016
-0.031
-0.072
0.065
0.011
0.122
0.133
-0.022
0.002
0.056
0.019
-0.033
0.027
0.005
0.007
0.105
0.030
0.077
0.055
0.008
0.020
0.039
-0.001
-0.217
-0.148
0.212
0.258
0.154
0.003
-0.111
-0.043
-0.015
0.032
0.050
0.102
0.024
-0.040
0.047
0.153
0.092
0.058
0.029
-0.017
-0.068
0.037
0.059
-0.062
0.031
0.081
0.047
0.021
-0.017
0.056
0.089
0.108
0.613
0.824
-1.008
-1.270
-0.101
0.534
0.683
0.357
0.038
-0.219
0.146
0.321
-0.462
-0.884
-0.094
0.395
0.302
0.260
0.260
0.046
-0.013
-0.009
-0.063
0.034
0.034
0.070
-0.025
0.074
-0.041
0.117
0.051
0.024
0.040
0.061
0.004
-0.092
0.115
0.090
-0.030
-0.025
0.026
0.005
0.002
0.055
0.045
-0.021
0.023
0.034
0.093
-0.013
-0.007
0.061
-0.003
0.038
0.081
-0.017
0.027
0.099
-0.144
-0.147
0.187
0.244
0.171
-0.035
-0.049
-0.063
0.033
-0.012
0.010
0.037
0.059
0.047
-0.000
-0.002
0.016
0.067
0.010
0.027
-0.017
-0.009
-0.099
0.117
0.032
0.043
0.049
0.020
0.105
0.041
0.061
0.090
-0.028
-0.027
0.072
0.228
1.078
-0.456
-1.525
-0.391
0.412
0.711
0.415
-0.006
-0.236
-0.136
-0.087
0.018
0.003
0.013
0.036
0.156
0.047
0.117
0.117
0.050
0.164
0.027
0.022
-0.040
-0.075
0.076
-0.042
0.032
-0.034
-0.003
0.058
-0.043
-0.037
0.028
0.031
0.010
0.135
0.024
0.047
0.039
0.033
0.036
-0.040
0.089
0.034
0.052
0.002
0.054
0.040
0.080
0.031
0.023
0.010
0.028
-0.004
0.006
0.065
-0.028
0.130
0.026
0.012
-0.066
0.011
0.022
0.034
0.037
0.044
-0.054
0.058
0.052
0.009
0.013
0.048
0.092
0.135
0.124
0.019
-0.248
-0.091
0.137
0.248
0.048
-0.018
-0.013
-0.049
-0.063
0.170
1.054
0.013
-1.495
-0.670
0.400
0.726
1.038
0.217
-0.866
-0.657
-0.035
0.115
0.079
0.092
0.171
0.149
0.093
0.023
-0.049
0.020
0.058
0.062
0.073
0.127
0.069
0.024
0.091
-0.052
0.029
0.086
-0.065
-0.035
-0.009
-0.018
0.142
-0.000
-0.018
0.085
0.034
0.009
-0.016
0.073
0.019
0.067
0.081
0.026
0.082
-0.065
-0.130
0.113
0.078
0.087
-0.011
-0.089
-0.095
0.031
0.029
0.162
0.039
0.031
0.032
0.074
0.045
-0.040
-0.046
-0.009
0.016
0.212
0.060
0.039
-0.028
-0.009
-0.003
-0.001
-0.018
0.084
0.029
0.078
0.050
0.123
0.072
-0.298
-0.045
0.170
0.240
0.134
-0.002
-0.101
-0.095
0.001
0.116
0.003
0.407
1.046
-0.717
-1.555
-0.281
0.464
0.717
0.399
0.075
-0.104
-0.147
-0.187
-0.190
-0.060
0.033
0.114
0.188
0.163
0.154
0.133
0.040
-0.110
0.022
0.024
0.003
-0.084
0.006
0.008
-0.032
0.070
0.008
-0.032
0.063
-0.038
0.034
-0.010
0.104
-0.040
0.040
0.158
0.110
0.063
-0.041
-0.030
-0.061
-0.073
-0.054
0.012
0.070
0.031
-0.016
0.037
0.096
0.072
0.093
-0.018
-0.035
0.023
0.134
0.034
-0.073
-0.032
0.028
0.070
0.094
0.094
0.012
-0.090
0.021
0.042
0.068
0.049
0.342
0.575
-0.383
-0.723
-0.176
0.254
0.176
0.203
0.132
0.098
0.005
-0.033
-0.092
-0.102
0.023
0.027
-0.224
0.016
0.322
0.341
0.223
0.232
0.929
-0.621
-1.567
-0.419
0.425
0.728
0.464
0.117
-0.128
-0.193
-0.045
-0.119
-0.075
-0.090
0.051
0.169
0.167
0.158
0.191
0.068
0.019
-0.009
0.032
-0.039
0.005
-0.052
0.018
0.027
0.023
0.013
0.003
0.097
0.014
0.005
0.044
0.069
0.082
-0.028
0.034
0.074
0.027
-0.040
0.036
0.029
0.005
-0.017
0.097
-0.066
0.058
-0.059
0.010
0.075
0.006
-0.113
0.043
0.189
0.152
-0.002
-0.028
-0.013
0.061
-0.060
0.048
0.026
0.069
0.118
0.108
0.066
-0.081
0.075
0.039
-0.042
-0.000
0.073
0.044
0.044
0.048
-0.021
-0.052
-0.038
0.049
0.160
0.196
-0.178
-0.114
0.045
0.177
0.242
0.037
0.001
-0.086
0.027
-0.016
0.040
0.044
0.063
-0.000
0.080
-0.019
0.056
-0.027
0.041
0.047
0.070
0.007
0.037
0.151
1.113
0.151
-1.512
-0.781
0.211
0.665
0.621
0.170
-0.038
-0.139
-0.143
-0.253
-0.047
0.032
0.100
0.145
0.196
0.545
0.427
-0.609
-0.593
0.043
0.255
0.142
0.227
0.225
0.046
-0.106
-0.113
-0.181
-0.025
0.016
0.046
0.085
0.077
0.179
0.153
0.085
0.116
-0.074
0.003
0.020
0.057
0.095
0.028
-0.058
-0.083
0.024
0.101
0.059
-0.143
0.001
0.183
0.251
0.110
-0.082
-0.069
-0.014
-0.090
0.032
0.061
0.103
0.067
-0.150
-0.053
0.174
0.253
0.058
-0.014
-0.127
0.005
-0.034
0.079
0.043
0.072
0.098
0.046
0.062
0.070
-0.085
0.065
0.095
0.097
-0.019
-0.029
0.031
0.112
0.046
-0.027
-0.067
0.125
0.011
0.248
1.115
-0.313
-1.446
-0.525
0.328
0.750
0.483
0.067
-0.014
-0.220
-0.147
-0.171
-0.136
-0.011
0.141
0.104
0.143
0.067
0.040
0.004
0.079
0.048
0.085
0.033
0.023
-0.051
0.010
-0.015
0.038
0.028
-0.010
-0.002
0.030
0.118
-0.037
-0.010
0.048
0.339
0.578
-0.308
-0.815
-0.126
0.235
0.134
0.140
0.192
0.129
-0.044
-0.044
0.010
0.071
0.059
-0.026
0.005
-0.018
0.247
-0.156
-0.172
0.039
0.264
0.203
-0.082
-0.086
-0.075
-0.090
0.002
0.043
0.037
0.031
0.105
0.066
0.052
0.075
0.017
0.001
0.041
0.033
0.019
0.057
0.011
0.030
-0.013
0.067
-0.055
-0.026
-0.051
0.085
-0.038
0.120
0.509
0.933
-0.859
-1.417
-0.157
0.581
0.688
0.368
0.038
-0.061
-0.165
-0.171
-0.144
-0.032
0.043
0.201
0.045
0.117
0.132
0.027
0.108
0.031
0.026
0.011
0.052
0.052
-0.041
-0.036
0.007
0.032
0.028
-0.012
0.034
0.050
0.097
0.001
0.050
0.022
-0.017
0.094
-0.001
-0.039
0.040
0.065
0.024
-0.003
-0.023
-0.003
0.318
0.572
-0.236
-0.799
-0.161
0.196
0.192
0.249
0.267
0.055
-0.115
-0.104
-0.069
0.126
-0.143
-0.197
0.055
0.335
0.203
0.191
-0.058
-0.039
-0.092
-0.005
0.061
0.118
0.070
0.085
0.008
0.041
-0.012
-0.017
-0.008
0.098
0.056
0.069
-0.017
0.036
0.039
0.015
0.062
-0.002
-0.045
-0.018
-0.013
0.017
-0.035
0.014
0.072
0.348
1.100
-0.379
-1.574
-0.412
0.375
0.735
0.435
0.044
-0.114
-0.178
-0.029
-0.031
-0.138
-0.036
-0.031
0.091
0.180
0.173
0.085
-0.051
0.078
0.063
-0.050
0.041
0.026
-0.038
0.062
-0.035
-0.043
0.035
0.028
0.086
0.086
0.048
-0.004
0.012
0.018
0.031
0.102
0.036
-0.127
0.086
0.036
0.044
-0.040
-0.026
0.058
-0.064
0.064
0.089
-0.004
0.095
0.047
0.004
-0.001
0.015
0.078
0.054
0.154
-0.096
-0.239
0.027
0.179
0.213
0.032
-0.067
-0.062
-0.025
0.026
0.040
-0.023
0.077
-0.040
0.085
0.104
0.042
0.058
-0.055
0.055
-0.045
-0.019
-0.021
0.069
0.037
0.063
-0.006
-0.042
0.070
0.051
0.031
-0.014
-0.028
0.009
0.047
0.040
-0.004
0.072
0.014
0.083
0.071
0.154
0.971
0.086
-1.488
-0.733
0.252
0.658
0.591
0.129
-0.072
-0.086
-0.179
-0.087
-0.014
-0.030
-0.030
0.121
0.107
0.059
0.087
0.035
-0.068
0.024
0.185
0.447
0.548
-0.640
-0.769
-0.037
0.263
0.085
0.255
0.208
0.083
-0.158
-0.092
-0.131
0.102
-0.037
-0.011
0.098
0.095
0.106
0.108
0.071
0.030
0.071
0.091
0.018
0.062
-0.026
0.011
0.042
0.034
0.244
-0.181
-0.221
0.055
0.198
0.179
0.107
-0.063
-0.052
-0.013
-0.022
0.022
0.107
0.123
0.089
0.034
-0.037
0.037
0.023
-0.026
0.002
0.009
0.034
0.089
0.049
0.017
-0.020
0.031
0.052
0.061
-0.012
0.158
1.118
0.006
-1.487
-0.698
0.263
0.703
0.560
0.146
-0.128
-0.137
-0.126
-0.058
-0.096
-0.017
0.137
0.076
-0.008
0.165
0.145
0.092
-0.058
0.049
0.066
0.079
0.002
-0.028
0.005
0.027
-0.047
0.038
0.027
0.017
-0.020
-0.009
0.023
0.023
0.004
0.006
-0.088
0.023
0.093
0.031
0.088
0.028
0.020
0.058
-0.008
0.092
0.110
0.110
-0.015
0.012
-0.040
0.005
-0.066
0.016
0.052
0.097
0.141
-0.021
-0.053
-0.017
0.132
0.079
-0.238
-0.051
0.208
0.273
0.111
0.019
-0.020
-0.086
-0.053
0.068
0.049
0.128
0.030
0.054
-0.024
0.045
0.017
0.041
0.020
0.039
0.060
0.033
0.012
0.068
0.042
0.082
-0.020
-0.016
0.056
-0.033
0.393
1.065
-0.701
-1.457
-0.185
0.922
1.078
-0.117
-0.628
-0.111
0.074
-0.072
0.102
0.115
0.026
-0.046
0.029
0.172
0.109
0.163
0.036
0.067
0.010
0.039
0.012
0.049
0.037
0.035
0.021
-0.043
-0.104
0.079
-0.013
0.014
-0.031
-0.034
0.023
0.116
0.052
0.070
0.029
0.050
-0.026
0.023
0.000
0.045
0.020
0.014
0.003
0.125
0.032
0.145
0.113
-0.329
-0.045
0.070
0.234
0.107
-0.074
-0.073
-0.021
0.016
0.124
0.008
0.053
-0.012
0.091
0.105
0.048
0.053
-0.024
-0.041
0.071
-0.071
0.050
0.006
-0.003
-0.007
0.077
0.058
-0.024
0.004
0.023
-0.039
-0.023
0.054
0.125
0.450
1.114
-0.526
-1.576
-0.310
0.284
0.696
0.502
0.101
-0.070
-0.091
-0.201
-0.079
-0.047
-0.013
-0.016
0.139
0.082
0.116
0.066
0.119
0.058
0.039
0.049
0.009
0.006
0.016
-0.015
0.087
-0.015
-0.023
0.133
0.072
-0.059
0.014
-0.010
-0.053
-0.008
0.035
0.103
0.060
-0.031
0.045
-0.009
-0.052
-0.011
-0.003
0.085
0.089
0.117
0.035
0.073
-0.040
0.069
0.051
0.533
0.198
-0.714
-0.542
-0.222
0.041
0.403
0.466
0.307
-0.016
-0.197
-0.231
-0.163
-0.063
0.090
0.189
0.148
0.213
0.021
0.044
-0.024
0.069
0.017
-0.044
0.049
0.010
-0.009
-0.014
-0.054
0.066
0.024
0.069
-0.019
0.019
0.014
0.070
0.066
0.013
0.046
0.060
0.205
1.015
-0.233
-1.540
-0.581
0.470
0.753
0.397
0.137
-0.089
-0.172
-0.164
-0.063
-0.094
-0.028
0.156
0.039
0.118
0.105
0.073
0.112
0.044
0.081
0.061
0.118
0.126
-0.033
-0.016
0.043
-0.057
-0.024
0.145
0.130
0.155
-0.021
-0.142
0.025
-0.016
0.022
-0.054
0.084
0.028
0.070
-0.006
0.072
-0.020
-0.047
-0.021
0.139
0.009
0.065
0.026
-0.004
0.051
0.065
0.066
-0.003
0.040
0.152
0.045
-0.298
-0.017
0.179
0.283
0.091
-0.083
0.007
-0.081
-0.052
0.243
1.214
-0.387
-1.504
-0.328
0.419
0.741
0.340
0.030
-0.150
-0.122
-0.085
-0.064
-0.078
-0.031
-0.010
0.104
0.091
0.166
0.090
0.020
-0.030
0.006
0.073
0.086
-0.031
0.020
0.509
0.362
-0.545
-0.725
0.020
0.271
0.153
0.187
0.220
-0.007
-0.052
-0.147
-0.069
-0.011
-0.069
-0.014
0.073
0.069
0.200
0.058
0.032
0.013
0.039
-0.015
-0.001
0.011
-0.020
0.054
0.047
-0.009
0.108
-0.021
-0.015
0.015
0.090
0.046
0.058
-0.143
-0.099
0.082
0.087
0.157
-0.267
-0.082
0.196
0.192
0.080
0.119
1.046
-0.028
-1.599
-0.672
0.379
0.806
0.543
0.125
-0.120
-0.261
-0.147
-0.118
-0.050
-0.115
0.065
0.073
0.104
0.033
0.068
0.193
0.042
0.080
-0.007
0.001
0.021
-0.009
0.004
0.076
0.018
0.019
-0.062
0.032
0.018
0.140
-0.010
0.014
0.002
0.097
0.029
-0.002
0.022
-0.037
0.026
0.011
0.037
-0.009
-0.005
0.077
0.003
0.102
0.035
0.012
0.089
-0.016
-0.027
0.046
0.010
0.040
0.023
0.035
-0.008
0.028
0.015
0.034
0.008
-0.046
-0.013
0.070
0.021
0.072
0.081
-0.012
0.109
0.067
-0.063
0.018
0.005
0.039
0.058
0.043
0.058
-0.020
0.001
-0.045
0.025
0.190
-0.198
-0.123
0.089
0.208
0.075
0.073
-0.013
-0.044
0.004
-0.042
-0.027
0.021
-0.036
0.108
0.259
0.117
0.030
-0.024
-0.075
-0.093
0.120
1.050
-0.059
-1.464
-0.662
0.398
0.647
0.612
0.088
-0.079
-0.179
-0.211
-0.092
0.044
0.524
-0.021
-0.714
-0.237
0.309
0.224
0.300
0.273
0.049
-0.053
-0.147
-0.074
-0.115
0.023
0.028
0.044
0.055
0.126
0.069
0.059
0.067
-0.055
0.047
0.046
0.099
-0.021
0.070
-0.038
0.020
0.081
0.005
0.046
0.077
0.030
-0.032
-0.018
0.018
0.146
0.113
0.070
-0.045
0.011
0.045
-0.048
-0.034
0.024
0.100
0.022
0.096
-0.022
-0.031
0.075
0.015
0.006
-0.045
0.063
0.083
0.005
0.024
0.109
0.077
0.002
0.156
0.118
-0.249
-0.102
0.083
0.893
0.848
-1.229
-1.280
0.016
0.635
0.614
0.258
0.016
-0.149
-0.144
-0.096
-0.039
-0.095
-0.003
0.116
0.190
0.202
0.129
0.012
0.034
0.027
-0.020
0.030
0.006
0.006
0.079
-0.038
-0.056
0.000
0.011
0.013
-0.020
0.022
0.002
0.069
-0.023
-0.001
0.050
0.025
-0.081
0.114
0.148
0.060
0.012
-0.076
0.012
-0.039
-0.045
0.059
0.113
0.056
0.043
-0.081
0.055
-0.047
0.047
0.001
-0.008
0.031
0.085
0.058
0.005
-0.021
0.081
0.076
0.003
-0.058
0.053
-0.012
0.071
0.194
0.096
-0.291
-0.045
0.080
0.194
0.104
0.064
0.974
1.005
-1.811
-1.935
0.014
0.903
0.863
0.468
0.256
-0.096
-0.277
-0.397
-0.275
-0.137
0.159
0.150
0.181
0.151
0.154
0.131
0.054
0.041
0.017
0.034
0.063
0.078
-0.064
-0.083
-0.010
-0.005
0.048
0.104
0.009
0.050
0.090
0.069
-0.041
-0.001
0.050
0.040
-0.024
-0.001
0.048
-0.000
0.029
0.050
-0.017
0.108
0.054
0.015
0.027
0.095
0.047
-0.044
0.018
0.051
0.092
-0.012
-0.014
-0.025
-0.039
0.031
0.062
0.038
0.042
0.021
0.026
0.126
0.001
-0.031
-0.007
0.063
0.198
0.081
-0.044
0.028
-0.081
-0.062
0.061
0.058
0.058
0.734
0.784
-1.232
-1.343
0.018
0.669
0.671
0.279
0.078
-0.148
-0.097
0.035
-0.365
-0.230
0.113
0.251
0.343
0.121
-0.014
0.020
0.007
0.043
0.027
0.052
0.107
-0.040
-0.006
-0.038
0.347
0.542
-0.356
-0.849
-0.134
0.263
0.161
0.196
0.244
0.163
-0.016
-0.163
-0.103
-0.029
-0.015
0.033
0.036
0.152
0.161
0.118
0.061
0.128
-0.002
0.003
-0.025
0.015
-0.057
-0.056
0.031
0.109
0.018
0.003
-0.022
-0.011
0.051
-0.015
0.072
0.025
-0.022
0.132
0.085
0.064
0.085
0.031
0.032
0.023
0.045
-0.004
0.096
0.631
0.825
-1.069
-1.365
-0.109
0.545
0.704
0.364
-0.013
-0.109
-0.181
-0.087
-0.055
-0.006
0.043
0.131
-0.097
0.059
0.231
0.310
0.146
0.042
-0.037
-0.037
-0.049
0.047
0.248
-0.211
-0.258
0.162
0.252
0.145
-0.025
-0.162
-0.044
0.068
-0.005
0.004
0.032
0.096
-0.050
-0.119
0.009
0.088
0.142
0.070
0.059
-0.058
-0.038
0.086
0.058
0.091
0.075
0.066
0.024
0.036
0.010
0.020
0.024
0.026
0.015
0.059
0.091
-0.002
-0.026
-0.021
0.026
-0.000
0.020
0.019
0.085
0.071
0.081
0.314
0.514
-0.491
-0.660
-0.181
0.201
0.224
0.229
0.167
0.108
-0.044
-0.112
-0.013
-0.014
0.933
0.192
-1.363
-0.710
0.191
0.735
0.569
0.191
0.029
-0.064
-0.143
-0.180
-0.143
-0.113
0.071
0.120
0.175
0.039
0.094
0.197
0.033
0.012
0.007
0.046
0.033
-0.038
0.068
0.036
0.075
-0.337
-0.062
0.206
0.328
0.121
-0.067
-0.099
-0.114
-0.067
0.114
0.115
0.091
0.104
-0.001
0.009
-0.022
-0.020
-0.056
0.091
0.044
0.068
0.022
0.058
0.037
-0.003
0.052
0.049
0.049
-0.015
0.087
-0.005
0.021
0.008
-0.009
0.025
0.023
0.089
0.027
0.029
0.066
-0.006
0.051
0.055
0.066
0.007
0.040
0.058
0.060
0.215
1.093
-0.356
-1.449
-0.296
0.425
0.643
0.395
0.050
-0.092
-0.221
-0.106
-0.082
-0.020
0.030
0.002
0.062
0.082
0.127
0.119
0.046
0.131
0.362
0.540
-0.442
-0.877
-0.213
0.341
0.212
0.187
0.161
0.106
-0.010
-0.133
-0.018
-0.042
-0.026
0.040
0.047
0.100
0.182
0.111
0.046
0.010
0.016
-0.125
-0.050
-0.079
0.069
0.027
-0.026
-0.033
0.017
-0.037
0.229
-0.067
-0.164
0.143
0.225
0.226
0.038
-0.056
-0.037
0.018
0.803
0.546
-1.184
-1.212
0.156
0.630
0.627
0.242
-0.050
-0.193
-0.205
-0.174
-0.072
-0.081
0.114
0.194
0.134
0.118
0.016
0.106
0.051
-0.019
0.019
0.055
-0.071
-0.017
0.058
0.035
0.039
0.036
-0.017
-0.018
0.002
0.020
0.018
-0.003
-0.001
0.005
0.039
0.041
-0.032
0.017
0.122
0.025
0.067
-0.002
0.013
0.078
0.111
-0.034
0.004
0.052
0.106
0.028
0.039
0.250
0.584
-0.248
-0.858
-0.235
0.267
0.233
0.308
0.192
0.017
-0.053
-0.096
-0.041
-0.086
0.017
0.041
0.126
0.076
0.116
1.008
0.438
-1.378
-0.887
0.166
0.634
0.555
0.139
0.023
-0.181
-0.475
-0.119
0.045
0.171
0.157
0.020
0.056
-0.016
0.103
0.060
0.087
0.061
0.004
0.035
0.077
0.021
0.024
-0.015
0.050
0.035
-0.014
0.000
-0.001
0.015
-0.013
0.027
0.105
0.026
-0.006
0.055
-0.004
-0.003
0.062
0.102
0.163
0.085
-0.039
-0.153
-0.113
0.061
-0.036
0.010
0.150
0.018
0.066
-0.013
-0.030
0.023
-0.024
-0.000
-0.023
0.052
0.053
0.001
0.054
0.344
0.597
-0.454
-0.733
-0.073
0.208
0.223
0.220
0.156
0.443
0.903
-1.017
-1.391
-0.303
0.413
0.774
0.399
0.119
-0.099
-0.152
-0.006
0.072
0.200
-0.215
-0.137
0.086
0.279
0.187
0.088
0.019
0.057
-0.079
-0.070
0.005
0.021
0.038
-0.026
0.094
-0.023
-0.113
0.026
0.017
-0.018
0.021
0.102
0.074
0.069
0.028
-0.044
-0.025
-0.022
0.103
0.059
0.131
0.054
0.057
0.036
-0.030
0.058
0.021
-0.030
0.057
0.003
0.090
-0.045
-0.021
-0.032
0.028
0.069
-0.016
0.056
0.043
0.044
0.170
1.107
-0.081
-1.548
-0.630
0.350
1.315
0.773
-0.628
-0.679
-0.129
-0.043
0.106
0.203
0.133
-0.003
-0.062
-0.012
0.087
0.004
0.062
0.077
0.108
0.092
0.036
0.063
0.048
-0.013
0.071
0.043
0.092
0.008
-0.052
-0.023
-0.089
-0.032
-0.003
0.074
0.106
0.107
-0.247
-0.178
0.206
0.365
0.139
-0.044
-0.147
-0.022
0.013
0.021
0.099
0.107
0.091
0.067
-0.023
0.065
-0.028
0.067
0.086
-0.023
0.051
0.010
-0.064
-0.029
0.096
0.028
0.042
0.056
-0.018
-0.006
0.067
0.111
0.133
0.156
-0.030
-0.021
0.109
0.008
0.044
-0.138
0.177
1.164
-0.062
-1.383
-0.515
0.283
0.641
0.402
0.117
-0.063
-0.135
-0.177
-0.059
-0.043
0.021
0.086
0.165
0.156
0.114
0.075
0.038
0.072
0.008
0.059
0.032
0.071
-0.044
-0.016
0.068
0.017
0.095
0.040
-0.018
0.071
0.041
0.048
-0.031
-0.011
0.034
0.063
-0.036
0.106
0.107
0.089
-0.328
-0.175
0.262
0.228
0.134
-0.034
-0.051
0.010
-0.019
-0.030
0.040
0.100
0.053
-0.056
0.102
-0.005
-0.008
0.065
0.013
-0.051
-0.064
0.280
0.645
-0.240
-0.749
-0.264
0.299
0.211
0.199
0.126
0.157
-0.086
-0.138
-0.056
-0.005
-0.068
0.006
0.056
0.112
0.091
0.175
0.019
0.023
0.103
1.050
0.020
-1.564
-0.718
0.223
0.781
0.553
0.123
-0.077
-0.217
-0.206
-0.148
-0.081
-0.024
0.051
0.143
0.055
0.124
0.032
0.186
0.076
-0.017
-0.051
-0.054
0.008
0.012
-0.042
0.072
0.091
0.115
-0.021
0.031
0.007
-0.023
0.145
-0.000
0.079
0.006
0.055
0.061
0.017
-0.074
-0.030
0.016
0.009
0.050
0.050
0.099
-0.017
0.045
0.004
0.050
0.127
0.050
0.013
-0.100
0.120
0.226
-0.171
-0.144
0.100
0.265
0.224
-0.143
-0.101
-0.073
0.054
0.075
0.034
0.110
0.032
0.019
0.017
0.014
0.039
-0.050
0.065
0.085
1.071
-0.036
-1.572
-0.699
0.335
0.754
0.563
0.614
0.390
-0.736
-0.888
-0.211
0.176
0.110
0.305
0.269
0.174
0.104
-0.129
-0.038
0.070
0.123
-0.037
-0.031
0.107
0.145
0.137
-0.000
-0.099
0.036
0.048
0.011
-0.044
0.042
0.001
0.019
0.015
0.132
-0.062
-0.002
-0.027
0.060
-0.025
0.032
0.094
0.141
0.039
0.033
-0.043
-0.019
0.087
-0.057
0.053
0.004
0.075
0.043
0.086
0.027
0.026
0.041
0.027
-0.009
-0.099
0.011
0.217
0.201
0.056
0.035
0.018
-0.080
-0.083
-0.082
0.054
0.067
0.078
0.022
0.134
1.099
0.066
-1.521
-0.788
0.240
0.696
0.778
0.169
-0.324
-0.225
-0.045
0.041
-0.035
-0.046
0.036
0.080
0.219
0.118
0.078
0.041
0.054
0.113
-0.008
0.056
0.013
-0.073
0.091
0.004
0.046
0.027
-0.072
0.016
-0.008
0.109
0.336
0.570
-0.188
-0.835
-0.225
0.280
0.061
0.227
0.175
0.122
0.020
0.050
-0.070
-0.137
-0.025
-0.072
0.078
0.065
0.087
0.157
0.087
0.134
0.022
0.038
-0.067
-0.009
-0.025
0.033
0.037
0.010
-0.071
-0.005
0.123
0.036
0.035
-0.000
-0.010
0.090
0.019
0.187
-0.009
-0.315
0.051
0.688
1.175
-0.786
-1.557
-0.292
0.481
0.724
0.523
0.045
-0.174
-0.134
-0.164
-0.050
-0.014
0.014
0.091
0.102
0.170
0.034
0.066
-0.025
-0.025
0.016
0.120
0.087
0.019
0.050
0.009
-0.030
-0.070
-0.043
-0.012
0.081
0.019
0.019
0.024
0.056
0.010
-0.046
0.001
0.079
0.088
0.012
-0.024
-0.030
0.022
0.039
-0.042
0.032
0.073
0.085
0.018
0.064
-0.093
0.007
0.031
0.061
0.042
0.035
0.047
0.115
-0.035
-0.054
0.051
-0.036
0.120
0.067
0.034
-0.037
0.161
0.578
-0.201
-0.874
-0.320
0.205
0.230
0.287
1.281
0.116
-1.809
-1.012
0.329
0.819
0.746
0.199
-0.049
-0.097
-0.137
-0.047
0.048
-0.043
-0.009
0.093
0.170
0.213
0.013
0.018
-0.139
0.027
-0.078
-0.017
-0.105
0.083
0.078
0.143
0.052
0.034
-0.053
-0.020
0.004
0.025
0.076
-0.001
-0.013
0.065
0.055
0.101
0.011
-0.007
0.010
0.022
0.021
0.052
0.043
0.035
0.059
0.061
0.006
0.045
0.065
-0.012
0.115
-0.020
0.023
0.038
0.041
0.025
0.069
0.048
0.037
0.026
0.120
-0.001
0.048
-0.094
-0.069
0.065
0.105
0.052
0.036
0.658
0.809
-1.101
-1.235
-0.134
0.420
0.669
0.328
0.077
-0.177
-0.145
-0.065
-0.037
-0.043
0.028
0.053
0.094
0.141
0.272
-0.116
-0.138
0.081
0.235
0.158
0.025
-0.073
-0.072
-0.057
-0.000
0.040
0.073
0.043
0.174
0.620
0.050
-0.836
-0.405
0.172
0.172
0.216
0.142
0.018
-0.065
-0.120
-0.020
-0.033
0.035
0.001
0.015
0.124
0.026
0.219
0.123
0.048
0.003
0.059
0.074
-0.012
-0.018
0.071
0.081
0.015
0.040
-0.012
0.012
-0.008
0.634
0.793
-1.145
-1.326
-0.058
0.567
0.763
0.345
0.111
-0.179
-0.199
-0.158
-0.017
0.016
0.077
0.113
0.062
0.137
0.155
0.057
0.120
0.014
-0.042
0.011
0.055
-0.023
0.013
0.077
-0.002
-0.342
-0.022
0.150
0.171
0.172
0.070
-0.010
0.039
-0.049
0.051
-0.009
0.144
0.099
0.062
0.110
-0.061
-0.087
-0.041
0.114
0.146
-0.029
-0.015
-0.152
-0.072
0.034
0.160
0.038
0.012
-0.009
0.025
0.009
0.031
0.143
0.041
-0.024
-0.004
0.042
0.059
0.019
0.064
0.037
-0.067
0.031
-0.056
0.072
0.081
0.040
0.002
0.027
0.204
0.688
-0.224
-0.846
-0.175
0.245
0.145
0.106
0.396
1.171
-0.226
-1.592
-0.765
0.240
0.643
0.529
0.167
0.010
-0.066
-0.151
-0.019
-0.037
-0.007
0.043
0.096
0.094
0.168
0.088
0.096
0.017
0.073
-0.034
-0.027
-0.017
0.048
0.022
0.095
-0.023
0.056
-0.036
-0.040
0.139
-0.009
0.092
0.021
0.035
0.102
0.015
-0.046
0.015
0.040
-0.027
0.033
0.030
-0.024
-0.000
0.072
0.215
-0.138
-0.170
0.075
0.259
0.105
0.054
-0.082
-0.028
0.071
0.033
0.044
0.010
0.068
0.071
0.081
-0.000
0.009
-0.006
0.062
-0.007
0.007
0.047
0.011
-0.041
-0.033
0.073
0.901
0.543
-1.285
-1.111
0.013
0.596
0.648
0.188
0.088
-0.060
-0.126
-0.065
-0.145
-0.055
0.020
0.163
0.223
0.163
0.015
0.059
-0.017
0.031
-0.003
0.099
0.555
0.215
-0.838
-0.616
0.043
0.326
0.248
0.231
0.091
0.110
-0.111
-0.167
-0.046
0.028
0.055
0.092
0.004
0.048
0.142
0.097
0.002
0.067
0.088
0.067
-0.004
0.025
-0.079
-0.051
-0.043
0.002
0.122
0.149
-0.011
0.015
0.062
0.015
0.038
0.008
0.022
0.052
0.080
-0.001
0.004
0.052
0.110
-0.019
-0.037
-0.001
0.060
0.075
-0.004
-0.020
0.112
0.045
0.062
-0.009
-0.020
-0.002
0.045
0.100
0.066
0.137
0.027
-0.150
0.883
-0.042
-1.260
-0.432
0.219
0.680
0.432
0.141
-0.104
-0.210
-0.107
-0.083
-0.004
0.026
0.076
0.173
0.119
0.095
0.068
0.089
0.066
-0.038
-0.066
0.041
-0.049
0.129
0.062
-0.019
-0.048
-0.007
0.031
0.018
-0.020
0.020
-0.002
0.079
-0.007
0.045
0.071
-0.032
0.092
0.029
0.069
0.050
0.050
0.408
0.333
-0.515
-0.717
-0.122
0.415
0.161
0.224
0.130
0.006
-0.077
-0.092
-0.030
0.034
-0.004
0.075
0.068
0.041
0.209
0.093
0.030
0.071
0.060
0.111
0.258
1.034
-0.320
-1.485
-0.504
0.275
0.685
0.477
0.075
-0.124
-0.149
-0.093
-0.073
-0.038
0.021
0.067
0.144
0.178
0.114
0.088
0.068
0.074
0.020
0.031
-0.073
-0.045
0.037
0.000
0.036
0.006
0.080
0.167
-0.205
-0.153
0.161
0.285
0.099
-0.034
-0.032
0.025
0.016
-0.005
0.032
-0.031
0.105
0.121
0.058
-0.030
-0.014
0.019
0.007
0.013
0.111
0.037
0.039
0.044
-0.068
-0.008
-0.014
0.121
0.049
0.025
0.047
0.078
0.109
0.029
0.053
0.034
-0.047
0.004
0.055
-0.008
0.090
-0.016
0.053
0.005
0.043
-0.017
0.076
0.888
0.502
-1.381
-1.071
0.070
0.677
0.677
0.221
-0.018
-0.110
-0.212
-0.112
-0.039
0.001
0.091
0.089
0.122
0.073
0.306
0.535
-0.299
-0.869
-0.130
0.374
0.323
0.206
0.117
-0.066
-0.212
-0.172
-0.053
0.028
0.108
0.119
0.169
0.036
0.078
0.054
0.062
0.046
0.086
-0.011
0.004
0.073
0.012
0.105
0.008
-0.283
-0.088
0.112
0.232
0.125
-0.002
0.034
-0.003
-0.015
0.067
0.032
-0.012
0.020
0.018
0.014
-0.031
0.053
0.013
0.043
0.032
-0.021
-0.014
0.074
-0.031
0.050
-0.088
0.050
-0.110
0.114
0.129
0.034
0.013
0.249
1.017
-0.257
-1.505
-0.497
0.367
0.690
0.567
0.220
-0.031
-0.187
-0.205
-0.136
-0.114
0.081
0.092
0.109
0.049
0.154
0.086
0.009
0.051
0.084
0.001
-0.027
-0.033
-0.075
0.200
0.037
-0.020
-0.005
0.086
-0.009
0.055
0.009
0.037
0.031
-0.007
-0.033
0.001
0.037
-0.007
0.026
0.063
0.046
0.132
-0.041
-0.029
0.042
0.058
0.035
-0.088
0.069
0.145
0.054
-0.009
0.005
0.062
-0.028
0.023
-0.014
0.004
0.097
-0.069
0.021
0.072
0.036
-0.026
0.119
0.125
0.119
0.008
-0.029
0.026
0.063
-0.003
-0.028
0.018
0.107
0.265
0.375
-0.262
-0.717
-0.164
0.231
1.105
0.403
-1.229
-0.943
0.139
0.606
0.492
0.148
-0.094
-0.091
-0.111
-0.061
0.069
0.066
0.181
0.194
-0.015
-0.033
0.035
-0.010
0.104
0.151
0.051
0.031
0.008
0.017
-0.071
-0.054
-0.004
0.068
-0.009
-0.003
0.016
0.002
-0.002
0.097
-0.026
0.033
0.055
-0.021
0.165
0.074
0.035
-0.039
-0.052
0.026
0.055
-0.024
0.013
0.058
0.066
0.081
0.089
-0.040
0.043
0.100
0.019
-0.015
0.039
0.047
-0.044
-0.032
0.130
0.055
0.031
0.069
0.038
0.027
0.006
0.038
0.049
0.014
-0.035
0.021
0.090
0.070
-0.015
0.096
0.013
0.067
0.101
-0.007
0.079
0.058
0.002
0.007
0.034
0.064
0.125
1.092
0.205
-1.646
-0.897
0.317
0.735
0.611
0.193
-0.020
-0.228
-0.112
-0.112
-0.015
0.143
-0.079
-0.285
0.109
0.248
0.300
0.130
0.018
-0.024
-0.103
0.013
0.005
0.009
0.068
0.042
0.052
0.040
0.060
0.053
0.014
0.011
-0.063
0.033
0.105
0.040
0.037
0.000
-0.053
0.036
0.064
0.010
0.029
0.031
0.092
0.637
0.111
-0.788
-0.413
0.145
0.224
0.215
0.274
0.133
-0.043
-0.188
-0.205
-0.078
0.113
0.210
0.093
-0.029
0.069
0.053
0.020
0.046
0.073
0.085
0.055
0.000
0.056
0.059
-0.093
-0.075
0.005
0.079
0.055
0.021
-0.035
-0.018
-0.001
0.003
-0.018
-0.066
0.120
0.791
0.842
-1.253
-1.392
0.044
0.638
0.719
0.357
-0.042
-0.147
-0.205
-0.125
-0.150
-0.109
0.042
0.211
0.230
0.124
0.120
-0.009
-0.016
0.212
0.023
-0.233
0.001
0.309
0.251
-0.023
-0.118
-0.182
0.021
0.045
0.025
0.037
0.071
0.036
-0.007
0.061
-0.013
-0.104
-0.002
0.064
0.056
0.070
-0.010
-0.029
0.021
-0.043
-0.022
-0.041
0.131
0.076
0.054
0.027
0.076
-0.051
-0.013
-0.013
0.041
0.059
-0.037
0.025
0.001
-0.002
0.019
0.074
0.057
0.030
0.115
-0.011
0.066
0.026
0.013
0.027
0.047
0.014
-0.008
-0.021
0.103
0.024
0.062
-0.071
0.032
0.015
0.102
0.053
-0.004
0.019
0.057
0.042
0.035
0.048
0.057
0.738
0.671
-1.110
-0.940
0.521
0.030
-0.089
0.234
0.231
-0.003
0.053
0.020
-0.072
-0.197
-0.038
-0.007
0.052
0.120
0.095
0.108
0.148
0.070
0.045
0.079
0.098
0.045
-0.033
-0.000
-0.021
-0.013
-0.291
-0.162
0.240
0.414
0.229
0.020
-0.015
-0.071
-0.038
-0.019
0.013
0.090
0.147
0.023
-0.071
0.049
0.006
0.004
0.044
-0.025
0.059
-0.038
-0.043
0.027
0.095
0.030
0.068
0.018
0.036
0.064
0.111
-0.018
-0.032
-0.002
0.069
0.065
0.036
0.026
0.015
0.022
0.103
0.094
0.062
0.143
0.699
0.648
-1.251
-1.305
0.045
0.610
0.771
0.332
-0.038
-0.118
-0.178
-0.080
-0.091
-0.049
-0.015
0.089
0.177
0.113
0.103
0.085
0.044
0.053
-0.009
0.014
0.081
0.011
0.006
-0.021
0.010
-0.016
-0.017
0.041
0.057
0.022
0.084
0.048
-0.031
-0.008
0.032
0.083
0.083
0.078
0.012
-0.009
0.067
-0.003
0.026
-0.039
0.075
0.064
0.024
0.020
-0.018
0.210
-0.047
-0.272
-0.045
0.288
0.270
0.107
-0.130
-0.115
0.049
0.020
0.021
-0.012
0.068
0.090
0.079
0.120
-0.029
-0.027
-0.001
0.039
0.046
0.025
0.023
-0.061
-0.047
0.117
0.080
0.119
0.025
-0.063
-0.047
-0.109
0.225
1.235
-0.153
-1.480
-0.749
0.407
0.717
0.543
0.174
-0.138
-0.091
-0.115
-0.155
-0.087
0.005
0.094
0.074
0.130
0.133
0.059
0.083
0.025
0.023
0.103
-0.002
-0.047
0.022
0.058
0.051
0.028
0.085
0.596
0.236
-0.829
-0.522
0.065
0.203
0.218
0.203
0.156
0.039
-0.099
-0.154
-0.108
-0.090
0.073
0.020
0.072
0.289
0.081
0.005
0.100
0.169
-0.101
-0.271
0.046
0.258
0.206
0.088
-0.072
-0.149
-0.044
0.011
0.170
0.092
0.075
-0.094
-0.012
0.086
0.000
0.121
0.044
-0.019
-0.072
0.071
0.703
0.763
-1.264
-1.307
0.047
0.651
0.714
0.225
0.000
-0.027
-0.155
-0.159
-0.098
-0.015
0.089
0.158
0.113
0.125
0.082
0.015
0.059
0.068
0.036
-0.011
-0.005
0.022
0.045
0.029
-0.013
0.047
0.053
0.073
0.028
0.041
0.027
0.039
0.031
0.024
0.122
-0.004
0.014
-0.111
-0.006
0.030
0.034
0.013
-0.006
0.060
0.090
0.145
0.084
-0.022
-0.007
0.012
0.037
0.113
0.016
0.096
0.078
0.046
-0.061
0.008
0.056
-0.021
-0.069
0.007
0.106
-0.054
0.081
0.013
0.061
0.101
-0.015
0.058
0.035
0.118
0.138
0.514
0.482
-1.208
-0.961
0.097
0.606
0.619
0.176
-0.023
-0.093
-0.139
-0.097
-0.009
0.016
-0.026
0.091
0.161
0.300
0.632
-0.231
-0.829
-0.162
0.204
0.153
0.154
0.198
0.049
-0.127
-0.163
0.041
-0.025
0.016
-0.100
0.055
0.114
0.103
0.080
0.032
0.030
0.048
0.012
-0.001
0.061
0.088
0.058
-0.082
-0.044
0.099
0.010
0.073
0.077
0.018
-0.034
0.091
0.004
-0.037
0.070
-0.033
-0.017
0.067
-0.014
0.044
-0.016
0.121
0.019
0.052
0.004
0.028
0.110
0.046
-0.008
-0.041
-0.042
0.067
0.060
0.057
0.019
0.010
-0.027
0.422
0.878
-0.695
-1.414
-0.139
0.497
0.769
0.526
-0.150
-0.367
-0.141
0.098
0.088
-0.052
-0.039
-0.027
0.044
0.105
0.124
0.164
0.060
0.114
0.080
0.031
0.073
0.006
0.017
0.024
0.016
-0.033
0.022
-0.045
-0.092
0.023
0.059
-0.076
0.007
0.078
0.179
0.120
0.002
0.005
-0.052
-0.003
-0.040
0.036
0.129
0.107
-0.001
-0.070
-0.080
0.137
0.218
0.106
-0.171
-0.072
0.147
-0.020
0.008
-0.000
0.017
0.111
0.121
0.069
-0.022
0.536
0.183
-0.778
-0.596
0.074
0.241
0.199
0.236
0.178
0.034
-0.015
-0.141
-0.041
0.108
0.001
0.110
0.113
0.072
0.029
0.103
0.123
0.464
0.953
-0.749
-1.426
-0.359
0.433
0.776
0.433
-0.056
-0.074
-0.192
-0.153
0.003
0.121
-0.271
-0.100
0.270
0.384
0.090
0.023
0.019
-0.022
0.071
-0.037
0.027
0.091
0.011
0.060
-0.044
0.053
-0.013
-0.014
0.020
0.098
-0.009
-0.052
-0.006
0.037
0.106
0.033
0.058
0.053
0.043
-0.007
0.025
0.011
-0.006
0.047
-0.078
0.042
0.099
0.066
0.053
-0.019
0.099
0.056
0.005
0.005
-0.044
-0.065
0.070
0.037
0.159
0.040
-0.024
-0.099
0.090
0.039
0.064
-0.061
0.105
0.155
-0.092
-0.180
0.008
0.242
0.453
1.086
-0.443
-1.659
-0.561
0.387
0.664
0.504
0.149
-0.050
-0.159
-0.166
-0.107
-0.007
-0.025
0.099
0.063
0.109
0.112
0.081
0.054
0.052
0.102
0.054
-0.068
-0.049
-0.052
0.108
0.077
-0.013
0.015
-0.024
0.028
0.050
0.046
0.097
0.081
-0.016
0.032
0.086
0.020
0.054
-0.060
-0.008
0.024
0.097
-0.035
-0.048
0.108
0.072
-0.055
0.078
0.081
0.435
0.421
-0.539
-0.759
-0.166
0.304
0.205
0.266
0.224
0.091
-0.088
-0.122
-0.088
-0.071
0.033
0.033
0.063
0.077
0.183
0.110
0.176
-0.033
0.101
-0.046
0.008
-0.073
-0.040
0.054
0.004
0.010
0.489
1.117
-0.696
-1.587
-0.339
0.436
0.656
0.488
0.112
-0.173
-0.153
-0.129
0.012
0.056
-0.274
0.029
0.274
0.377
0.225
-0.014
-0.062
-0.019
0.050
0.009
-0.024
0.030
0.037
0.030
0.052
-0.005
-0.037
0.026
0.059
-0.005
0.018
0.063
0.003
0.043
0.006
0.143
0.050
0.051
-0.068
-0.066
-0.004
-0.036
0.050
0.139
0.108
0.093
0.079
0.056
0.013
-0.017
-0.094
0.004
0.183
0.124
0.041
-0.002
-0.096
0.034
0.044
-0.036
-0.004
0.009
0.027
0.057
0.004
-0.039
0.083
0.084
0.061
0.071
0.053
0.106
-0.032
-0.038
0.147
-0.006
0.057
0.045
0.027
-0.037
0.038
0.060
-0.017
0.025
0.058
-0.022
0.082
0.575
0.967
-0.920
-1.425
-0.155
0.552
0.725
0.375
0.012
-0.106
-0.229
-0.118
0.029
0.040
-0.304
-0.071
0.300
0.316
0.216
-0.055
0.022
0.001
-0.027
-0.015
0.091
-0.010
0.139
0.091
0.064
-0.004
-0.019
0.033
0.084
-0.005
-0.051
-0.043
0.057
0.054
0.077
0.040
-0.039
0.036
-0.003
0.041
0.064
0.035
0.082
0.022
0.082
0.155
-0.016
0.002
-0.005
0.040
0.054
0.053
0.108
0.017
0.039
-0.032
-0.036
0.030
0.033
0.044
0.066
0.029
0.111
0.555
0.099
-0.769
-0.425
0.111
0.254
0.188
0.235
0.174
0.042
-0.094
-0.148
-0.048
0.023
0.111
0.139
0.078
0.046
0.088
0.125
0.074
-0.109
-0.023
0.047
0.539
0.873
-0.993
-1.382
-0.080
0.583
0.697
0.275
0.027
-0.201
-0.242
0.007
-0.049
0.020
0.037
0.218
0.139
-0.153
0.031
0.219
0.273
0.123
-0.077
0.017
-0.087
-0.043
-0.060
0.071
0.106
-0.021
-0.027
-0.003
0.064
0.094
-0.009
0.028
-0.081
-0.040
0.043
0.056
0.016
0.075
0.027
0.082
-0.012
0.030
0.022
0.014
0.110
0.037
0.033
0.015
0.022
0.047
0.026
0.109
0.034
-0.009
0.026
0.023
-0.060
-0.073
0.058
0.189
-0.004
-0.001
-0.010
0.010
0.007
-0.007
0.011
0.033
0.129
0.020
0.004
0.120
0.126
-0.012
-0.070
0.063
0.119
0.023
0.005
0.116
1.052
0.057
-1.590
-0.688
0.301
0.693
0.541
0.149
-0.077
-0.177
-0.213
-0.134
-0.183
0.052
0.136
0.055
0.105
0.145
0.083
0.074
0.022
0.067
-0.040
0.002
-0.015
0.047
-0.008
0.038
0.261
-0.137
-0.265
0.086
0.240
0.261
0.028
-0.105
-0.020
-0.030
-0.066
0.029
0.063
0.090
-0.104
0.059
0.011
-0.010
0.000
-0.005
0.088
0.021
-0.012
-0.014
-0.006
0.059
0.083
0.075
0.076
0.023
0.046
0.012
-0.059
0.037
-0.022
-0.048
-0.033
0.024
0.147
0.157
0.041
-0.012
-0.005
0.009
-0.024
-0.013
0.124
0.079
-0.046
0.035
0.137
-0.022
-0.003
-0.026
0.019
0.122
-0.045
-0.048
0.049
0.060
0.050
0.123
1.132
-0.134
-1.428
-0.720
0.357
0.679
0.611
0.112
-0.046
-0.167
-0.180
-0.107
-0.025
-0.040
0.048
0.157
0.117
0.158
0.077
-0.003
0.044
0.120
-0.006
0.048
-0.013
-0.041
0.008
0.016
0.087
0.317
0.450
-0.429
-0.738
-0.030
0.235
0.153
0.299
0.020
-0.216
-0.063
0.154
0.165
-0.007
-0.036
0.000
0.090
0.016
0.055
0.131
0.122
0.169
0.014
0.019
0.048
0.047
0.085
-0.099
-0.095
0.010
-0.035
-0.051
0.054
0.038
0.069
0.035
0.047
0.021
0.009
0.005
0.040
0.038
0.054
0.013
0.134
0.023
0.026
0.068
-0.001
0.009
0.023
0.051
-0.085
0.077
0.024
0.059
0.096
0.043
0.014
0.114
0.767
0.625
-1.368
-1.125
0.093
0.717
0.644
0.233
-0.008
-0.118
-0.165
-0.051
-0.141
-0.048
-0.019
0.094
0.104
0.242
0.112
0.042
0.103
0.019
-0.074
0.056
0.125
0.102
0.106
-0.033
-0.167
-0.067
-0.003
0.190
0.036
-0.009
0.052
0.090
0.000
0.005
0.050
-0.008
-0.053
0.064
0.132
0.146
-0.255
-0.183
0.169
0.268
0.165
-0.020
-0.136
0.013
0.009
-0.033
0.125
0.079
0.068
-0.021
0.026
0.010
-0.014
0.026
-0.011
0.053
0.042
0.082
0.002
0.059
0.064
0.060
0.007
-0.002
0.005
0.078
-0.019
-0.017
0.056
0.010
0.059
-0.018
0.076
0.055
0.038
-0.028
0.053
0.044
0.030
0.090
0.036
0.027
0.041
0.084
0.019
0.104
0.054
-0.019
0.329
1.037
-0.504
-1.637
-0.389
0.461
0.829
0.460
0.068
-0.074
-0.168
-0.158
-0.106
-0.087
0.037
0.098
0.198
0.130
0.049
0.078
0.452
0.483
-0.513
-0.690
-0.081
0.313
0.183
0.200
0.144
0.008
-0.217
-0.085
0.046
0.133
-0.185
-0.131
0.189
0.348
0.198
0.071
0.052
0.017
0.026
-0.031
-0.048
0.026
0.076
0.015
0.011
0.014
-0.012
-0.036
0.028
0.008
0.027
0.056
0.082
-0.007
0.078
0.013
-0.024
0.095
0.013
-0.002
0.084
0.032
0.079
-0.011
-0.034
0.055
0.048
0.066
0.011
0.058
0.009
-0.000
0.076
0.068
0.002
0.028
0.017
0.416
1.053
-0.657
-1.563
-0.355
0.505
0.778
0.375
0.032
-0.237
-0.244
-0.200
-0.061
0.194
0.128
0.128
0.008
0.066
0.019
0.085
0.122
0.057
0.141
0.047
0.050
-0.032
0.036
-0.023
0.051
0.037
0.120
-0.138
-0.320
-0.008
0.232
0.217
0.037
-0.023
0.058
-0.044
0.018
-0.001
0.059
-0.037
0.005
0.008
0.046
0.013
0.098
-0.013
0.002
0.044
0.027
0.013
0.046
0.063
0.047
-0.009
-0.002
0.081
0.058
0.067
0.079
-0.031
-0.033
0.103
0.015
0.053
0.061
0.082
-0.013
-0.029
0.045
0.035
-0.020
0.315
0.477
-0.484
-0.671
-0.060
0.222
0.173
0.189
0.218
0.068
-0.088
-0.097
0.710
0.461
-1.223
-1.102
0.167
0.605
0.660
0.393
0.069
-0.074
-0.053
-0.127
-0.080
-0.079
0.044
0.111
0.060
0.110
0.074
-0.021
0.052
0.009
0.071
-0.054
0.012
-0.015
0.032
0.012
-0.034
0.090
0.071
0.021
0.104
0.034
0.017
0.023
0.033
0.099
0.070
0.162
-0.313
-0.074
0.234
0.214
0.138
0.032
-0.150
-0.036
-0.066
0.023
0.059
-0.000
0.069
0.043
0.066
0.051
0.082
-0.033
-0.011
0.046
0.031
0.054
0.024
0.087
0.053
0.020
-0.163
0.029
0.150
0.019
0.164
0.016
-0.027
-0.033
-0.039
-0.013
0.049
0.156
0.102
0.004
0.076
0.054
0.054
0.011
0.076
0.027
0.020
-0.042
-0.011
0.013
-0.023
0.333
1.176
-0.452
-1.573
-0.483
0.401
0.789
0.534
0.019
-0.192
-0.119
-0.102
-0.139
-0.083
0.016
0.194
0.097
0.169
0.045
0.107
0.071
0.078
0.030
0.005
-0.066
-0.093
0.004
0.075
0.030
-0.058
0.004
-0.050
0.029
0.164
0.028
0.227
0.744
0.069
-1.088
-0.554
0.281
0.425
0.237
0.142
0.066
-0.042
-0.147
-0.046
-0.065
-0.029
0.138
0.040
0.050
0.096
0.144
0.079
0.050
-0.007
0.015
0.029
0.070
-0.014
-0.005
-0.054
0.036
0.028
-0.043
0.064
0.022
0.010
0.102
0.044
0.000
0.015
0.041
-0.025
0.081
0.076
0.064
0.014
0.060
-0.015
0.037
0.006
-0.066
0.166
1.097
-0.200
-1.557
-0.452
0.332
0.645
0.440
0.079
-0.010
-0.133
-0.108
-0.102
-0.091
-0.008
0.105
0.208
0.131
0.137
0.146
0.027
-0.023
-0.086
0.030
0.056
0.052
0.041
0.009
-0.027
-0.015
-0.119
0.024
0.089
0.125
0.089
-0.010
-0.033
0.040
-0.032
0.126
0.051
0.047
0.036
0.015
-0.028
0.026
0.020
0.069
-0.003
0.012
-0.061
0.024
0.001
0.060
0.087
0.061
0.005
-0.003
0.197
0.073
-0.387
-0.034
0.344
0.337
0.137
-0.108
-0.168
-0.027
-0.022
0.092
0.057
0.051
0.081
0.024
0.535
0.236
-0.765
-0.721
0.335
1.512
-0.238
-1.344
-0.351
0.376
0.627
0.278
0.047
-0.116
-0.189
-0.071
-0.033
0.009
0.068
0.116
0.210
0.130
0.094
0.109
0.048
0.040
-0.005
0.088
-0.023
-0.027
0.019
-0.007
0.013
0.048
0.061
0.132
-0.022
0.056
0.057
0.015
0.014
0.017
0.049
0.013
0.010
0.054
-0.063
0.118
-0.072
-0.038
0.054
0.094
0.035
-0.004
0.016
-0.034
0.007
0.090
-0.025
0.025
0.039
0.059
0.017
0.009
0.086
0.025
0.060
0.066
-0.029
0.087
0.014
-0.032
0.013
0.027
0.108
0.027
0.129
-0.006
-0.295
-0.006
0.183
0.252
0.100
-0.090
0.011
0.019
0.075
0.042
0.057
-0.053
0.015
0.672
0.779
-1.223
-1.236
0.049
0.536
0.544
0.341
0.108
-0.033
-0.204
-0.130
-0.095
-0.036
-0.043
0.129
0.179
0.153
0.039
0.141
0.167
-0.019
0.007
0.017
-0.013
-0.041
-0.040
-0.090
0.038
0.059
0.122
-0.011
-0.019
0.002
0.012
0.014
0.105
0.053
0.255
0.603
-0.136
-0.766
-0.297
0.240
0.145
0.235
0.184
0.134
0.007
-0.079
-0.003
-0.129
-0.089
-0.018
0.118
0.291
0.042
-0.007
-0.039
0.045
0.033
0.100
0.069
0.079
0.050
0.003
0.011
-0.017
-0.006
0.029
0.115
0.061
0.037
-0.025
0.036
0.064
0.043
-0.001
0.002
-0.038
0.053
0.095
0.252
-0.337
-0.179
0.084
0.275
0.269
0.232
1.041
-0.375
-1.742
-0.493
0.529
0.759
0.502
0.112
-0.127
-0.178
-0.151
-0.110
-0.121
0.046
0.047
0.048
0.230
0.098
0.074
0.069
0.065
0.061
0.058
0.019
0.039
0.028
-0.041
0.007
0.092
-0.003
0.021
-0.007
0.038
0.018
0.006
0.028
-0.013
0.089
0.080
-0.004
0.013
-0.003
0.006
0.006
0.081
0.020
0.053
0.062
0.035
-0.029
0.032
0.047
0.094
-0.004
0.080
0.108
0.044
-0.014
0.014
0.022
0.035
0.045
-0.003
-0.024
-0.018
-0.060
0.041
0.105
0.048
0.007
-0.035
0.107
0.038
0.131
0.015
0.083
-0.038
-0.022
0.047
0.033
0.060
0.192
1.137
-0.088
-1.608
-0.705
0.318
0.746
0.517
0.154
-0.125
-0.172
-0.180
-0.080
-0.010
-0.021
0.108
0.413
0.734
-0.217
-0.697
-0.134
0.191
0.286
0.205
-0.130
-0.020
0.044
0.003
-0.016
-0.124
-0.115
-0.035
-0.019
0.147
0.158
0.129
0.094
0.076
0.073
-0.038
-0.049
0.127
0.005
-0.009
-0.016
-0.018
-0.056
-0.041
-0.000
0.069
0.030
0.039
0.047
0.011
0.029
0.064
-0.024
0.072
0.082
0.023
0.051
-0.004
0.038
0.098
0.041
0.057
0.147
-0.060
0.026
0.042
0.014
0.083
-0.040
-0.123
0.017
0.082
0.031
0.000
0.054
0.014
0.050
0.048
0.036
0.054
0.037
-0.001
-0.040
-0.007
0.077
-0.001
0.087
0.010
0.055
-0.052
0.060
0.102
0.037
-0.008
0.011
0.000
-0.038
-0.003
0.639
0.984
-0.983
-1.312
-0.148
0.665
0.674
0.347
0.084
-0.153
-0.245
-0.143
-0.053
-0.040
0.033
0.054
0.117
0.123
0.119
0.115
0.006
0.096
0.028
0.006
0.146
-0.211
-0.163
0.077
0.246
0.156
-0.045
0.061
-0.098
-0.069
-0.022
0.008
0.069
-0.034
0.093
0.063
0.055
-0.010
0.008
0.044
0.026
0.058
-0.034
0.087
0.066
0.006
0.089
-0.002
0.048
-0.013
0.016
0.056
0.015
0.039
-0.055
-0.028
-0.010
-0.042
0.018
0.045
0.054
0.058
0.037
0.052
0.052
-0.043
-0.007
0.179
0.182
0.047
0.055
0.005
-0.010
-0.005
0.032
-0.029
0.071
0.026
-0.017
0.071
0.119
-0.034
0.599
0.896
-1.084
-1.372
-0.116
0.549
0.753
0.415
0.012
-0.212
-0.129
-0.100
-0.107
-0.048
0.095
0.178
0.151
0.110
0.045
0.043
0.072
0.100
0.093
0.031
-0.000
0.055
0.066
-0.010
-0.008
-0.073
0.072
-0.023
0.026
0.034
0.001
0.068
0.067
0.033
0.545
0.338
-0.768
-0.600
0.162
0.359
0.067
-0.040
0.163
0.222
0.088
-0.041
-0.123
-0.114
0.043
-0.002
0.017
0.125
0.103
0.126
0.125
0.072
0.041
0.013
-0.011
-0.064
0.022
-0.026
0.013
0.001
0.035
0.051
-0.009
0.001
0.042
0.059
0.030
0.041
0.005
-0.048
0.087
0.143
0.034
-0.019
0.688
0.826
-1.129
-1.256
-0.033
0.524
0.691
0.249
-0.060
-0.123
-0.124
-0.129
-0.004
-0.144
-0.072
0.132
0.121
0.152
0.106
0.050
0.044
0.055
0.061
0.009
0.060
-0.004
-0.033
-0.036
0.013
0.063
0.058
0.010
0.048
-0.064
0.070
0.049
-0.013
0.028
-0.003
-0.038
0.067
0.057
-0.004
-0.037
0.068
-0.078
-0.056
0.053
0.246
0.115
0.044
0.001
-0.062
-0.015
-0.014
-0.027
0.053
0.084
-0.032
0.105
0.113
-0.019
0.009
-0.026
-0.020
-0.001
0.044
0.134
0.092
0.046
-0.264
-0.106
0.203
0.346
0.145
-0.032
-0.074
-0.004
-0.099
0.052
0.060
0.027
0.048
-0.011
0.072
0.003
-0.034
0.036
0.020
0.052
0.027
0.041
0.003
-0.059
0.132
0.024
-0.025
0.059
0.027
0.045
0.110
0.394
0.965
-0.775
-1.519
-0.277
0.596
0.681
0.363
0.035
-0.135
-0.144
-0.135
-0.084
-0.100
-0.053
0.244
0.129
0.129
0.025
0.072
0.160
0.117
0.012
-0.012
0.084
0.036
0.012
-0.030
-0.039
-0.028
0.028
0.035
0.033
0.026
0.024
0.070
0.031
0.025
-0.047
-0.004
0.111
0.051
0.069
-0.012
0.013
0.071
-0.018
-0.027
0.046
0.034
0.079
-0.055
-0.047
0.000
0.057
0.046
0.047
0.085
0.063
-0.041
0.015
0.009
0.056
0.043
0.102
0.093
0.006
0.091
0.037
0.008
0.020
0.055
0.260
-0.216
-0.207
0.043
0.170
0.231
0.039
-0.063
-0.058
-0.056
0.055
-0.047
0.057
0.048
0.020
0.071
0.133
0.584
0.058
-0.772
-0.273
0.151
0.096
0.211
0.196
0.148
0.022
0.010
0.093
0.991
-0.210
-1.558
-0.522
0.322
0.788
0.599
0.160
-0.081
-0.100
-0.169
-0.065
-0.088
-0.034
0.113
0.121
0.116
0.062
0.061
0.119
0.060
0.019
-0.072
-0.008
0.038
-0.031
-0.010
0.021
-0.020
0.044
0.104
0.179
-0.027
-0.044
0.005
-0.039
0.114
0.055
0.054
0.044
0.009
0.126
-0.017
-0.017
0.002
-0.029
0.033
-0.030
0.026
-0.029
0.052
-0.036
0.008
-0.020
0.071
0.093
0.065
0.042
-0.001
0.094
0.060
0.050
0.075
0.066
0.118
0.060
-0.049
-0.018
0.049
-0.031
0.134
-0.013
0.004
0.120
-0.052
0.007
0.040
0.095
0.097
-0.041
-0.051
0.011
0.117
0.097
-0.255
-0.044
0.239
1.338
0.262
-1.540
-0.925
0.156
0.669
0.609
0.165
-0.005
-0.155
-0.087
-0.169
-0.127
-0.059
0.088
0.124
0.106
0.018
0.230
0.054
-0.007
0.102
0.058
0.006
0.028
0.082
-0.015
0.051
-0.003
0.018
0.070
0.057
-0.053
-0.030
0.076
0.039
0.065
0.092
0.033
0.035
0.051
-0.016
0.032
0.061
0.077
0.050
0.016
0.062
0.008
0.033
0.023
0.031
-0.001
0.045
0.046
0.078
0.013
-0.051
0.027
0.045
0.148
0.049
0.023
0.029
0.039
-0.010
-0.148
-0.087
0.155
0.127
0.105
0.011
-0.038
0.019
0.013
0.011
0.041
0.074
0.024
0.031
0.012
-0.014
0.048
-0.070
0.023
-0.021
0.038
0.155
0.571
0.900
-0.996
-1.395
-0.052
0.509
0.717
0.425
0.015
0.074
-0.306
-0.439
-0.039
0.143
0.184
0.104
0.102
0.048
0.041
-0.009
0.087
0.210
0.083
-0.042
-0.046
0.005
0.034
0.018
-0.048
-0.030
-0.051
0.035
0.054
0.053
-0.056
0.022
0.107
0.024
0.005
0.086
0.027
0.035
0.009
-0.009
-0.043
0.089
0.033
-0.039
0.016
0.047
0.042
-0.015
-0.060
0.106
0.048
0.051
0.062
0.003
0.018
0.055
0.040
0.031
0.011
0.077
0.021
0.051
0.073
0.070
-0.035
-0.000
0.306
0.545
-0.233
-0.830
-0.227
0.217
0.150
0.191
0.229
0.157
-0.102
-0.187
-0.045
-0.011
-0.025
-0.030
0.056
0.086
0.150
0.101
0.115
0.051
0.038
0.054
0.078
-0.013
-0.017
-0.081
0.029
0.079
0.141
-0.064
0.525
0.819
-1.041
-1.280
-0.107
0.588
0.734
0.346
-0.037
-0.151
-0.255
0.008
-0.005
0.005
0.001
0.129
0.032
0.023
0.225
0.130
0.035
0.008
-0.030
0.122
0.118
-0.213
-0.127
0.107
0.299
0.096
-0.025
-0.080
-0.086
0.038
0.015
0.070
0.043
0.065
0.116
0.042
0.009
-0.017
0.016
-0.032
0.021
0.187
0.002
-0.018
0.035
0.030
0.022
0.017
-0.025
0.025
0.092
-0.031
0.045
0.058
0.057
0.015
-0.009
0.080
0.136
0.056
0.068
-0.051
-0.036
0.055
0.021
0.032
0.034
-0.000
-0.061
-0.016
0.130
0.051
0.054
0.021
-0.005
0.032
0.657
0.713
-1.098
-1.216
-0.007
0.614
0.711
0.350
0.005
-0.098
-0.171
-0.132
-0.174
-0.080
0.099
0.141
0.173
0.000
0.107
0.027
0.065
-0.021
0.021
0.033
-0.029
0.060
-0.034
-0.011
0.067
0.043
0.044
0.009
0.050
-0.019
-0.054
0.023
0.118
-0.009
0.003
-0.030
0.078
0.063
-0.022
-0.029
0.008
0.109
0.071
0.040
-0.013
-0.033
0.069
0.059
0.039
0.043
0.061
0.054
0.193
-0.190
-0.315
-0.009
0.243
0.243
0.079
-0.001
-0.087
-0.052
0.018
0.034
0.091
0.042
0.002
0.072
-0.006
0.005
0.028
0.064
0.069
0.020
0.041
0.080
-0.068
0.030
0.049
0.072
0.101
-0.034
-0.077
-0.018
0.047
0.097
0.013
-0.037
-0.045
0.099
0.101
0.496
0.325
-0.575
-0.625
-0.043
0.785
1.127
-0.607
-1.263
-0.231
0.467
0.643
0.202
-0.052
-0.155
-0.073
-0.111
-0.071
0.047
0.085
0.099
0.136
0.145
0.117
0.083
0.006
0.048
0.124
-0.046
-0.050
-0.002
0.063
-0.001
0.053
-0.030
0.018
0.067
0.043
0.044
0.029
-0.009
0.050
0.058
0.065
0.046
-0.014
0.010
0.042
0.089
0.057
0.002
0.045
0.155
0.046
0.112
-0.036
-0.034
0.006
0.004
0.151
0.158
-0.274
-0.063
0.003
0.192
0.220
0.105
-0.015
-0.029
0.030
0.022
-0.009
0.046
0.092
0.073
0.014
0.054
0.111
0.044
0.025
0.002
0.021
0.074
-0.029
-0.021
-0.002
0.114
-0.045
-0.003
0.046
-0.002
0.110
0.135
1.033
0.168
-1.550
-0.820
0.236
0.716
0.710
0.224
-0.053
-0.158
-0.178
-0.097
-0.033
-0.016
0.056
0.141
0.150
0.044
0.104
0.038
0.055
0.035
-0.030
-0.057
0.016
0.017
0.084
-0.080
-0.042
0.021
0.001
0.151
0.010
0.074
0.024
0.080
0.012
0.029
-0.025
0.105
0.071
0.048
-0.063
0.032
0.048
-0.012
-0.031
-0.022
0.024
0.038
-0.001
0.101
0.027
0.025
0.084
0.041
0.047
-0.003
-0.000
0.075
0.033
0.040
-0.012
0.031
0.040
0.085
0.496
0.424
-0.622
-0.645
-0.074
0.210
0.189
0.348
0.174
0.079
0.117
-0.313
-0.326
0.352
1.241
-0.368
-1.451
-0.367
0.447
0.738
0.485
0.083
-0.068
-0.219
-0.243
0.029
-0.057
0.051
0.048
0.069
0.138
0.111
0.076
0.067
0.112
0.043
-0.072
0.011
-0.047
0.091
0.065
0.072
0.029
0.006
-0.008
-0.053
0.023
0.038
0.046
0.024
0.097
0.040
0.024
-0.013
-0.013
0.048
0.040
0.062
0.032
0.039
0.039
0.015
-0.055
0.007
0.024
0.063
-0.018
0.024
0.018
0.073
0.038
0.039
0.015
-0.043
0.025
0.016
0.022
0.005
0.035
-0.020
0.048
0.005
-0.064
0.020
0.144
0.067
0.119
0.091
0.078
0.119
-0.065
-0.062
0.045
-0.001
0.065
-0.011
0.378
1.141
-0.585
-1.661
-0.366
0.412
0.779
0.576
-0.012
-0.414
-0.203
0.001
0.106
-0.025
-0.086
0.081
0.086
0.144
0.147
0.099
0.090
0.039
0.055
0.016
-0.044
-0.064
-0.015
-0.009
0.087
0.530
0.162
-0.783
-0.446
0.079
0.241
0.162
0.343
0.081
0.027
-0.028
-0.068
-0.054
-0.024
0.012
-0.033
0.094
0.093
0.084
0.063
-0.005
0.058
0.064
-0.010
0.025
-0.037
-0.028
-0.007
0.053
0.017
-0.005
0.053
0.044
0.034
-0.013
0.058
0.032
-0.028
-0.002
-0.005
0.071
0.058
0.033
-0.008
0.046
0.048
0.017
-0.014
0.102
-0.035
0.016
0.088
-0.003
0.057
0.425
1.045
-0.626
-1.472
-0.233
0.322
0.798
0.445
0.070
-0.115
-0.119
-0.128
-0.116
-0.153
0.022
0.082
0.146
0.162
0.103
0.039
-0.021
0.122
0.085
-0.045
0.052
0.025
0.022
0.027
-0.042
0.102
0.003
0.041
0.074
0.070
0.062
-0.027
0.011
-0.002
-0.015
0.002
-0.007
0.105
0.075
0.062
0.046
0.138
-0.008
-0.322
0.006
0.300
0.216
0.098
-0.023
0.035
0.034
0.017
0.025
0.080
0.011
0.015
0.022
0.130
0.017
-0.066
0.064
0.053
0.010
0.040
0.001
-0.042
0.071
0.002
0.044
0.106
0.059
-0.057
-0.106
-0.014
0.148
0.144
0.091
-0.034
-0.048
0.077
0.019
0.022
0.010
0.009
0.158
0.030
0.472
0.972
-0.827
-1.465
-0.292
0.548
0.832
0.384
-0.017
-0.241
-0.250
-0.142
-0.023
0.012
-0.008
0.146
0.119
0.223
0.750
0.058
-0.710
-0.301
0.142
0.217
0.254
0.214
0.041
-0.046
-0.109
-0.152
-0.081
-0.024
0.082
0.030
0.061
0.063
-0.008
0.056
0.103
0.094
0.055
0.040
-0.035
0.007
0.078
0.098
-0.007
-0.078
0.053
0.079
0.051
-0.045
0.015
0.104
0.119
-0.226
-0.205
0.201
0.256
0.192
-0.028
-0.063
-0.136
0.017
0.050
0.099
0.048
0.034
0.038
0.069
0.046
0.042
-0.007
0.028
-0.018
0.022
0.058
0.056
-0.014
-0.020
0.022
0.041
0.077
0.062
0.074
0.001
0.089
-0.038
-0.011
-0.004
0.058
0.056
0.078
0.206
1.153
-0.418
-1.654
-0.409
0.385
0.725
0.526
0.077
-0.105
-0.298
-0.108
-0.077
-0.021
-0.026
0.084
0.114
0.243
0.124
0.125
0.071
0.064
-0.035
-0.014
-0.058
0.036
-0.037
0.069
-0.013
0.096
-0.069
-0.003
-0.043
0.062
0.036
0.197
0.061
-0.147
-0.038
0.049
0.048
0.026
0.032
0.093
-0.010
-0.015
0.024
0.070
-0.009
0.009
0.019
0.079
0.053
-0.049
0.043
-0.000
-0.038
0.038
-0.004
0.053
0.123
0.023
0.145
0.126
-0.058
-0.254
0.020
0.150
0.078
0.089
0.077
0.010
-0.037
-0.051
-0.027
0.063
-0.027
0.052
-0.000
0.072
0.021
0.029
0.354
0.986
-0.609
-1.422
-0.094
1.061
0.449
-0.419
-0.198
0.084
-0.012
0.065
0.198
-0.056
-0.122
-0.071
0.017
0.106
0.029
0.142
0.139
0.041
0.034
0.086
0.038
0.151
0.086
-0.036
-0.037
-0.037
-0.007
-0.039
0.107
0.085
0.027
-0.010
0.003
0.041
0.023
0.016
0.031
0.053
0.020
-0.034
0.045
0.027
0.004
0.048
0.009
0.046
0.137
0.049
-0.024
-0.019
0.004
0.031
0.109
0.024
0.047
0.045
0.024
-0.018
0.052
0.019
0.081
0.058
0.013
0.073
0.083
0.054
0.046
0.035
-0.034
0.086
0.055
0.092
0.117
-0.249
-0.182
0.093
0.288
0.207
0.056
-0.086
0.019
-0.036
-0.037
0.063
0.087
0.089
0.046
-0.008
0.054
0.050
0.060
0.018
-0.040
0.121
-0.075
-0.017
-0.095
0.256
1.176
-0.178
-1.640
-0.572
0.346
0.732
0.541
0.175
-0.129
-0.145
-0.121
-0.059
-0.087
-0.002
0.125
0.141
0.134
0.151
0.147
0.034
0.016
0.043
0.046
-0.026
-0.009
-0.043
-0.020
-0.038
0.072
0.023
0.021
0.163
0.045
0.003
-0.017
-0.089
0.010
0.043
0.108
0.042
0.081
0.052
0.027
0.060
-0.003
0.008
0.025
-0.073
-0.020
-0.074
0.131
0.115
0.185
0.048
-0.070
0.009
0.014
0.060
0.072
-0.278
-0.046
0.224
0.293
0.086
-0.061
-0.049
0.007
0.025
0.015
-0.026
0.018
0.120
0.151
0.058
0.069
0.056
0.011
0.051
0.418
1.067
-0.173
-1.248
-0.952
-0.115
0.636
0.628
0.230
0.143
-0.005
-0.174
-0.193
-0.246
-0.082
0.059
0.135
0.216
0.193
0.197
0.133
0.117
0.028
-0.032
-0.032
0.067
0.020
-0.044
-0.049
0.002
-0.051
0.068
0.018
0.022
0.129
-0.002
-0.017
0.017
0.061
0.107
0.058
0.013
0.006
-0.050
0.012
0.068
0.039
-0.011
0.045
-0.001
0.028
0.067
0.015
0.090
-0.038
0.027
-0.029
-0.024
0.056
0.142
0.069
0.087
0.032
-0.064
-0.025
-0.026
-0.007
0.049
-0.001
0.188
1.155
-0.216
-1.643
-0.625
0.374
0.777
0.558
0.119
-0.104
-0.103
-0.021
-0.494
-0.386
0.070
0.433
0.270
0.163
0.076
-0.018
-0.011
0.007
0.074
0.021
0.028
0.062
-0.023
0.074
0.028
0.048
0.029
0.061
0.006
-0.042
-0.064
0.089
-0.006
0.057
-0.066
0.028
0.040
0.040
0.091
-0.020
0.020
0.065
0.026
0.052
-0.053
0.058
0.104
0.001
-0.029
0.047
-0.020
0.014
-0.059
0.029
0.056
0.043
0.137
0.044
0.016
-0.094
-0.006
0.133
0.039
0.078
-0.003
-0.025
0.155
0.044
-0.020
0.047
0.044
0.074
0.035
0.531
0.152
-0.670
-0.537
0.101
0.257
0.167
0.282
0.162
0.002
-0.155
-0.125
-0.066
0.056
0.035
0.061
0.367
1.157
-0.500
-1.455
-0.239
0.455
0.645
0.375
0.104
-0.175
-0.168
-0.151
-0.067
-0.029
-0.013
0.034
0.166
0.246
-0.066
-0.206
0.070
0.334
0.350
0.059
-0.113
-0.076
-0.058
-0.063
-0.052
0.003
0.023
-0.018
0.030
0.044
0.166
0.112
0.007
0.002
-0.173
0.040
0.087
0.046
0.068
0.052
0.072
-0.040
0.048
-0.004
0.045
0.110
-0.020
0.020
0.067
0.002
0.117
0.035
0.044
0.038
0.022
-0.013
0.045
0.034
0.073
-0.040
0.038
0.040
-0.028
0.022
-0.060
0.029
0.020
0.076
0.136
0.020
0.054
0.025
0.012
0.011
0.042
0.098
0.038
0.036
0.083
0.002
-0.039
0.024
0.035
0.063
0.884
0.505
-1.347
-1.105
0.140
0.659
0.663
0.228
0.129
-0.273
-0.444
-0.119
0.176
0.127
0.124
-0.035
-0.012
0.138
0.208
0.068
0.104
0.029
0.033
0.395
0.405
-0.473
-0.699
-0.101
0.206
0.193
0.118
0.147
0.058
-0.047
-0.020
-0.144
-0.079
0.025
0.027
0.119
0.066
0.085
0.016
0.108
0.011
0.054
0.063
0.034
0.080
-0.018
0.012
0.074
0.064
0.014
-0.032
-0.013
0.010
0.066
-0.001
-0.049
-0.009
0.106
-0.033
0.056
0.069
-0.009
0.048
-0.000
0.025
0.016
0.053
0.117
0.035
-0.034
-0.073
0.037
0.243
0.156
0.740
0.607
-1.315
-1.118
-0.064
0.581
0.714
0.295
0.008
-0.125
-0.176
-0.106
-0.067
-0.012
-0.020
0.080
0.088
0.152
0.051
-0.015
0.093
0.061
0.084
-0.012
-0.058
0.012
0.103
0.001
0.031
0.025
0.065
-0.007
0.052
0.008
0.141
0.063
0.036
0.036
0.085
-0.035
0.097
0.015
-0.314
-0.087
0.253
0.308
0.102
-0.021
-0.108
-0.054
-0.006
0.019
0.054
0.065
0.007
0.046
0.059
0.033
0.064
0.030
0.059
0.003
-0.068
0.041
0.016
0.040
0.042
-0.034
0.048
0.047
0.054
0.045
-0.047
0.003
0.070
0.084
-0.030
-0.002
0.019
0.023
-0.038
0.049
0.021
0.050
0.001
0.060
-0.005
-0.010
-0.025
0.108
0.098
0.136
0.034
-0.056
0.084
0.546
0.125
-0.749
-0.496
0.240
1.290
0.139
-1.479
-0.571
0.376
0.595
0.437
0.028
-0.139
-0.078
-0.162
-0.079
-0.042
0.068
0.086
0.164
0.250
0.119
0.083
-0.006
-0.025
-0.017
-0.010
0.007
0.099
0.069
-0.243
-0.122
0.267
0.293
0.137
-0.050
-0.101
0.007
0.073
0.042
-0.021
0.049
0.067
0.083
-0.051
-0.066
0.061
-0.023
0.019
0.070
0.028
-0.006
0.018
0.072
0.026
0.022
0.102
0.044
0.023
-0.041
0.031
0.044
0.037
0.061
-0.003
0.107
-0.121
-0.023
-0.057
-0.018
0.260
0.111
0.006
0.055
0.050
0.008
-0.037
0.040
0.023
0.071
0.993
0.264
-1.485
-0.880
0.342
0.692
0.562
0.167
-0.078
-0.202
-0.184
-0.135
-0.058
-0.025
0.007
0.116
0.224
0.136
0.071
-0.055
0.017
0.055
0.067
0.011
-0.022
-0.031
0.093
-0.003
0.035
0.085
0.042
-0.027
-0.053
-0.022
0.007
0.087
0.037
-0.105
0.037
0.017
0.049
0.063
0.018
0.016
0.108
-0.016
0.015
-0.010
0.115
-0.004
-0.019
-0.007
0.039
0.035
0.040
0.051
0.010
0.026
0.040
0.472
0.278
-0.706
-0.672
0.160
0.449
0.259
0.143
0.063
-0.067
-0.072
-0.066
-0.093
-0.048
0.025
0.104
0.153
0.125
0.145
0.051
0.122
-0.054
0.337
1.090
-0.684
-1.517
-0.339
0.538
0.792
0.439
0.004
-0.227
-0.290
-0.172
-0.051
0.047
-0.001
0.088
0.166
0.019
0.091
0.091
0.064
0.114
0.005
0.086
-0.052
-0.035
0.080
0.049
-0.001
0.011
0.031
0.039
0.015
0.009
0.023
0.076
-0.003
0.029
-0.058
0.087
0.051
0.052
-0.012
0.006
-0.009
0.046
0.012
0.041
0.008
0.042
0.130
-0.004
0.060
-0.031
0.018
-0.011
-0.002
0.122
0.041
0.006
-0.076
-0.037
0.006
0.043
0.093
0.090
0.049
0.048
-0.030
0.014
0.029
0.105
0.059
-0.001
0.156
0.052
-0.039
-0.043
0.051
0.045
0.049
-0.034
0.022
0.055
0.513
1.080
-0.872
-1.513
-0.149
0.601
0.724
0.378
0.053
-0.087
-0.184
-0.085
-0.148
-0.359
0.002
0.143
0.403
0.272
0.034
-0.030
-0.020
-0.003
-0.027
0.069
0.079
-0.023
0.116
-0.007
-0.039
0.032
0.002
0.041
0.041
-0.027
0.038
0.049
0.052
0.032
0.045
0.082
0.053
0.068
0.071
0.040
-0.024
0.004
0.123
0.509
0.187
-0.856
-0.496
0.163
0.213
0.169
0.313
0.070
-0.100
-0.129
-0.014
-0.020
0.062
-0.043
0.036
0.050
0.140
0.060
0.064
0.042
0.057
-0.006
0.038
-0.013
0.083
-0.016
0.013
0.001
0.003
0.016
0.027
0.098
0.068
0.076
0.071
-0.062
-0.016
-0.035
0.110
0.059
0.047
0.017
0.052
0.053
-0.033
-0.044
0.131
0.014
0.013
0.013
0.113
0.508
1.030
-0.793
-1.590
-0.265
0.504
0.726
0.436
0.139
-0.082
-0.146
-0.181
-0.121
0.058
-0.059
-0.210
-0.006
0.319
0.347
0.143
-0.031
-0.081
-0.095
0.182
0.030
0.035
0.078
0.116
0.001
-0.044
-0.034
0.046
0.066
0.073
-0.062
0.056
0.002
0.039
0.071
-0.039
-0.058
-0.031
0.116
0.158
0.024
-0.011
0.025
0.051
0.051
-0.005
0.027
0.010
-0.037
0.123
0.087
0.026
0.063
-0.026
-0.028
0.048
0.030
0.016
0.023
0.116
0.031
0.033
0.008
0.036
0.052
0.003
0.007
0.069
-0.034
0.069
0.022
0.057
-0.009
0.107
0.038
-0.027
0.470
1.017
-0.793
-1.482
-0.262
0.569
0.768
0.435
0.054
-0.183
-0.183
-0.207
-0.109
0.046
-0.042
0.147
0.157
0.119
0.065
0.151
0.060
-0.018
-0.044
0.053
0.121
0.509
0.246
-0.682
-0.586
0.111
0.204
0.122
0.259
0.312
0.006
-0.105
-0.102
-0.074
0.012
0.043
0.104
0.097
0.104
0.139
0.027
0.109
0.018
0.079
0.062
0.028
-0.020
0.006
-0.015
-0.049
0.037
0.076
-0.017
0.077
0.017
-0.035
0.070
0.094
0.058
0.007
0.019
0.235
-0.127
-0.248
-0.036
0.259
0.342
-0.014
-0.068
-0.079
-0.082
-0.022
0.076
0.068
0.117
0.112
0.049
-0.004
-0.027
-0.012
-0.006
0.051
-0.031
0.053
0.015
0.136
0.549
0.958
-1.031
-1.488
-0.077
0.668
0.782
0.418
0.000
-0.134
-0.149
-0.125
-0.108
0.007
0.042
0.134
0.199
0.150
-0.018
0.022
0.084
0.111
0.020
0.041
0.005
-0.006
0.038
-0.035
-0.032
-0.029
0.001
0.057
0.010
0.078
-0.048
0.118
0.043
-0.006
0.007
0.004
0.092
0.082
-0.096
-0.025
0.023
0.025
-0.040
0.085
0.008
0.033
0.046
0.064
0.135
0.037
0.021
0.037
0.060
0.049
0.021
0.034
-0.039
0.048
0.108
-0.004
-0.012
-0.003
0.049
0.105
0.009
-0.008
-0.031
0.087
0.051
-0.001
0.035
0.018
-0.017
0.059
0.120
-0.030
0.026
0.059
0.087
0.030
0.013
0.056
-0.006
0.070
0.246
-0.196
-0.217
0.025
0.205
0.220
0.048
-0.038
0.223
1.043
-0.579
-1.524
-0.354
0.554
0.687
0.475
0.028
-0.143
-0.198
-0.224
-0.117
0.009
0.092
0.120
0.169
0.133
0.119
0.050
0.105
0.021
-0.021
0.022
0.017
-0.028
-0.008
0.035
0.120
-0.004
0.032
0.016
0.072
0.055
-0.010
0.040
0.004
0.021
-0.003
-0.004
0.070
0.055
0.026
-0.049
0.011
-0.012
0.095
-0.009
0.059
0.036
0.021
0.018
0.058
-0.008
-0.020
0.053
0.067
0.307
0.615
-0.356
-0.741
-0.247
0.176
0.069
0.204
0.246
0.189
0.075
-0.036
-0.053
-0.053
-0.077
-0.051
0.067
0.102
0.038
0.162
0.050
0.030
0.064
0.081
0.100
-0.037
-0.248
-0.117
0.189
0.210
0.035
0.067
0.959
0.041
-1.462
-0.701
0.388
0.657
0.591
0.208
-0.124
-0.134
-0.164
-0.072
-0.065
-0.025
0.040
0.105
0.052
0.068
0.084
0.047
0.105
0.126
-0.025
0.019
0.010
0.074
0.050
0.013
0.016
0.054
-0.016
0.017
-0.023
0.035
0.092
-0.029
0.036
0.052
0.053
0.092
0.091
-0.031
0.022
0.114
-0.003
0.067
0.028
0.000
0.004
0.015
-0.049
-0.018
0.004
0.023
0.120
0.030
0.103
0.079
0.064
-0.008
-0.008
0.062
0.018
0.136
0.057
0.011
0.031
-0.014
-0.040
0.060
0.055
0.104
-0.051
-0.004
0.055
0.080
-0.047
-0.047
0.029
0.223
0.045
0.033
-0.024
0.051
0.032
-0.036
-0.040
0.043
0.632
0.896
-0.796
-1.591
-0.352
0.607
0.952
0.492
-0.006
-0.192
-0.203
-0.202
-0.066
-0.112
-0.035
0.188
0.251
0.179
0.135
0.060
-0.017
-0.013
-0.018
0.037
-0.012
0.099
0.049
0.011
-0.062
0.084
-0.044
0.028
0.058
0.104
-0.008
-0.037
0.077
0.021
0.073
0.014
0.072
0.033
-0.030
0.003
0.081
0.052
-0.014
0.042
0.076
0.027
0.023
0.053
0.085
0.034
0.047
-0.031
0.092
0.002
-0.035
0.054
-0.032
0.047
0.022
0.043
0.011
0.023
0.150
-0.029
0.014
0.002
0.033
0.046
0.036
0.032
0.046
-0.023
0.104
0.290
0.603
-0.191
-0.760
-0.214
0.231
0.139
0.230
0.707
1.070
-1.019
-1.556
-0.269
0.484
0.633
0.355
0.043
-0.096
0.011
-0.063
-0.331
-0.015
0.282
0.394
0.048
0.062
-0.046
-0.010
0.018
0.013
0.105
0.117
-0.014
0.024
-0.028
-0.017
-0.147
0.032
0.017
0.026
-0.027
0.159
0.036
0.051
-0.031
0.114
0.109
-0.024
-0.019
0.034
0.057
0.025
0.004
-0.044
0.032
0.080
-0.022
-0.056
0.038
0.057
0.033
0.074
0.033
0.014
0.013
-0.036
0.009
0.055
-0.032
0.009
-0.039
-0.028
0.003
0.018
0.052
0.039
0.191
0.082
0.102
0.040
-0.054
-0.032
-0.003
0.134
-0.030
0.055
-0.112
0.040
0.157
0.044
0.048
0.006
-0.042
-0.027
-0.080
-0.049
0.106
0.065
0.204
0.875
0.195
-1.386
-0.874
0.238
0.672
0.620
0.238
-0.081
-0.178
-0.187
-0.044
-0.263
-0.125
0.092
0.323
0.259
0.108
0.060
-0.028
-0.043
0.046
0.065
0.042
-0.004
-0.017
0.008
-0.064
0.056
0.033
-0.058
0.001
-0.060
0.012
0.087
0.040
0.023
0.384
0.502
-0.412
-0.750
-0.132
0.263
0.194
0.231
0.252
0.101
-0.095
-0.115
-0.079
-0.050
-0.010
-0.003
-0.003
0.140
0.106
0.049
0.101
0.102
-0.017
0.088
-0.012
-0.040
0.009
0.059
0.015
0.094
-0.044
-0.006
-0.045
0.035
0.086
0.028
0.011
-0.024
-0.049
0.023
0.070
0.067
-0.011
0.101
0.088
0.016
-0.002
0.047
0.038
0.044
-0.029
0.113
0.097
0.059
0.066
0.032
0.024
0.002
-0.051
0.095
0.064
-0.027
0.013
-0.046
0.134
0.879
0.469
-1.347
-0.996
0.183
0.561
0.565
0.187
0.019
-0.071
-0.194
-0.070
-0.031
-0.011
0.040
0.176
0.117
0.090
0.059
0.208
0.033
-0.128
0.042
0.211
0.187
-0.006
-0.058
-0.055
-0.007
-0.023
0.014
0.088
0.108
0.014
0.152
-0.045
0.011
-0.008
0.048
-0.023
0.016
-0.030
0.099
0.066
0.054
-0.023
0.035
0.020
0.007
0.037
-0.033
0.047
0.071
0.004
0.038
0.039
0.043
-0.054
0.081
0.044
0.114
0.007
-0.056
-0.039
0.037
0.028
0.026
0.062
0.101
0.101
-0.030
-0.011
0.001
-0.019
0.101
0.134
1.087
-0.073
-1.450
-0.796
0.421
1.387
0.461
-0.752
-0.463
-0.007
0.034
0.032
0.160
0.098
0.001
0.011
-0.031
0.006
0.082
-0.020
0.170
0.094
0.108
0.079
0.004
0.008
0.083
0.062
0.042
-0.047
0.004
-0.065
-0.001
0.003
0.031
0.034
0.065
-0.000
-0.002
0.058
0.020
0.043
0.040
0.065
-0.013
0.110
0.091
-0.260
-0.136
0.183
0.234
0.147
0.034
0.007
-0.092
0.033
0.074
-0.000
0.097
0.018
-0.009
0.035
-0.004
0.061
0.033
0.005
0.096
0.030
-0.049
-0.050
0.060
0.027
0.064
0.095
-0.024
0.081
-0.014
0.018
0.016
0.074
0.177
0.073
-0.022
-0.069
0.009
0.079
-0.045
0.033
0.063
0.096
0.060
0.000
-0.045
0.019
-0.038
0.059
0.032
0.049
0.018
0.062
0.023
0.040
-0.008
-0.013
0.018
0.140
0.012
-0.021
-0.015
-0.029
0.174
0.059
0.058
1.015
-0.006
-1.474
-0.691
0.217
0.757
0.597
0.175
-0.085
-0.136
-0.194
-0.106
-0.091
0.040
0.060
0.094
0.092
0.168
0.029
0.105
0.090
-0.066
0.008
0.060
0.000
0.072
-0.008
0.042
0.054
0.019
0.053
0.033
0.032
0.065
-0.013
0.157
-0.012
-0.264
-0.051
0.330
0.127
0.066
0.003
-0.053
-0.059
0.009
0.048
0.045
0.048
0.086
0.022
0.013
0.033
0.065
-0.027
0.095
0.047
0.092
-0.024
-0.065
0.094
0.090
0.027
-0.018
0.031
0.016
0.027
0.043
0.039
-0.012
-0.001
0.048
0.125
0.014
0.031
0.032
0.007
0.587
1.392
-0.585
-2.017
-0.765
0.468
0.957
0.495
0.119
-0.021
-0.169
-0.212
-0.128
-0.046
-0.020
0.083
0.125
0.138
0.123
0.140
0.150
0.080
0.097
0.089
-0.025
-0.100
0.016
0.006
-0.002
0.067
0.012
0.013
-0.055
-0.080
0.002
0.104
0.132
0.011
0.018
-0.050
-0.051
0.100
0.046
0.035
0.066
0.030
0.019
0.040
0.002
0.011
0.003
-0.003
0.089
-0.032
-0.039
0.073
0.158
0.119
0.022
0.042
-0.186
-0.172
-0.032
0.359
0.209
0.142
-0.083
-0.033
-0.019
-0.085
0.049
0.140
0.070
0.106
0.026
0.034
0.030
0.025
0.025
0.029
-0.017
0.015
-0.015
-0.019
0.056
0.034
0.079
0.074
0.023
0.013
0.026
0.041
0.093
0.949
0.278
-1.374
-0.946
0.267
0.621
0.533
0.137
-0.054
-0.167
-0.150
-0.064
-0.019
-0.078
0.131
0.081
0.190
0.041
0.100
-0.023
0.028
0.122
0.023
-0.050
0.047
0.016
0.052
0.029
0.005
-0.019
0.026
0.004
0.065
0.065
0.126
-0.026
-0.034
-0.075
0.051
0.051
-0.013
0.020
0.145
-0.067
0.004
0.070
0.050
-0.036
0.086
0.067
0.073
-0.015
0.050
-0.051
0.090
0.017
-0.000
0.025
0.065
-0.012
0.036
0.040
0.085
-0.052
0.028
0.029
0.042
0.058
0.071
0.022
0.029
-0.019
-0.001
0.029
0.044
-0.002
0.129
-0.024
0.011
0.137
0.619
0.797
-0.931
-1.508
-0.386
0.523
0.907
0.591
0.048
-0.159
-0.287
-0.239
-0.094
-0.047
0.146
0.173
0.110
0.054
0.207
0.050
0.037
-0.020
0.043
-0.057
0.516
0.268
-0.646
-0.504
0.095
0.213
0.241
0.095
0.169
0.029
-0.043
0.043
-0.044
0.007
-0.016
-0.000
-0.035
0.082
0.064
0.045
0.081
0.103
-0.008
0.015
-0.066
0.083
0.017
0.025
0.042
-0.027
-0.097
0.022
0.064
0.104
-0.016
0.024
0.019
0.068
0.118
0.040
0.047
0.025
-0.057
0.020
-0.042
0.140
0.151
-0.022
-0.038
0.240
1.045
-0.347
-1.435
-0.463
0.369
0.666
0.531
0.149
-0.192
-0.220
-0.133
-0.010
-0.059
0.019
0.077
0.132
0.192
0.087
0.131
0.101
-0.002
0.006
0.041
0.105
0.101
0.016
-0.031
-0.074
0.081
0.095
0.099
-0.015
-0.254
-0.006
0.180
0.225
0.023
-0.049
-0.042
-0.018
0.004
0.078
0.020
0.049
0.002
0.025
0.007
0.043
0.032
-0.021
0.041
-0.016
0.026
0.043
-0.049
0.026
0.087
0.008
-0.006
0.030
0.344
0.723
-0.202
-0.824
-0.247
0.268
0.150
0.240
0.233
0.137
-0.114
-0.142
0.424
0.745
-1.049
-1.256
0.021
0.601
0.733
0.417
0.073
-0.085
-0.251
-0.151
-0.135
-0.020
0.106
0.104
0.223
0.081
0.039
0.060
0.045
-0.039
-0.017
0.113
0.068
0.057
0.071
-0.036
-0.011
-0.133
-0.056
0.018
0.111
0.024
0.199
0.033
-0.297
-0.081
0.240
0.152
0.068
-0.006
-0.026
-0.060
-0.013
-0.024
0.041
-0.006
0.090
0.114
0.065
-0.001
0.068
0.029
-0.024
0.027
0.045
0.028
-0.006
0.032
0.003
0.033
0.041
0.059
0.160
0.016
0.060
0.011
-0.017
0.128
-0.004
-0.069
0.300
1.064
-0.486
-1.542
-0.264
0.437
0.770
0.533
0.072
-0.123
-0.132
-0.195
-0.101
-0.104
0.031
0.036
0.188
0.076
0.079
0.082
0.120
-0.005
-0.005
0.051
0.043
0.056
0.122
0.632
0.097
-0.771
-0.395
0.071
0.251
0.122
0.223
0.111
-0.019
-0.123
-0.046
-0.073
-0.025
-0.010
0.055
0.123
0.120
0.138
0.066
0.068
0.001
0.084
0.022
0.070
0.070
0.041
-0.042
0.086
0.050
-0.031
0.166
-0.025
-0.310
-0.052
0.198
0.240
0.136
0.066
-0.124
-0.028
0.009
0.101
0.081
-0.063
0.014
0.121
0.086
0.128
-0.035
-0.018
0.033
0.032
0.017
0.019
-0.012
-0.045
-0.009
0.045
0.036
0.222
0.921
0.078
-1.454
-0.687
0.173
0.530
0.559
0.412
-0.064
-0.112
-0.187
-0.141
-0.048
-0.060
0.052
0.152
0.074
0.137
0.012
-0.008
0.081
-0.027
-0.031
0.001
0.041
0.031
0.059
0.027
-0.141
0.012
0.073
0.065
0.055
0.048
0.017
-0.001
0.079
-0.024
0.036
0.078
0.002
0.024
-0.028
-0.046
-0.022
-0.014
0.056
0.007
0.018
0.114
0.032
0.004
0.044
0.045
-0.031
0.001
0.074
0.063
0.002
0.031
-0.025
0.003
0.054
-0.010
-0.006
-0.081
0.002
0.098
0.070
0.092
-0.015
-0.108
0.028
0.050
0.127
0.098
-0.272
-0.032
0.174
0.287
0.169
-0.094
-0.052
-0.006
0.009
0.010
0.030
0.084
-0.016
-0.043
0.011
0.036
0.108
-0.005
0.007
-0.020
0.020
0.025
0.050
0.060
0.099
0.458
0.963
-0.776
-1.163
0.403
0.467
-0.190
-0.124
0.221
0.084
0.025
0.047
0.068
-0.010
-0.096
-0.007
-0.004
0.137
0.098
0.052
0.064
0.068
0.022
0.085
-0.054
0.032
0.036
0.095
-0.024
0.025
-0.048
-0.010
-0.048
0.072
0.089
0.011
0.076
0.043
0.014
-0.005
0.059
0.015
0.049
0.021
0.150
0.079
0.039
0.009
-0.026
-0.068
-0.055
0.044
0.024
0.098
0.073
0.003
0.084
-0.043
-0.034
0.028
0.013
0.076
0.005
0.021
0.115
0.025
-0.075
-0.033
0.028
0.045
0.041
0.064
0.046
0.078
0.061
0.004
0.067
0.081
-0.007
-0.002
-0.044
0.030
0.257
1.174
-0.438
-1.749
-0.380
0.619
0.877
0.502
0.059
-0.122
-0.224
-0.208
-0.088
-0.088
0.060
0.222
0.073
0.070
0.125
0.062
0.025
0.004
0.043
0.003
0.068
0.038
-0.048
0.033
-0.018
-0.051
0.068
-0.039
0.092
-0.009
0.045
0.097
0.094
-0.036
0.109
0.487
0.357
-0.610
-0.505
0.060
0.184
0.081
0.122
0.176
0.108
-0.148
-0.080
0.003
0.052
-0.069
-0.074
0.069
0.148
0.185
0.093
0.002
0.037
-0.018
-0.024
-0.021
0.048
0.013
0.023
0.086
-0.021
0.028
0.096
-0.002
0.014
-0.009
0.059
0.091
-0.024
-0.002
-0.031
0.080
-0.030
0.041
0.030
-0.014
0.010
-0.022
0.050
0.051
-0.072
-0.071
0.579
0.886
-0.802
-1.343
-0.140
0.607
0.708
0.040
-0.062
0.093
0.016
-0.107
-0.174
-0.131
-0.006
0.098
0.088
0.139
0.073
0.157
0.051
0.050
-0.012
0.032
-0.118
0.040
0.040
0.057
0.074
0.048
0.017
0.008
0.000
-0.008
0.026
0.010
0.060
0.116
0.003
0.064
-0.039
0.015
0.032
0.002
-0.013
0.045
0.051
0.019
-0.003
0.021
-0.029
0.087
0.108
0.009
-0.040
0.099
0.035
0.016
-0.006
0.068
0.034
0.100
0.031
-0.018
0.035
0.447
0.530
-0.488
-0.685
-0.073
0.207
0.118
0.211
0.222
0.038
-0.117
-0.111
-0.073
0.038
0.023
0.074
0.044
0.143
0.134
0.087
0.048
0.336
1.117
-0.232
-1.526
-0.556
0.451
0.704
0.409
0.068
-0.176
-0.261
-0.095
-0.020
-0.029
0.068
0.144
-0.112
0.021
0.205
0.288
0.179
-0.038
-0.031
-0.047
-0.036
0.012
0.094
0.091
0.023
0.051
0.084
-0.047
-0.016
0.015
0.035
0.046
0.039
0.053
0.058
-0.004
0.020
0.054
0.078
0.041
0.045
0.058
-0.010
-0.044
0.008
0.090
0.043
0.080
0.073
-0.007
0.082
0.062
-0.004
-0.021
-0.065
0.062
0.118
0.070
0.024
-0.006
0.006
-0.012
0.038
0.046
-0.014
0.022
0.131
0.054
0.002
0.064
-0.038
-0.050
0.009
0.044
0.047
0.036
0.088
0.008
-0.009
0.042
-0.001
0.181
0.027
-0.243
-0.023
0.192
0.158
0.059
0.035
0.001
0.737
0.469
-1.217
-0.865
0.177
0.654
0.587
0.180
-0.107
-0.231
-0.224
-0.057
-0.109
-0.048
0.165
0.100
0.105
0.166
0.070
0.061
0.040
0.031
-0.043
0.010
0.068
-0.030
0.092
0.003
0.042
-0.007
-0.006
0.112
-0.038
0.030
0.049
0.113
0.092
-0.084
0.010
-0.003
0.046
0.039
-0.046
0.021
0.044
0.053
0.032
0.055
0.048
0.081
0.011
0.010
-0.023
0.093
0.053
0.048
0.051
0.093
0.035
0.040
0.001
0.065
0.493
0.162
-0.715
-0.411
0.013
0.179
0.196
0.206
0.095
0.040
-0.043
-0.053
-0.108
-0.027
0.069
0.060
0.040
0.098
0.128
0.114
0.051
0.073
0.051
0.014
0.064
0.012
-0.027
0.004
0.026
0.048
-0.086
0.181
1.130
-0.436
-1.467
-0.373
0.426
0.495
0.116
0.118
0.108
0.065
-0.019
-0.150
-0.202
-0.068
0.018
0.186
0.038
0.025
0.117
0.157
0.139
0.014
0.012
0.038
-0.027
0.020
-0.107
-0.010
0.037
0.019
0.039
-0.015
-0.010
0.057
-0.009
0.003
0.042
0.174
0.020
-0.006
-0.032
0.138
0.027
0.025
0.005
0.057
-0.013
-0.059
0.089
0.070
0.020
0.057
-0.011
0.090
-0.026
0.003
0.059
0.022
0.067
0.046
0.019
-0.025
-0.119
-0.034
-0.002
0.111
0.065
0.119
0.040
-0.051
0.003
-0.030
-0.032
0.088
0.059
0.139
0.193
0.177
-0.026
-0.395
0.033
0.176
0.190
0.082
0.361
0.914
-0.749
-1.449
-0.147
0.517
0.749
0.415
0.019
-0.079
-0.031
-0.147
-0.129
-0.087
0.009
0.082
0.140
0.265
0.084
0.114
0.040
0.002
0.026
0.009
0.000
0.049
0.013
0.097
-0.126
0.028
0.002
-0.017
0.064
-0.011
0.054
0.010
0.057
0.069
0.085
-0.001
0.044
0.054
0.024
0.002
-0.052
0.044
0.071
0.014
0.046
0.041
0.060
0.041
0.027
0.032
-0.020
0.136
0.574
0.010
-0.815
-0.280
0.222
0.183
0.247
0.227
0.139
-0.067
-0.100
-0.061
0.015
-0.026
0.044
0.041
0.077
0.050
0.038
0.046
0.024
0.111
0.047
0.057
-0.050
-0.062
0.009
0.022
0.081
0.007
0.004
0.097
0.039
-0.035
-0.023
-0.018
0.065
0.179
-0.228
-0.229
0.281
1.143
0.470
-1.365
-0.961
0.068
0.589
0.537
0.234
-0.022
-0.117
-0.132
-0.166
-0.075
0.097
-0.020
0.071
0.120
0.190
0.235
0.110
-0.057
-0.038
-0.017
-0.034
0.047
0.030
-0.003
0.031
0.006
0.040
0.105
0.005
-0.012
0.024
-0.018
0.058
0.090
0.016
-0.010
0.012
0.088
0.044
0.027
-0.029
0.080
0.076
0.039
0.015
0.005
-0.003
0.074
-0.004
0.072
-0.007
-0.001
0.070
0.045
0.066
0.052
-0.028
0.085
0.022
0.011
0.076
-0.017
0.052
0.045
0.013
0.085
-0.021
0.007
0.001
0.076
0.039
0.065
0.012
0.038
0.020
0.051
0.041
0.081
0.020
-0.082
-0.055
0.081
0.466
0.961
-0.628
-1.451
-0.259
0.523
0.729
0.350
0.069
-0.132
-0.240
-0.189
-0.002
0.086
-0.076
-0.247
0.100
0.346
0.380
0.469
0.388
-0.480
-0.790
-0.072
0.217
0.226
0.235
0.138
0.019
-0.089
-0.142
-0.058
-0.071
0.024
0.043
0.120
0.038
0.036
-0.003
0.035
0.043
0.019
-0.014
0.112
-0.046
0.012
0.051
0.010
0.021
0.076
0.041
0.017
-0.064
0.043
0.040
0.046
-0.004
0.044
0.110
0.006
0.050
-0.034
-0.044
0.107
-0.018
0.077
-0.036
-0.031
0.140
-0.004
0.054
-0.034
0.033
0.029
0.049
0.107
0.039
-0.009
0.109
0.028
0.059
-0.034
-0.034
-0.000
-0.032
-0.033
0.004
0.096
0.187
0.078
0.062
-0.004
-0.014
-0.021
0.754
0.568
-1.217
-1.009
0.155
0.547
0.627
0.290
-0.014
-0.123
-0.140
-0.133
-0.084
0.008
0.048
0.134
0.233
0.090
-0.211
0.016
0.273
0.305
0.077
-0.127
-0.107
-0.035
-0.046
0.039
0.041
0.043
0.027
0.059
0.136
-0.032
-0.031
-0.004
-0.004
0.159
0.042
0.016
0.063
-0.017
0.068
0.035
0.005
0.029
0.030
0.006
-0.012
-0.004
0.032
-0.022
0.127
0.009
0.043
0.057
0.058
0.029
-0.021
0.035
0.020
0.059
-0.018
0.016
0.111
0.011
0.013
0.129
-0.034
0.063
0.028
0.037
0.122
0.531
0.030
-0.841
-0.356
0.206
0.149
0.177
0.223
0.173
-0.104
-0.027
-0.088
0.005
-0.049
0.574
0.865
-0.933
-1.260
-0.011
0.666
0.747
0.403
-0.026
-0.113
-0.166
-0.149
-0.111
-0.068
0.061
0.143
0.142
0.159
0.181
0.024
-0.001
0.000
-0.012
0.092
0.005
0.057
-0.063
0.025
-0.039
0.022
0.071
-0.003
0.043
0.022
-0.004
0.072
0.016
0.089
0.135
0.045
-0.267
-0.016
0.246
0.280
0.063
-0.076
-0.091
-0.068
0.068
0.056
-0.011
0.015
0.070
0.145
0.016
0.051
-0.067
0.049
0.083
0.101
0.015
-0.061
-0.031
-0.007
0.123
0.103
-0.006
0.053
0.063
0.116
0.059
0.012
-0.036
-0.029
0.084
0.043
-0.033
0.114
0.040
-0.027
0.086
0.080
-0.003
-0.033
0.037
0.021
-0.014
0.062
0.021
-0.018
0.096
0.059
0.085
0.035
0.037
0.041
0.058
0.013
-0.042
-0.017
-0.030
-0.062
0.029
0.075
0.014
0.016
0.042
0.076
0.011
-0.007
0.129
1.031
0.092
-1.572
-0.718
0.309
0.699
0.563
0.133
-0.041
-0.147
-0.035
-0.101
-0.098
-0.105
0.156
0.112
0.026
0.049
0.171
0.092
0.123
0.002
0.069
-0.021
-0.015
0.095
-0.006
-0.293
-0.063
0.167
0.328
-0.024
-0.089
-0.086
-0.020
0.096
-0.009
0.086
0.026
0.086
0.040
-0.050
0.098
0.013
0.002
0.356
0.446
-0.531
-0.686
-0.102
0.160
0.125
0.366
0.197
0.078
-0.027
-0.087
-0.113
-0.087
-0.004
0.052
0.076
0.094
0.015
0.092
0.116
0.103
-0.008
0.063
-0.029
-0.012
-0.028
0.004
0.029
0.063
0.076
0.091
-0.001
-0.090
-0.036
0.032
0.105
0.030
0.142
0.020
0.070
0.073
0.037
-0.039
-0.076
0.034
0.045
0.071
0.047
0.066
0.061
0.029
0.016
-0.025
0.038
0.050
0.006
0.004
0.046
0.055
0.177
0.120
-0.007
-0.009
0.009
-0.035
0.012
0.029
0.014
0.050
0.144
0.978
-0.099
-1.420
-0.563
0.275
0.660
0.378
0.048
0.019
-0.101
-0.102
-0.095
-0.058
-0.036
0.003
0.128
0.210
0.184
0.159
0.180
-0.204
-0.061
0.235
0.161
0.080
-0.050
-0.030
-0.066
-0.027
0.001
0.095
0.021
-0.010
0.024
0.010
0.010
0.044
0.023
-0.006
0.002
0.039
0.063
0.003
-0.014
0.018
-0.065
0.141
-0.008
0.077
0.036
0.057
0.010
0.051
0.032
-0.023
-0.005
0.074
-0.022
0.085
0.017
0.030
-0.020
-0.035
-0.001
0.121
0.082
0.028
0.007
0.045
-0.004
0.009
0.006
0.033
-0.013
0.025
0.073
0.134
0.002
0.066
0.035
0.030
-0.017
-0.074
0.072
0.004
0.075
-0.005
-0.021
0.210
1.064
-0.241
-1.508
-0.537
0.530
0.605
0.439
-0.052
0.049
-0.031
-0.101
0.071
0.486
-0.355
-0.644
-0.085
0.408
0.261
0.243
0.156
0.089
-0.094
-0.082
-0.067
-0.247
-0.109
0.146
0.360
0.160
-0.080
-0.035
0.003
0.162
0.065
0.027
0.025
-0.002
0.005
0.054
0.006
-0.011
-0.065
-0.069
-0.035
0.055
-0.063
-0.025
0.130
0.170
0.116
0.068
0.005
-0.023
-0.059
0.092
0.042
-0.012
0.078
-0.026
0.172
0.073
-0.032
-0.014
0.035
0.032
-0.057
0.003
-0.047
-0.011
0.127
0.049
0.044
0.069
-0.014
0.052
-0.010
0.080
0.049
-0.038
0.071
-0.012
0.010
-0.022
-0.009
0.001
0.015
0.069
0.064
0.016
0.042
0.123
1.088
-0.190
-1.460
-0.574
0.287
0.650
0.530
0.172
-0.050
-0.111
-0.231
-0.096
-0.085
0.053
0.114
0.113
0.113
0.122
0.056
0.078
0.009
0.081
-0.005
0.054
0.151
-0.132
-0.305
-0.043
0.298
0.228
0.061
-0.082
-0.107
-0.076
-0.020
0.049
0.062
0.103
0.039
0.045
0.075
0.029
-0.017
0.008
-0.019
-0.015
0.089
-0.022
0.017
-0.056
0.024
0.100
0.045
0.100
-0.017
-0.019
0.045
0.052
0.046
-0.011
0.045
0.055
0.019
0.043
0.028
0.015
0.084
0.009
0.030
-0.006
0.132
-0.012
-0.005
0.044
-0.006
0.041
0.032
-0.004
0.128
-0.042
0.108
0.126
0.020
0.024
0.027
-0.033
-0.012
0.023
0.072
0.056
0.056
0.013
0.044
-0.027
0.023
0.038
0.022
0.030
0.042
-0.025
0.070
0.768
0.823
-0.969
-1.230
-0.088
0.592
0.602
0.246
-0.035
-0.182
-0.168
-0.018
0.418
0.217
-0.584
-0.545
0.097
0.324
0.240
0.262
0.212
0.012
-0.048
-0.147
-0.067
0.077
-0.050
-0.219
0.134
0.361
0.212
0.116
0.024
-0.075
-0.006
0.008
0.035
0.046
0.057
0.121
-0.065
-0.033
0.067
-0.023
0.032
-0.012
0.051
0.135
-0.031
-0.001
-0.005
0.028
0.102
0.091
0.071
0.021
0.001
0.063
-0.089
-0.009
0.034
0.078
0.134
0.067
-0.045
0.026
0.005
0.093
-0.002
-0.001
0.054
-0.004
-0.036
0.024
0.041
0.398
0.970
-0.711
-1.457
-0.269
0.407
0.690
0.411
0.071
-0.121
-0.202
-0.116
-0.032
0.022
0.014
0.115
0.140
0.044
0.139
0.097
-0.029
0.028
0.052
0.067
0.089
0.052
-0.050
0.106
-0.002
0.018
0.080
-0.082
0.007
-0.012
-0.017
0.048
0.069
-0.016
0.017
0.154
0.204
-0.218
-0.207
0.064
0.185
0.173
-0.088
-0.064
-0.059
0.043
0.046
0.078
0.040
0.094
0.059
-0.052
-0.049
-0.028
0.022
0.058
-0.117
0.052
0.009
-0.035
0.098
0.078
0.047
0.022
0.034
0.033
-0.030
-0.074
0.098
0.160
0.203
0.076
0.018
-0.023
-0.032
-0.062
0.049
0.078
0.043
0.057
0.025
-0.037
-0.016
0.043
-0.009
0.080
-0.014
0.019
0.054
-0.065
-0.004
0.100
0.102
0.970
0.241
-1.489
-0.907
0.314
0.630
0.545
0.255
0.005
-0.101
-0.139
-0.105
-0.151
-0.070
0.078
0.089
0.112
0.095
0.094
0.041
0.008
0.029
0.007
0.083
-0.008
0.021
0.000
-0.015
0.024
-0.012
-0.026
0.049
0.057
-0.037
0.116
0.037
0.009
0.012
-0.008
0.007
0.122
0.013
-0.014
-0.001
0.001
0.014
0.384
0.479
-0.402
-0.677
-0.349
0.195
0.275
0.402
0.310
-0.064
-0.118
-0.178
-0.089
0.020
0.113
0.062
0.065
0.057
0.103
0.034
0.029
0.041
0.037
0.053
-0.087
-0.005
0.044
0.013
0.004
0.079
-0.030
-0.005
0.064
-0.006
-0.004
0.000
0.065
0.108
0.083
0.112
0.854
0.278
-1.396
-0.878
0.202
0.604
0.560
0.106
0.078
-0.208
-0.134
-0.066
0.006
-0.035
0.004
0.072
0.095
0.103
0.122
0.105
0.052
-0.036
0.108
0.085
-0.026
-0.009
0.039
-0.058
-0.001
-0.038
0.057
-0.003
-0.036
0.065
0.059
0.013
0.111
0.019
-0.015
0.038
0.092
0.006
0.025
-0.062
-0.065
0.055
0.027
0.085
0.162
0.045
0.018
-0.019
-0.008
-0.006
0.000
0.078
0.031
-0.043
0.164
-0.157
-0.057
0.185
0.258
0.195
-0.067
-0.079
-0.180
0.008
0.014
0.016
0.113
0.037
0.044
0.103
-0.040
-0.079
-0.023
0.025
0.060
-0.021
0.048
0.025
0.019
0.094
0.079
0.073
0.272
0.035
0.051
0.055
0.014
0.036
0.180
1.012
-0.168
-1.476
-0.614
0.267
0.761
0.535
0.061
-0.036
-0.203
-0.096
-0.148
-0.088
0.028
0.034
0.076
0.105
0.113
0.173
0.103
0.026
0.014
-0.015
-0.004
-0.020
-0.032
0.076
0.060
-0.039
0.012
0.006
0.100
0.074
0.070
0.074
-0.050
0.073
0.082
0.030
-0.016
0.040
-0.018
0.377
0.643
-0.236
-0.934
-0.318
0.341
0.329
0.356
0.145
-0.052
-0.151
-0.188
-0.051
0.051
-0.047
0.132
0.075
0.098
0.042
0.069
0.106
0.070
-0.074
0.036
-0.012
0.094
0.058
0.047
0.049
-0.000
-0.075
-0.034
0.069
0.106
-0.013
0.098
0.086
0.033
-0.040
0.041
0.073
0.160
-0.057
0.028
-0.011
0.013
0.097
0.011
-0.027
-0.031
0.085
0.035
-0.009
0.008
0.012
0.525
0.903
-0.907
-1.393
-0.162
0.552
0.720
0.315
0.054
-0.095
-0.137
-0.145
-0.034
0.052
0.013
0.137
0.053
0.064
0.100
0.154
0.117
0.078
0.020
0.049
-0.017
-0.031
0.048
-0.076
0.044
0.073
0.107
-0.032
-0.005
0.043
0.035
-0.011
0.014
-0.031
0.148
0.009
-0.004
-0.097
0.034
0.029
0.053
0.105
-0.033
-0.003
-0.016
-0.114
-0.035
0.048
0.170
0.074
0.039
0.076
0.050
-0.056
-0.004
-0.004
0.183
0.070
-0.235
-0.148
0.245
0.272
0.186
-0.034
-0.032
-0.065
0.063
0.007
0.109
-0.063
0.119
0.084
0.041
0.058
0.083
0.044
-0.041
-0.007
0.055
0.046
0.026
-0.013
0.026
0.078
0.138
-0.036
0.031
0.094
0.044
-0.019
0.022
0.102
0.047
-0.006
-0.158
0.003
0.032
0.368
1.039
-0.493
-1.433
-0.327
0.446
0.730
0.453
0.055
-0.094
-0.205
-0.157
0.005
-0.086
0.025
0.171
0.104
0.121
-0.022
0.070
0.127
0.033
0.019
0.009
0.069
0.045
0.046
0.121
0.004
0.117
0.058
-0.084
-0.089
0.013
0.070
0.034
0.022
0.043
0.010
0.004
0.110
-0.009
0.017
-0.031
-0.024
-0.015
0.016
0.029
0.013
0.086
0.097
0.162
0.581
-0.017
-0.804
-0.361
0.120
0.271
0.104
0.240
0.114
0.013
-0.053
-0.074
-0.232
-0.101
0.165
0.327
0.145
-0.003
0.035
-0.051
0.024
0.088
0.124
0.042
0.022
-0.055
-0.059
0.060
0.081
0.080
0.017
-0.007
0.032
-0.041
0.004
0.021
0.082
0.175
-0.008
0.022
0.009
0.040
0.030
0.018
-0.009
0.670
0.672
-1.138
-1.129
0.039
0.538
0.613
0.298
-0.004
-0.098
-0.105
-0.034
-0.107
-0.064
0.003
0.155
0.100
0.162
0.141
0.077
-0.002
0.038
0.000
0.057
-0.053
0.004
0.036
0.027
0.065
-0.003
0.084
-0.013
0.038
0.072
0.082
0.045
0.038
0.014
0.004
0.100
0.042
-0.053
0.043
0.061
0.047
0.019
-0.045
0.043
0.007
-0.015
0.068
0.013
0.057
0.023
-0.025
0.051
0.061
0.003
0.057
0.041
0.019
0.064
0.149
-0.275
-0.150
0.155
0.259
0.184
0.002
-0.063
0.021
-0.020
0.080
-0.008
-0.004
0.070
0.052
0.111
-0.031
0.033
0.012
0.066
0.034
-0.018
0.363
1.050
-0.731
-1.372
-0.243
0.484
0.719
0.274
0.093
-0.080
-0.025
-0.015
-0.066
-0.125
-0.007
0.133
0.111
0.100
0.028
0.075
0.140
0.045
-0.005
-0.025
0.045
0.067
0.023
-0.028
0.182
0.546
-0.140
-0.853
-0.228
0.290
0.152
0.190
0.237
0.099
-0.059
-0.144
-0.023
0.018
-0.018
-0.004
0.000
0.026
0.053
-0.054
0.081
0.228
0.164
0.081
0.034
-0.036
-0.026
0.012
-0.042
-0.015
0.087
0.032
0.081
0.004
0.039
-0.024
0.029
0.014
-0.010
-0.061
-0.016
-0.002
0.098
-0.005
0.040
0.036
0.087
-0.029
0.015
0.060
0.104
-0.031
0.016
0.046
0.074
0.070
-0.203
-0.134
0.117
0.269
0.103
0.051
0.790
0.111
-1.410
-0.758
0.246
0.579
0.593
0.209
-0.064
-0.120
-0.201
-0.121
-0.137
0.043
0.035
0.093
0.169
0.094
0.062
0.105
0.031
-0.013
0.054
-0.006
-0.007
-0.013
0.046
-0.014
-0.001
0.067
0.037
-0.044
0.032
0.089
0.041
0.035
0.152
0.561
-0.167
-0.785
-0.274
0.209
0.224
0.167
0.240
0.053
-0.003
-0.136
-0.094
-0.033
0.014
0.044
0.130
0.183
0.009
0.128
0.077
0.057
0.040
0.006
0.028
-0.039
-0.072
0.117
0.055
0.003
0.003
-0.048
0.098
0.029
0.315
1.110
-0.645
-1.501
-0.263
0.419
0.768
0.443
0.156
-0.103
-0.114
-0.175
-0.175
-0.044
0.065
0.088
0.143
0.096
0.114
0.061
0.148
0.227
-0.180
-0.114
0.028
0.214
0.198
-0.003
-0.119
-0.032
-0.066
0.034
0.101
0.094
0.022
0.073
0.021
-0.013
0.054
0.029
0.003
0.020
-0.021
-0.113
0.021
0.134
0.159
0.092
0.104
-0.080
-0.051
-0.012
0.085
0.016
0.080
-0.001
0.079
0.022
0.054
-0.014
0.080
0.090
0.052
-0.007
0.022
-0.084
0.007
0.055
0.071
-0.014
0.052
-0.050
0.071
0.092
0.078
0.028
0.033
-0.005
0.020
-0.006
0.050
0.075
0.027
0.029
-0.001
-0.025
0.118
0.010
0.022
0.030
0.029
-0.008
-0.037
0.028
0.209
1.040
-0.283
-1.489
-0.442
0.390
0.677
0.452
0.077
-0.134
-0.180
-0.129
-0.113
-0.062
0.103
0.084
0.208
0.619
0.255
-0.729
-0.657
0.146
0.378
0.378
0.318
0.040
-0.174
-0.139
-0.087
-0.049
-0.016
-0.003
0.079
0.074
0.062
0.141
0.066
-0.080
0.056
0.012
-0.042
-0.076
-0.009
0.063
0.174
0.058
0.041
-0.047
-0.024
0.132
0.051
0.041
0.043
0.035
-0.022
0.007
-0.099
0.006
0.063
0.066
-0.006
0.000
0.017
0.055
-0.049
0.011
0.019
0.060
-0.016
0.017
0.009
0.114
0.040
0.063
-0.012
0.020
-0.001
0.407
1.010
-0.695
-1.405
-0.213
0.490
0.710
0.397
-0.010
-0.141
-0.203
-0.160
-0.034
-0.047
0.055
0.081
0.127
0.138
0.137
0.119
0.011
0.051
0.048
-0.005
-0.037
-0.015
0.018
-0.080
-0.044
0.109
0.092
0.153
0.091
-0.053
-0.072
-0.015
-0.048
0.039
0.113
0.099
0.046
0.047
0.022
0.138
-0.018
-0.322
-0.001
0.148
0.291
0.059
-0.068
-0.010
0.059
0.004
0.092
0.018
-0.015
0.108
0.051
0.027
0.039
0.006
0.056
0.096
0.043
0.008
0.016
0.036
0.008
0.026
0.064
0.074
-0.007
-0.015
0.020
0.050
0.033
0.042
0.032
0.025
-0.029
0.006
0.090
0.018
-0.004
0.017
0.083
0.037
0.053
0.052
-0.027
0.112
0.004
0.021
0.065
0.032
0.067
0.009
-0.013
0.062
0.048
0.205
0.685
0.860
-0.430
-1.761
-0.791
0.370
0.721
0.734
0.336
-0.093
-0.311
-0.212
-0.120
-0.158
-0.060
0.122
0.140
0.175
0.151
0.067
0.097
0.100
-0.015
0.044
0.093
-0.014
0.049
-0.035
-0.136
-0.019
0.023
0.030
0.078
-0.004
0.040
0.026
0.212
-0.145
-0.274
0.122
0.260
0.187
-0.062
-0.046
-0.039
-0.028
-0.004
0.020
0.059
0.129
0.043
0.006
0.004
-0.039
0.097
0.033
-0.005
0.071
-0.036
0.005
-0.004
0.009
0.154
0.067
0.055
0.040
-0.034
-0.005
0.044
-0.003
0.019
0.055
0.080
0.005
-0.042
0.015
-0.006
-0.082
-0.125
-0.076
-0.006
0.115
0.159
0.120
0.050
-0.087
-0.028
0.010
-0.065
0.103
0.045
0.114
0.136
0.685
0.695
-1.001
-1.194
-0.108
0.528
0.613
0.252
-0.011
-0.030
-0.158
-0.108
-0.007
-0.063
-0.020
0.118
0.134
0.110
0.028
0.078
0.129
0.018
-0.022
-0.066
0.102
0.007
-0.031
0.063
-0.055
-0.023
-0.010
0.050
0.132
-0.093
-0.201
0.012
0.245
0.376
0.031
-0.007
-0.076
0.009
0.006
-0.029
0.008
0.154
0.092
0.046
-0.036
-0.020
0.054
0.108
0.012
-0.020
-0.009
0.032
0.029
0.020
0.039
0.111
0.044
-0.026
0.051
0.027
0.027
0.068
0.051
0.019
-0.008
-0.037
0.048
0.028
-0.014
0.063
0.017
0.025
0.020
0.019
0.052
0.094
0.069
0.021
0.031
0.045
0.082
0.014
0.010
0.043
0.021
0.264
0.673
-0.255
-0.772
-0.210
0.138
0.097
0.189
0.223
0.143
0.092
0.879
-0.230
-1.523
-0.662
0.244
0.765
0.575
0.186
0.007
-0.061
-0.154
-0.030
0.003
0.002
0.048
0.107
0.138
0.058
0.021
0.032
0.148
-0.038
-0.274
-0.036
0.319
0.259
0.155
-0.140
-0.137
-0.121
-0.061
0.058
0.032
0.053
0.074
0.074
0.049
0.043
0.043
-0.044
-0.073
0.067
0.093
0.043
0.013
0.030
-0.025
0.029
0.081
0.064
0.043
0.053
0.045
0.027
0.005
0.049
0.072
0.035
0.102
0.005
-0.035
0.001
-0.025
0.030
0.075
0.152
0.004
-0.007
-0.021
0.023
0.024
0.108
0.049
0.006
-0.069
0.024
-0.000
0.036
0.045
0.063
0.115
0.019
0.023
-0.021
-0.011
0.056
0.083
0.040
0.061
0.082
1.004
0.185
-1.462
-0.751
0.189
0.669
0.537
0.148
-0.121
-0.120
-0.157
-0.034
-0.072
-0.062
0.117
0.126
0.110
0.113
0.075
0.072
0.041
0.024
0.104
0.071
-0.279
-0.116
0.202
0.260
-0.011
-0.087
0.057
-0.027
0.024
0.042
0.063
-0.031
0.018
0.236
0.631
-0.151
-0.763
-0.230
0.238
0.106
0.211
0.139
0.067
-0.101
-0.115
-0.095
-0.033
-0.040
-0.009
0.047
0.169
0.169
0.058
0.047
-0.023
-0.025
0.004
0.107
0.076
0.114
0.010
-0.079
-0.001
0.002
-0.007
0.084
-0.010
0.002
-0.025
0.069
0.199
1.000
-0.047
-1.360
-0.668
0.191
0.572
0.514
0.233
-0.078
-0.101
-0.180
-0.125
-0.020
0.008
0.045
0.174
0.010
0.127
0.035
0.064
0.107
0.025
-0.019
0.023
0.016
0.031
0.008
0.008
-0.042
0.010
0.035
-0.024
0.066
0.030
0.079
-0.043
-0.026
0.085
0.028
0.031
-0.040
0.034
0.195
-0.044
-0.212
-0.023
0.201
0.224
0.060
-0.087
-0.067
-0.021
0.076
0.020
0.058
0.089
0.013
0.043
0.028
0.033
0.027
-0.041
-0.003
0.002
0.049
0.073
0.029
0.033
0.000
0.043
0.048
0.365
0.502
-0.356
-0.778
-0.097
0.184
0.071
0.318
0.168
0.185
0.889
-0.056
-1.542
-0.824
0.225
0.617
0.670
0.223
-0.077
-0.019
-0.060
0.008
-0.070
-0.002
0.095
0.012
0.102
0.026
0.049
0.167
0.022
-0.006
-0.015
-0.012
0.009
0.090
0.014
0.048
-0.033
0.002
-0.002
0.031
0.071
-0.092
0.025
0.085
0.122
0.194
-0.006
-0.031
0.036
-0.024
0.008
0.074
0.044
-0.033
-0.019
0.050
0.059
-0.001
0.071
0.064
0.014
-0.027
-0.009
0.012
0.032
0.024
0.077
0.064
0.034
0.088
0.106
-0.287
-0.076
0.217
0.201
0.135
0.021
-0.046
-0.063
0.107
-0.006
0.083
0.030
0.087
-0.014
-0.019
0.049
0.099
0.112
-0.058
-0.014
0.044
0.002
0.049
-0.008
-0.069
0.025
0.032
0.057
0.014
0.058
0.059
0.008
0.018
0.060
0.050
0.329
1.027
-0.254
-1.683
-0.428
0.298
0.705
0.527
0.062
-0.080
-0.203
-0.133
-0.103
-0.009
-0.027
0.046
0.042
0.215
0.110
0.095
0.015
0.174
0.001
0.042
0.002
0.009
0.026
0.014
0.019
0.420
0.449
-0.449
-0.702
-0.087
0.262
0.188
0.330
0.135
-0.015
-0.074
-0.040
-0.010
0.030
-0.088
0.057
0.074
0.132
0.130
-0.167
-0.123
0.171
0.271
0.025
-0.071
-0.062
0.011
0.126
-0.012
0.007
0.061
0.019
0.083
0.032
0.070
0.023
-0.009
-0.034
-0.003
0.035
0.176
0.027
0.154
0.007
-0.036
-0.010
0.035
0.065
0.048
0.060
0.060
0.023
0.093
0.927
0.160
-1.442
-0.785
0.176
0.663
0.528
0.231
-0.078
-0.140
-0.171
-0.112
0.036
-0.061
0.104
0.062
0.079
0.238
0.133
0.101
0.016
0.059
0.101
0.055
-0.043
0.011
0.022
-0.013
0.002
-0.041
-0.094
0.038
0.120
0.068
-0.066
0.064
0.015
0.030
0.070
-0.012
-0.011
0.099
0.002
0.009
-0.042
0.157
0.011
0.047
0.003
0.008
-0.008
-0.003
0.049
-0.006
0.013
0.028
0.040
0.023
0.112
0.056
-0.156
-0.074
0.156
0.214
-0.012
-0.039
-0.022
0.040
0.047
-0.025
0.043
0.082
0.072
-0.068
-0.001
0.091
0.023
0.033
0.104
-0.030
-0.014
-0.025
-0.031
0.077
0.069
0.062
0.075
0.030
0.008
-0.064
0.035
0.476
0.904
-0.784
-1.317
-0.143
0.441
0.640
0.346
0.276
0.443
-0.553
-0.896
-0.156
0.153
0.097
0.173
0.234
0.104
0.009
0.126
0.087
0.048
-0.002
-0.105
-0.041
0.052
0.156
0.076
-0.025
0.028
-0.026
0.086
0.115
0.018
-0.014
-0.126
-0.035
-0.068
-0.023
0.081
0.079
0.011
0.098
0.004
0.016
0.014
0.078
0.024
0.123
0.024
-0.022
0.005
0.072
0.021
0.028
0.062
-0.013
0.035
0.038
-0.011
0.029
0.128
-0.190
-0.156
0.159
0.272
0.234
0.045
-0.072
-0.080
-0.115
0.049
0.074
0.010
0.041
0.190
0.050
-0.049
0.019
-0.028
0.094
0.053
0.055
0.032
0.391
0.865
-0.816
-1.200
-0.165
0.468
0.651
0.407
0.025
-0.148
-0.168
-0.105
-0.093
-0.080
0.030
0.065
0.124
0.160
0.118
0.034
0.104
0.013
-0.028
-0.001
0.020
-0.039
0.077
0.000
-0.044
0.037
-0.016
0.084
0.015
-0.108
0.047
-0.009
0.130
0.016
-0.010
0.071
0.028
0.078
0.030
0.081
0.060
0.066
0.030
-0.127
-0.053
0.042
0.040
0.115
0.024
0.023
-0.062
0.074
-0.006
0.116
0.026
0.098
0.030
0.073
0.022
-0.231
-0.090
0.225
0.287
-0.022
-0.120
-0.084
0.052
-0.046
0.106
0.077
0.046
0.057
-0.073
0.002
0.027
0.046
-0.052
0.027
0.486
0.283
-0.681
-0.516
0.020
0.280
0.163
1.018
0.740
-1.310
-1.117
-0.026
0.519
0.677
0.131
-0.023
-0.034
-0.093
-0.090
0.017
0.033
0.107
0.068
0.165
0.094
0.039
0.030
0.054
0.121
0.006
-0.000
0.005
0.013
-0.001
0.078
-0.074
0.033
0.010
0.143
0.009
-0.034
0.071
0.019
0.008
0.061
-0.025
-0.093
0.001
0.001
-0.001
0.144
0.069
-0.043
0.087
0.049
0.047
0.002
0.015
0.082
-0.029
-0.049
0.068
0.081
0.073
0.066
0.025
0.007
0.078
0.009
0.057
0.013
0.011
0.057
-0.004
0.025
0.081
0.025
0.047
0.046
0.165
-0.061
-0.316
0.086
0.219
0.168
0.098
-0.024
0.016
0.088
-0.029
0.030
-0.031
0.057
0.061
0.057
0.048
-0.055
-0.018
0.022
0.103
0.022
0.035
-0.064
-0.015
0.035
0.052
-0.026
0.043
0.693
0.635
-1.208
-1.043
0.043
0.690
0.564
0.295
-0.067
-0.155
-0.204
-0.179
0.087
0.047
0.168
0.122
0.080
0.057
0.088
0.087
0.066
-0.069
0.139
0.037
0.036
0.110
0.006
-0.084
-0.037
0.008
-0.036
0.031
-0.014
-0.033
0.003
0.074
0.038
0.103
-0.027
0.013
-0.031
0.009
0.023
0.046
0.083
0.051
0.010
0.010
-0.054
0.019
0.113
0.024
0.049
0.014
0.030
0.061
-0.020
0.538
0.331
-0.707
-0.605
0.109
0.352
0.003
0.053
0.179
0.190
0.031
-0.176
-0.096
-0.102
-0.020
0.022
0.092
0.140
0.076
0.155
0.107
0.094
0.004
0.025
-0.057
-0.027
-0.009
0.052
0.000
0.019
0.015
0.152
1.145
-0.210
-1.615
-0.564
0.517
0.778
0.538
0.119
-0.125
-0.162
-0.297
-0.053
-0.056
0.029
0.090
0.042
0.131
0.088
-0.042
0.050
0.074
0.161
0.089
-0.103
-0.078
0.062
-0.007
-0.013
0.019
-0.002
-0.011
0.071
0.144
0.035
-0.006
-0.014
0.005
0.053
0.047
0.055
-0.002
-0.020
0.005
-0.031
0.112
0.028
0.135
-0.010
0.006
0.002
0.053
0.040
0.045
-0.088
-0.056
0.132
0.227
0.117
0.081
-0.065
0.017
-0.050
-0.006
0.034
0.047
0.052
0.042
0.168
0.110
-0.186
-0.187
0.070
0.279
0.191
0.013
-0.081
-0.075
-0.047
0.083
0.022
0.007
0.064
0.111
0.000
0.035
0.054
-0.035
-0.040
-0.025
0.038
0.045
-0.021
0.328
1.080
-0.421
-1.484
-0.472
0.446
0.708
0.460
0.096
-0.079
-0.149
-0.100
-0.079
-0.085
0.014
0.138
0.142
0.035
0.025
0.089
0.094
0.054
0.052
0.000
0.016
-0.004
-0.083
0.003
0.007
0.055
-0.050
0.097
0.106
0.061
0.031
0.069
0.043
-0.005
-0.010
-0.033
-0.016
0.053
0.224
0.611
-0.137
-0.873
-0.428
0.183
0.234
0.306
0.159
0.000
0.031
-0.086
-0.131
-0.075
0.005
0.018
0.087
0.134
0.087
0.064
0.042
0.046
0.037
0.021
0.071
-0.014
-0.077
-0.009
0.001
0.020
0.039
0.077
0.253
0.419
0.556
-1.076
-0.999
0.104
0.501
0.596
0.233
0.010
-0.085
-0.162
-0.145
-0.023
0.004
-0.026
0.141
0.127
0.120
0.056
0.152
-0.055
0.016
0.018
0.026
0.118
-0.013
0.017
-0.065
0.049
-0.034
0.007
0.041
0.036
0.084
-0.025
-0.057
0.131
0.157
0.116
0.084
-0.047
-0.029
-0.041
-0.007
0.026
0.079
0.114
0.026
-0.019
0.082
0.017
0.028
-0.095
0.007
-0.031
0.026
0.033
-0.021
0.083
0.084
0.044
0.103
0.013
0.039
0.013
-0.007
-0.004
0.039
0.054
0.105
0.037
0.039
-0.054
-0.020
-0.019
0.045
0.123
0.019
0.039
0.050
-0.060
0.027
0.010
0.042
0.040
0.129
1.027
0.089
-1.439
-0.694
0.279
0.662
0.277
0.068
0.107
0.026
-0.061
-0.206
-0.142
-0.124
0.029
0.259
0.330
0.684
-0.168
-0.854
-0.243
0.224
0.337
0.297
0.139
-0.026
-0.073
-0.188
-0.098
0.022
0.066
0.009
0.095
-0.004
0.010
0.103
0.042
0.067
0.028
0.055
0.102
-0.019
0.043
-0.031
-0.074
-0.009
0.063
0.035
0.074
0.066
0.118
0.033
-0.013
-0.001
-0.063
0.064
0.032
0.046
-0.022
-0.021
0.108
0.078
0.084
0.057
-0.019
-0.035
0.020
0.020
0.030
-0.011
0.028
0.027
0.089
0.009
0.024
-0.010
-0.035
-0.024
0.033
0.116
0.123
0.028
0.060
0.026
-0.037
0.011
0.149
0.143
0.065
0.029
-0.052
0.045
0.024
-0.276
0.204
1.320
-0.107
-1.423
-0.609
0.216
0.508
0.423
0.093
0.000
-0.103
-0.107
-0.085
-0.082
-0.087
0.032
0.089
0.118
0.180
0.077
0.047
0.083
-0.063
-0.024
0.001
0.047
0.029
0.047
0.081
0.009
-0.001
-0.082
-0.028
0.015
0.105
0.029
0.016
0.044
0.053
0.003
-0.029
-0.046
-0.014
0.052
0.034
0.066
0.034
0.043
0.027
0.003
0.093
0.089
0.025
0.084
0.001
0.036
0.009
0.003
-0.060
0.018
0.108
0.052
-0.010
0.099
-0.003
0.030
0.003
-0.035
-0.062
0.068
0.071
0.007
0.041
0.131
0.013
-0.075
-0.078
0.005
0.166
0.047
0.021
0.069
0.951
0.252
-1.447
-0.800
0.221
0.707
0.591
0.470
0.350
-0.686
-0.799
-0.137
0.187
0.099
0.175
0.304
0.139
0.012
0.014
0.044
-0.051
-0.180
-0.045
0.344
0.287
0.128
-0.063
-0.060
0.045
-0.008
-0.058
0.056
0.050
0.099
0.085
-0.073
-0.023
0.133
-0.023
0.001
-0.061
0.049
0.003
0.066
-0.041
0.034
0.098
-0.011
-0.018
0.041
-0.004
0.001
-0.083
-0.002
-0.004
0.061
0.107
0.068
0.053
-0.043
0.001
-0.023
0.006
0.075
0.016
0.046
0.056
0.008
-0.005
0.036
-0.109
0.028
0.131
0.056
0.109
-0.032
-0.066
-0.076
0.006
0.108
0.079
0.024
0.097
0.092
0.040
-0.011
0.564
0.829
-1.010
-1.326
-0.158
0.465
0.700
0.380
0.069
-0.128
-0.137
-0.142
-0.106
-0.071
-0.003
0.129
0.055
0.102
0.189
0.054
0.048
0.123
0.040
0.023
-0.024
0.015
-0.015
0.016
-0.011
0.055
0.023
0.019
-0.023
0.005
-0.037
0.072
0.096
0.054
0.040
-0.003
-0.013
0.064
-0.037
-0.185
0.034
0.238
0.156
0.083
-0.000
0.051
-0.094
-0.039
0.008
0.102
0.093
0.042
0.035
0.109
0.058
0.610
-0.016
-0.862
-0.337
0.148
0.205
0.180
0.195
0.214
-0.007
-0.159
-0.031
-0.073
-0.088
-0.001
0.034
0.031
0.073
0.141
0.101
0.069
0.029
0.030
0.033
0.042
0.072
-0.087
-0.045
0.075
0.001
0.089
0.023
0.067
0.026
0.185
1.044
-0.229
-1.548
-0.540
0.370
0.751
0.406
0.131
-0.133
-0.118
-0.269
-0.105
-0.026
0.104
0.173
0.116
0.000
0.071
0.087
0.022
0.038
-0.006
0.012
0.138
0.020
-0.005
-0.032
-0.097
-0.043
0.020
-0.057
-0.057
0.010
0.236
0.111
-0.191
-0.054
0.180
0.254
0.016
-0.045
-0.063
-0.084
0.056
0.125
0.078
0.051
0.013
0.123
0.024
-0.054
-0.029
0.047
0.004
-0.018
0.046
0.065
0.055
0.046
-0.005
0.041
0.087
0.018
