-0.019
0.016
-0.021
-0.069
-0.092
-0.061
-0.054
0.066
0.035
-0.011
-0.071
-0.090
0.002
0.021
-0.033
0.037
-0.043
0.066
0.012
0.057
-0.013
0.034
0.030
0.004
-0.071
-0.057
-0.074
0.067
0.040
-0.071
0.025
-0.032
-0.064
-0.039
-0.096
-0.017
-0.074
0.039
-0.049
-0.037
0.006
0.007
-0.064
-0.048
-0.049
-0.047
-0.024
-0.109
0.051
-0.103
0.074
0.034
-0.076
-0.057
-0.082
0.005
0.006
-0.064
-0.103
-0.016
0.040
0.023
0.004
-0.028
-0.014
-0.004
0.018
-0.075
-0.027
-0.009
-0.082
0.027
-0.003
-0.054
-0.048
0.060
0.041
-0.056
-0.106
-0.043
-0.067
0.062
-0.028
0.027
0.008
-0.059
-0.026
-0.054
-0.029
-0.071
0.012
-0.018
0.017
-0.050
-0.082
-0.001
-0.023
0.078
-0.081
-0.020
0.076
0.038
-0.051
-0.062
-0.083
0.012
0.044
-0.015
-0.049
-0.043
0.025
-0.034
-0.043
0.032
-0.057
0.042
0.071
-0.113
0.013
-0.079
0.026
-0.006
0.002
0.011
-0.070
-0.030
0.048
0.027
0.016
0.031
-0.062
-0.044
-0.045
-0.086
-0.044
-0.007
0.006
-0.068
-0.029
-0.016
-0.044
0.070
0.056
-0.025
0.043
-0.103
-0.085
-0.001
-0.005
-0.042
0.154
-0.068
-0.030
-0.149
0.000
-0.010
0.037
0.004
-0.023
0.031
-0.015
-0.116
-0.129
0.039
-0.067
-0.120
0.051
0.098
0.059
0.045
-0.225
-0.098
0.129
-0.074
-0.079
-0.077
0.036
0.032
-0.025
-0.068
-0.011
-0.024
-0.189
0.016
-0.013
-0.013
0.028
-0.141
-0.050
0.022
0.033
0.064
-0.113
-0.093
-0.074
-0.059
0.087
0.063
-0.026
-0.132
-0.015
0.028
-0.033
0.044
-0.109
0.069
0.031
0.053
-0.017
0.115
-0.117
-0.066
-0.088
-0.126
-0.069
0.056
-0.053
0.041
-0.024
-0.097
-0.001
-0.064
-0.056
-0.049
0.026
-0.020
0.007
0.008
-0.189
-0.040
-0.021
0.032
0.003
0.016
-0.038
-0.039
-0.084
0.018
-0.038
-0.027
-0.052
0.019
-0.001
-0.089
-0.032
-0.013
-0.022
0.030
0.046
0.039
-0.004
-0.056
0.079
-0.092
-0.031
-0.098
-0.012
0.008
0.044
-0.063
-0.085
-0.031
0.009
-0.013
-0.055
-0.034
-0.107
0.010
-0.026
-0.018
-0.047
-0.099
0.046
-0.012
-0.027
-0.038
-0.038
-0.066
0.089
-0.094
0.029
-0.035
-0.037
-0.083
-0.090
-0.042
0.062
0.055
-0.030
-0.008
-0.053
0.002
0.037
0.055
0.004
-0.108
0.031
-0.073
-0.034
0.108
-0.023
-0.069
0.032
-0.065
-0.044
-0.006
0.018
-0.107
0.005
-0.016
0.045
0.036
-0.136
0.007
0.013
0.003
0.025
0.017
-0.007
-0.094
-0.012
0.023
0.023
-0.068
-0.046
0.027
0.004
-0.084
-0.136
0.103
-0.100
0.013
0.001
0.031
0.009
0.189
-0.198
-0.073
0.064
-0.056
-0.056
0.002
-0.008
-0.039
-0.110
-0.010
0.037
-0.017
-0.026
-0.100
-0.014
-0.001
-0.098
0.007
0.023
-0.065
0.035
0.091
0.051
-0.050
-0.063
0.032
0.094
0.002
-0.098
0.019
0.076
-0.062
-0.007
0.016
-0.006
-0.003
-0.094
-0.152
-0.014
-0.045
-0.077
0.079
-0.060
-0.039
-0.117
0.007
-0.045
-0.030
-0.055
-0.107
-0.106
-0.010
0.043
-0.084
-0.062
0.029
-0.048
0.119
-0.004
0.032
-0.116
0.047
0.020
-0.036
0.068
-0.119
0.001
-0.119
0.034
-0.020
-0.035
0.000
-0.023
-0.077
0.105
-0.089
0.018
-0.152
-0.041
0.005
0.021
0.003
0.023
0.058
0.035
0.028
-0.012
-0.156
-0.029
-0.088
0.016
-0.024
0.061
-0.084
-0.033
-0.076
-0.054
-0.011
-0.034
0.016
0.013
-0.012
-0.114
0.025
0.024
0.020
-0.026
-0.046
-0.007
-0.066
-0.019
-0.027
0.002
-0.052
0.222
0.070
-0.066
-0.188
-0.052
-0.044
0.019
-0.077
0.087
0.044
-0.049
0.021
0.003
-0.079
-0.034
-0.006
-0.098
-0.014
-0.095
-0.019
0.068
0.093
-0.035
-0.062
-0.122
-0.012
-0.067
-0.003
-0.050
0.026
-0.059
-0.052
0.007
-0.097
-0.067
0.088
-0.131
0.004
0.007
0.029
0.008
-0.049
0.078
-0.074
-0.091
0.025
0.064
-0.071
-0.087
0.057
0.051
-0.007
0.014
0.041
-0.170
-0.063
-0.034
0.000
0.030
-0.025
-0.171
-0.066
0.018
0.031
0.044
0.048
-0.010
0.068
-0.135
-0.023
-0.038
0.008
-0.030
-0.018
-0.014
-0.007
-0.058
-0.034
-0.165
0.005
0.087
0.011
0.028
-0.029
-0.070
-0.056
-0.065
0.058
0.034
-0.005
-0.026
0.003
0.025
-0.110
-0.068
-0.007
0.015
-0.102
-0.063
-0.106
0.081
0.069
0.009
-0.063
-0.024
0.088
-0.030
0.025
0.005
0.017
-0.006
-0.019
-0.107
0.003
0.015
0.047
-0.065
-0.030
-0.020
-0.042
-0.003
-0.078
0.126
0.012
-0.101
-0.083
-0.052
0.037
0.078
0.057
-0.095
-0.039
0.058
-0.099
0.071
0.024
-0.004
-0.022
-0.050
-0.150
-0.005
0.036
0.068
-0.063
-0.064
-0.042
-0.147
-0.067
-0.122
-0.081
-0.043
0.039
0.030
-0.012
0.012
-0.032
0.060
-0.069
0.048
-0.005
-0.009
-0.015
0.027
-0.021
-0.165
-0.072
0.069
0.088
-0.032
-0.077
-0.101
-0.048
-0.002
-0.069
-0.084
-0.010
0.065
0.023
0.023
-0.070
-0.020
-0.081
-0.079
-0.058
0.025
0.025
0.015
-0.059
-0.042
-0.080
-0.023
-0.025
0.000
-0.015
-0.016
-0.034
-0.026
-0.028
0.025
-0.013
-0.048
-0.094
-0.050
-0.037
-0.061
-0.003
0.019
-0.026
-0.066
-0.083
-0.081
0.102
0.055
-0.058
0.045
-0.100
0.002
-0.090
-0.040
-0.049
-0.041
-0.012
0.022
0.073
-0.020
-0.035
0.044
-0.054
-0.018
-0.099
0.045
-0.055
0.046
-0.069
-0.036
-0.115
-0.108
-0.085
0.087
0.088
0.062
-0.006
0.038
-0.036
-0.026
-0.027
-0.165
0.097
-0.012
0.094
0.105
-0.081
-0.136
-0.110
-0.036
-0.025
0.055
-0.055
-0.130
-0.059
-0.070
0.058
0.003
0.071
-0.009
-0.034
-0.019
-0.091
-0.017
-0.014
0.059
-0.124
-0.031
-0.052
0.102
-0.076
0.062
0.241
-0.125
-0.189
-0.059
-0.112
-0.156
0.047
0.109
0.064
-0.055
-0.028
-0.167
-0.111
-0.006
-0.066
-0.027
0.025
-0.021
0.042
-0.031
-0.068
-0.006
-0.059
-0.046
0.070
0.149
-0.002
0.033
-0.152
-0.087
-0.044
-0.045
0.071
-0.071
0.087
0.151
0.035
-0.100
-0.109
-0.174
-0.055
-0.023
0.083
-0.019
-0.098
-0.040
-0.015
-0.100
-0.102
-0.049
-0.003
0.126
0.050
0.085
-0.058
-0.054
-0.042
-0.015
-0.031
-0.033
0.095
-0.030
0.004
-0.055
-0.060
-0.126
0.079
0.007
-0.054
0.076
-0.010
-0.017
-0.009
0.009
0.030
0.001
-0.061
0.085
0.009
-0.010
-0.024
-0.051
-0.096
-0.007
0.111
-0.008
-0.092
0.131
-0.004
-0.011
0.049
0.004
-0.054
-0.085
0.003
0.060
-0.071
-0.085
-0.003
-0.042
-0.070
-0.082
-0.027
0.051
-0.066
0.012
0.032
-0.033
-0.024
-0.033
-0.104
-0.034
0.013
0.026
0.104
0.047
-0.063
-0.141
-0.038
-0.005
0.032
-0.031
-0.005
-0.018
-0.009
-0.056
0.088
-0.080
-0.033
-0.010
-0.071
0.065
0.089
-0.069
-0.072
-0.019
-0.009
-0.067
-0.067
-0.031
0.033
-0.008
0.006
0.006
-0.001
0.111
-0.016
-0.036
-0.127
-0.002
-0.168
0.022
-0.024
0.056
0.056
-0.016
-0.055
-0.107
-0.077
0.037
0.010
-0.026
-0.089
-0.032
-0.046
0.033
0.113
0.049
-0.049
-0.030
-0.053
-0.192
-0.126
0.059
0.134
-0.000
0.033
-0.105
-0.074
-0.065
0.009
0.015
0.063
0.009
-0.014
0.054
-0.037
0.001
-0.088
-0.075
0.046
-0.028
-0.040
-0.070
0.006
0.037
0.005
-0.089
0.011
-0.072
-0.032
-0.037
-0.021
0.094
-0.006
-0.026
-0.081
0.049
-0.010
-0.008
-0.108
-0.043
0.119
0.013
-0.057
0.087
-0.077
-0.011
-0.056
-0.053
-0.078
-0.062
-0.038
0.034
-0.007
0.038
-0.086
-0.055
-0.127
-0.009
0.029
0.029
-0.143
0.095
-0.021
-0.019
-0.064
-0.087
0.005
0.076
-0.102
-0.052
-0.085
-0.081
-0.051
0.011
0.103
0.016
-0.066
-0.008
0.008
-0.056
0.016
0.028
-0.043
-0.004
-0.079
-0.055
-0.154
0.029
0.081
-0.075
-0.028
-0.024
-0.060
0.046
-0.039
0.040
-0.046
-0.011
-0.112
-0.023
0.339
-0.032
-0.169
-0.158
-0.085
-0.097
-0.046
0.053
0.042
-0.001
0.045
-0.049
-0.107
-0.052
0.014
0.038
-0.039
-0.055
-0.045
-0.036
-0.085
0.031
0.019
0.057
0.034
-0.042
-0.113
-0.011
-0.069
-0.064
0.023
-0.113
-0.029
-0.004
-0.061
0.111
0.070
0.000
-0.076
-0.072
0.014
0.020
0.064
0.002
-0.167
-0.109
-0.052
-0.003
0.016
0.082
-0.005
0.078
-0.022
-0.033
-0.108
-0.004
-0.025
0.031
-0.154
-0.004
0.057
-0.024
0.182
-0.086
-0.033
0.012
-0.006
-0.057
-0.036
-0.025
-0.047
-0.050
-0.024
-0.131
0.018
0.014
0.044
-0.032
-0.012
-0.105
0.012
0.085
0.004
-0.060
-0.054
0.038
-0.033
0.005
0.017
0.004
0.083
-0.122
0.036
-0.049
0.025
-0.042
-0.073
-0.008
0.025
-0.049
-0.032
-0.096
-0.027
0.018
-0.054
0.069
-0.018
0.042
-0.005
-0.043
-0.010
-0.026
0.012
-0.028
-0.030
0.022
-0.056
-0.119
-0.016
-0.014
0.046
0.010
-0.129
-0.050
0.125
0.070
0.052
-0.145
-0.087
-0.072
0.064
0.048
-0.045
-0.033
0.014
0.023
-0.078
-0.067
-0.108
-0.023
0.018
-0.139
-0.134
0.047
-0.042
0.089
-0.055
0.053
-0.067
-0.011
0.028
-0.031
0.005
-0.078
-0.056
-0.028
0.031
-0.042
0.004
-0.080
0.011
0.057
0.036
-0.046
-0.072
-0.095
0.057
-0.047
-0.054
0.028
-0.092
-0.098
-0.038
0.006
-0.053
0.040
0.007
0.082
-0.041
-0.077
-0.093
0.042
-0.044
-0.064
-0.017
0.048
-0.061
0.000
0.016
-0.011
-0.054
-0.002
-0.059
-0.077
-0.086
-0.057
0.039
0.091
0.085
0.084
-0.157
-0.011
-0.010
-0.044
-0.039
0.020
0.018
-0.162
-0.025
0.047
0.041
-0.057
-0.115
0.079
-0.072
-0.042
0.019
0.100
-0.063
-0.032
-0.009
-0.030
0.066
0.012
0.009
0.028
-0.059
-0.027
0.094
-0.026
-0.021
-0.091
-0.072
0.075
0.018
-0.047
-0.004
-0.008
0.065
-0.039
-0.088
-0.031
0.021
-0.029
-0.045
-0.098
-0.101
0.000
0.145
-0.059
-0.065
-0.049
-0.024
0.009
0.002
0.017
0.024
0.087
-0.057
-0.159
-0.044
-0.039
0.117
-0.000
-0.024
-0.035
-0.097
-0.062
0.078
-0.174
-0.046
-0.024
-0.071
0.052
-0.034
-0.044
-0.018
-0.001
-0.091
0.066
0.071
0.060
0.012
-0.084
-0.034
-0.111
-0.044
0.053
0.007
0.024
-0.072
-0.117
-0.113
-0.041
0.009
-0.027
-0.004
0.155
-0.183
-0.042
0.009
-0.028
-0.097
-0.028
-0.043
-0.048
0.007
0.057
-0.019
-0.041
-0.024
-0.127
-0.021
0.016
0.006
-0.027
-0.107
-0.047
-0.021
0.138
-0.009
-0.025
0.070
-0.003
-0.006
-0.034
-0.088
-0.012
0.017
0.047
-0.103
-0.068
0.026
-0.125
-0.048
-0.033
-0.048
0.001
-0.036
-0.022
-0.005
-0.082
-0.059
0.069
-0.048
-0.011
-0.036
0.038
0.020
0.042
-0.005
-0.047
0.011
-0.042
-0.042
-0.063
0.100
0.036
0.061
-0.069
-0.070
-0.067
0.010
0.032
-0.095
-0.091
0.029
-0.024
-0.041
0.002
0.074
-0.052
-0.139
-0.069
-0.086
-0.103
-0.006
0.102
0.019
0.074
-0.085
-0.124
-0.190
-0.002
-0.034
0.078
-0.028
-0.008
-0.006
0.077
0.033
-0.092
0.002
-0.053
-0.106
-0.048
0.003
0.016
-0.025
-0.101
0.002
0.071
-0.193
-0.089
-0.004
0.060
0.068
-0.066
-0.087
-0.012
0.019
-0.108
-0.043
0.057
-0.065
0.000
0.064
-0.015
-0.049
0.030
-0.118
0.035
-0.037
-0.107
-0.176
-0.003
-0.018
0.084
0.174
-0.047
-0.205
-0.029
-0.093
-0.051
0.108
-0.021
0.074
0.000
0.025
-0.019
-0.096
-0.130
-0.007
-0.110
-0.109
0.116
-0.039
-0.071
0.133
0.012
-0.096
-0.034
-0.054
0.082
0.006
0.006
-0.056
0.059
-0.032
0.000
-0.034
0.040
-0.065
0.030
-0.041
-0.174
-0.027
0.007
-0.000
0.066
0.081
0.053
-0.192
-0.008
0.030
0.004
-0.388
0.196
-0.024
-0.004
-0.027
0.071
0.025
-0.066
-0.087
-0.012
-0.052
-0.078
0.027
-0.026
-0.015
-0.047
-0.066
0.008
-0.021
0.050
-0.046
-0.056
-0.088
0.011
0.018
0.067
-0.137
-0.039
0.067
-0.041
-0.055
-0.031
-0.110
0.033
-0.068
0.044
-0.022
-0.029
-0.019
-0.182
-0.085
0.057
0.001
-0.022
-0.044
-0.012
-0.027
0.027
0.018
-0.012
0.034
-0.017
-0.045
0.015
-0.067
0.020
-0.090
0.042
0.019
-0.037
0.051
-0.160
-0.059
-0.052
0.024
-0.093
-0.011
-0.043
-0.039
-0.019
0.044
-0.084
0.018
-0.055
-0.057
-0.044
-0.044
0.081
0.056
-0.031
0.115
-0.098
-0.001
-0.018
-0.017
0.008
0.073
-0.053
-0.046
-0.020
0.050
0.022
-0.176
0.005
0.031
0.095
-0.074
-0.120
-0.004
0.020
-0.063
-0.012
0.027
-0.037
-0.038
-0.078
0.063
-0.018
-0.101
0.073
0.128
-0.036
-0.008
0.053
-0.101
-0.027
0.081
-0.058
-0.087
0.199
0.144
-0.442
-0.335
0.166
0.294
-0.369
-0.216
0.199
0.111
-0.116
-0.149
0.371
-0.028
-0.349
0.048
0.163
0.021
-0.100
-0.153
-0.023
-0.018
0.180
-0.092
-0.024
0.118
-0.052
0.193
0.095
-0.936
-0.038
0.164
0.164
0.053
-0.021
-0.144
0.025
-0.025
-0.279
0.089
0.007
-0.304
-0.200
0.372
0.282
0.133
-0.034
-0.237
-0.191
-0.031
-0.013
-0.099
-0.108
0.043
0.254
-0.080
-0.112
0.047
0.156
0.022
-0.088
-0.323
0.150
0.047
-0.391
0.325
0.170
-0.130
-0.378
0.256
0.159
-0.293
-0.098
-0.098
0.666
0.705
-1.740
0.155
1.233
-1.049
0.222
0.760
-1.465
0.067
1.381
-0.624
-0.682
0.202
-0.236
0.422
0.032
-0.344
-0.033
0.290
-0.500
0.063
1.337
-1.000
-0.327
1.147
-0.794
-0.259
0.316
-0.177
0.328
0.317
-0.040
-0.315
-0.228
0.067
0.233
0.177
-0.167
-0.637
0.228
0.379
-0.156
0.080
-0.137
-0.077
0.121
-0.173
-0.396
-0.023
0.447
-0.146
-0.182
0.401
-0.576
-0.230
0.610
-0.050
-0.549
0.130
0.362
0.043
-0.088
-0.101
-0.176
-0.229
0.234
0.226
0.043
0.000
0.087
-0.045
-0.074
0.117
0.075
-0.510
-0.162
0.469
-0.135
0.061
0.506
0.550
-1.174
-0.344
-0.597
0.351
0.560
0.243
-0.218
-0.106
-0.032
0.026
0.796
-0.806
-2.089
1.054
1.456
-0.394
-0.800
0.097
0.332
0.258
-0.095
-0.301
-0.176
-0.119
0.434
0.423
-0.164
-0.615
-0.334
-0.014
0.732
0.147
-0.146
-0.126
0.283
-0.043
-0.423
0.146
0.272
-0.466
-0.498
0.512
0.818
-1.071
-0.099
-0.167
0.431
-0.195
-0.453
0.331
-0.495
0.104
0.249
-0.166
-0.231
0.463
0.495
0.081
-0.957
0.213
0.489
0.286
-0.290
-0.154
0.055
0.031
-0.247
-0.048
0.688
-0.790
-0.506
1.258
-0.445
-0.457
-0.052
-0.079
-0.249
0.306
-0.158
-0.532
0.311
0.244
0.244
-0.487
0.194
0.186
0.073
-0.417
-0.264
0.185
0.233
0.003
-0.136
-0.205
-0.084
0.269
0.247
-0.068
-0.272
-0.312
0.129
0.207
0.163
0.177
-0.136
-0.367
-0.230
-0.178
0.314
-0.312
0.691
0.458
-0.506
-0.789
0.042
0.110
0.122
0.477
-0.165
-0.540
0.353
0.660
0.559
-0.935
-2.160
0.143
1.245
0.968
0.084
-0.371
-0.448
-0.127
-0.187
0.102
0.278
0.142
-0.503
0.009
0.418
-0.502
-0.084
0.152
0.215
-0.477
-0.082
0.251
0.877
0.026
-0.977
-0.456
-0.129
-0.003
0.461
0.167
-0.238
-0.154
0.336
0.253
-0.030
-0.453
-0.281
0.166
0.370
0.099
-0.094
-0.259
-0.075
0.321
-0.059
-0.470
-0.098
0.184
-0.143
0.416
-0.214
-0.331
-0.312
0.150
0.103
-0.311
0.795
0.196
0.149
-0.219
-1.836
0.432
0.960
0.436
-0.587
-0.208
0.065
0.230
0.520
-0.303
-0.548
-0.251
0.263
0.058
-0.308
0.301
-0.020
0.054
-0.213
0.052
0.032
-0.640
-0.003
0.791
0.398
-0.251
-0.605
-0.064
0.251
-0.115
-0.355
0.406
0.476
0.034
-0.436
-0.707
-0.165
1.545
-0.324
-1.191
-0.711
1.097
-0.199
-1.031
0.854
0.842
-0.287
-0.781
0.059
0.168
0.085
0.058
0.004
-0.504
0.365
0.525
-0.110
-0.309
-0.261
-0.020
-0.248
-0.172
0.450
0.328
-0.454
-0.033
0.271
0.143
-0.465
0.242
-0.301
0.000
-0.280
0.571
0.271
-0.408
-0.321
-0.485
0.500
0.238
0.386
-1.170
-0.014
0.601
0.211
-0.285
-0.554
0.121
-0.276
-0.269
0.351
0.078
0.104
-0.345
0.237
0.216
-0.356
-0.153
-0.170
0.517
0.113
-0.327
-0.065
0.126
0.200
-0.363
-0.469
1.850
-0.166
-1.769
-0.381
0.875
1.622
-0.161
-1.862
-0.215
0.189
0.596
0.170
0.253
-0.268
-0.251
0.140
0.420
-0.740
-0.191
0.393
0.033
-0.403
0.082
0.235
0.078
-0.346
-0.708
0.318
1.122
-0.141
-0.334
-0.322
-0.023
-0.041
-0.006
-0.207
0.371
0.127
-0.130
-0.059
0.881
-0.099
-1.645
0.344
0.847
-0.545
0.062
0.714
-0.183
-0.954
-0.547
0.830
0.739
0.105
-0.165
-0.103
-0.574
-0.343
0.552
0.038
0.041
0.283
-0.246
-0.139
-0.188
0.031
0.080
-0.076
-0.443
-0.057
-0.194
1.764
0.069
-1.868
-0.417
0.961
-0.241
-0.220
0.445
0.894
-1.183
-0.207
0.629
0.519
-0.443
-0.456
-0.523
0.423
0.270
-0.311
0.614
0.494
-1.391
-0.116
-0.029
0.039
0.355
0.515
0.058
0.002
-0.641
-0.287
0.154
-0.394
-0.152
0.111
0.570
0.202
-0.106
-0.162
-0.240
-0.422
0.322
-0.136
-0.152
0.150
0.207
0.081
0.107
-0.105
-0.041
-0.164
-0.011
-0.023
-0.372
-0.110
0.789
0.351
0.281
-2.062
0.743
0.590
-0.994
-0.065
0.861
0.309
-0.272
0.716
-1.136
-0.551
0.886
-0.069
-0.099
-0.559
1.049
-0.586
-0.085
0.063
-0.700
-0.797
0.495
1.658
-0.762
-0.706
-0.223
0.786
0.342
-0.373
-0.440
-0.092
-0.362
0.327
0.911
-0.176
0.061
0.490
-1.440
0.153
0.930
0.341
-0.661
-0.432
0.049
0.425
-0.583
-0.264
1.036
0.547
1.362
-1.683
-2.452
0.960
0.162
-0.750
0.110
0.724
0.463
-0.096
-0.151
-0.150
-0.150
-0.253
0.359
-0.402
-0.039
-0.432
1.401
1.095
-1.329
-0.200
0.767
0.264
-0.521
-1.015
1.111
-0.416
-0.886
0.268
0.547
-0.416
-0.106
0.649
-1.246
-0.165
0.955
-0.156
0.152
0.568
-0.836
-0.859
1.715
0.202
-1.488
-0.416
1.969
1.393
-2.155
-2.812
0.519
2.873
-0.005
-2.095
-0.031
1.396
0.141
0.293
-0.335
-1.646
-0.886
0.833
1.734
1.227
-1.211
-0.389
2.404
2.505
0.852
0.670
-1.144
-0.843
0.009
-0.173
0.056
-0.420
0.515
0.739
0.462
1.226
-2.059
-3.701
-1.991
0.218
-0.017
0.304
0.023
-0.212
-0.448
-0.385
1.148
0.046
1.161
0.374
-1.285
-0.404
1.045
2.196
0.122
0.591
-0.850
-0.445
-0.550
-0.425
0.328
0.391
0.953
1.804
-0.836
-2.416
-0.070
2.409
0.982
-1.304
-2.295
-0.334
0.022
1.007
2.199
1.334
-1.428
-1.585
-2.613
-0.815
1.082
2.487
0.185
-1.980
-1.600
0.283
2.727
1.376
-2.675
0.006
0.399
-0.093
-0.072
-1.307
-0.152
2.320
-0.554
-1.021
0.107
-0.924
-0.805
-0.542
0.053
0.197
0.426
-0.277
0.672
0.314
-1.137
-1.042
0.354
-0.377
0.154
1.254
0.827
-0.248
-1.238
0.876
1.508
-2.382
-0.108
-0.750
-0.201
1.254
0.577
0.265
0.000
0.391
-1.111
-0.189
-0.100
-0.484
0.013
0.781
0.219
-1.024
1.115
1.843
-0.214
-0.966
-0.023
0.673
0.057
-2.194
0.603
0.597
0.801
0.709
-1.107
-0.935
0.617
-0.147
-0.138
-0.208
0.581
0.696
-1.092
-0.606
0.359
0.693
0.481
-0.476
-0.627
0.408
1.605
-1.186
-1.189
0.574
0.248
-0.681
0.117
0.879
-0.691
-1.210
-0.020
0.548
-0.136
0.714
0.211
0.400
-0.455
-1.315
0.126
1.271
0.078
-0.289
0.134
0.060
0.355
0.688
-0.791
0.036
0.145
-1.510
0.200
1.248
1.433
-1.222
-0.418
-0.165
-1.113
-0.343
0.498
1.158
0.587
-1.409
0.435
-0.468
0.678
-0.310
0.021
-0.220
-0.799
0.227
-0.119
1.344
1.403
0.994
-1.633
-3.727
0.226
1.235
0.974
0.290
0.548
-0.572
-0.749
0.273
0.116
-0.350
-1.200
-0.223
1.052
0.983
0.823
-1.092
-0.929
-0.520
1.052
0.159
-0.209
0.428
1.407
0.541
-0.923
-2.455
-0.846
0.644
1.411
0.412
-0.286
0.774
-0.492
-1.872
0.822
1.972
-2.321
-2.168
1.952
1.717
1.695
-0.326
-1.873
-2.727
0.901
1.348
1.037
-0.567
1.898
-1.071
-1.033
0.646
-1.534
0.423
0.840
-0.365
-0.396
-1.033
1.115
-0.350
-0.169
1.695
-0.817
-2.045
0.883
2.200
-0.283
-1.358
0.090
0.802
-2.399
1.357
0.182
-1.107
0.325
2.518
0.594
-0.648
-1.791
-0.793
-2.380
0.874
2.346
-0.193
-0.091
0.845
-1.670
-0.086
-0.219
-0.561
0.678
1.198
-1.073
-0.030
-0.874
0.729
0.628
0.013
1.021
-0.776
-0.031
0.276
-1.986
-0.949
1.953
0.318
-0.369
0.054
-0.044
0.024
-0.107
0.710
-1.723
-1.471
2.077
2.295
-2.114
-1.877
1.247
1.726
1.915
-0.535
0.709
-0.525
-3.122
1.210
0.823
-2.871
-0.493
1.234
1.244
1.173
-0.897
1.458
-1.377
-3.587
1.009
2.231
2.354
0.210
-1.912
-0.280
0.388
0.390
0.377
-0.789
-1.563
0.515
1.036
0.495
0.621
-2.753
0.541
1.061
-1.656
0.017
0.540
0.948
-0.525
-0.155
-0.269
-0.240
0.063
0.824
0.693
0.715
-0.512
-0.856
0.385
-0.820
0.626
-0.324
0.361
-0.040
0.238
0.242
-1.648
0.427
0.280
-0.657
0.479
0.790
0.833
-0.363
-2.320
0.613
0.989
0.932
0.380
-0.447
-1.037
0.270
0.517
0.080
-0.710
0.147
1.185
-0.965
-0.411
-2.214
1.014
1.327
0.462
-1.769
-0.025
0.599
-0.533
-1.137
0.187
1.535
0.101
0.550
-0.967
-1.849
0.728
0.933
0.411
-0.422
-0.131
0.166
0.537
0.366
-0.418
-0.539
-0.689
-0.626
0.611
0.038
0.105
0.194
1.243
0.016
-0.330
-0.733
-1.455
-0.726
0.790
0.521
1.512
0.266
-1.154
-0.489
-0.096
0.473
0.223
0.043
-0.743
0.855
0.418
-1.436
-0.145
-0.954
1.001
1.356
-0.493
-0.892
-0.411
0.587
0.508
-0.318
0.033
-0.147
1.220
0.097
-1.236
-1.537
-0.511
1.445
1.263
0.340
0.818
-0.454
-2.496
-0.808
0.837
1.603
-0.029
-1.423
0.172
-0.047
-0.530
0.398
1.390
0.542
-1.159
0.731
0.022
-1.928
0.238
1.664
0.605
-1.342
-1.576
0.290
0.732
0.497
0.962
-0.844
-2.322
-0.219
0.893
2.094
-0.613
0.174
1.032
-1.562
-2.056
0.529
0.547
0.095
2.393
-0.246
-1.473
-1.029
-0.025
-0.366
0.300
1.038
1.009
-0.749
-1.045
-0.016
0.512
-0.288
-0.319
-0.138
0.449
0.846
-0.709
-0.822
0.821
0.161
-1.368
-1.184
0.020
1.007
0.724
0.225
0.722
1.166
-1.667
-2.235
0.489
0.843
0.589
-0.594
0.903
1.565
0.647
-1.200
-1.611
-0.144
-1.017
0.674
0.041
1.653
2.053
-2.216
-1.150
0.403
0.994
-0.921
-2.295
-0.531
1.639
1.640
1.108
-1.250
-1.364
0.500
0.289
0.358
1.604
-1.687
-3.061
0.435
2.126
2.011
1.169
-0.351
-1.638
0.129
-0.995
-0.300
0.385
1.063
-1.822
-0.221
1.697
-0.072
0.124
1.987
-1.469
-3.071
1.076
-0.309
1.514
-0.427
1.304
-0.334
0.406
-2.667
0.271
1.844
-0.155
-1.562
-0.622
1.996
1.954
-1.055
-0.897
0.109
-0.759
-1.159
0.139
1.339
0.344
-1.120
-0.094
2.593
-1.327
-1.630
0.904
-0.973
-0.818
0.823
1.412
2.990
-1.443
-1.538
0.895
-0.047
2.866
-0.172
-3.008
-1.728
-1.687
1.006
2.195
-0.845
1.019
1.359
-2.593
-0.976
0.856
-0.397
0.400
2.399
-0.186
-2.968
-1.317
2.016
2.943
1.403
-2.550
-2.488
1.229
0.702
2.354
1.761
-2.256
-2.440
-0.508
0.011
1.390
1.736
0.203
1.462
0.113
-3.238
0.577
2.082
-1.225
1.844
1.031
-0.452
-3.190
-0.951
2.540
-0.420
-1.471
2.251
0.736
-2.902
-1.401
0.892
2.873
1.968
1.281
0.247
0.376
-0.383
-3.298
0.664
-0.241
-0.550
2.287
1.102
-1.913
1.200
1.548
0.688
-1.109
-0.650
-1.771
-3.397
0.956
2.728
0.073
-1.176
0.590
1.686
-1.384
-2.125
1.604
0.761
-0.313
2.748
-0.551
-2.725
1.174
-0.693
0.449
0.681
1.187
0.040
0.307
0.362
-2.406
-1.989
0.645
1.527
1.202
0.023
-1.176
-1.396
1.497
0.616
-0.594
1.166
0.120
-1.800
0.818
0.405
-1.291
-1.185
0.435
0.863
1.448
0.254
-1.795
-0.792
-0.558
-0.930
0.414
-0.597
0.779
1.986
-0.863
-0.978
0.202
0.411
-0.113
-1.041
-0.372
0.462
0.908
-0.151
-0.594
-0.091
0.473
0.758
-0.552
-0.967
-0.424
0.455
0.469
0.296
-0.511
-0.465
0.475
0.723
0.317
-0.363
-0.993
-0.071
0.637
-0.760
0.031
0.968
0.470
-2.299
-0.031
1.018
-0.034
0.024
0.960
0.338
-0.619
-0.320
-0.381
-0.465
0.315
0.493
0.164
0.229
-0.075
0.086
-0.015
-0.788
-0.274
0.915
0.747
-1.141
-0.796
0.031
1.352
0.776
-1.427
0.038
0.804
-0.026
-1.000
0.025
1.407
0.086
-1.899
0.177
0.424
0.048
0.235
-0.056
0.158
-0.069
-0.719
-0.732
0.466
0.585
0.201
0.135
-0.790
-0.372
0.212
-0.220
0.216
-0.102
-0.373
0.283
0.342
-0.129
-0.363
0.128
-0.021
-0.462
0.673
-0.848
0.156
0.621
0.295
-0.042
-0.098
-0.155
0.829
-1.297
0.313
0.354
-0.514
-0.535
0.433
0.625
-0.211
-1.165
-0.025
1.210
0.192
-0.377
-0.046
0.735
-1.170
-0.539
1.036
-0.162
-0.397
0.008
0.413
0.001
-0.537
0.620
-0.539
-0.476
0.343
-0.361
0.005
-0.028
0.143
0.033
0.069
-0.108
-0.250
0.310
0.251
-0.413
-0.269
0.041
0.381
0.285
0.223
-0.465
-0.089
0.138
0.170
-0.216
-0.010
0.257
1.655
-1.881
-1.458
0.901
1.128
0.517
-0.434
-0.064
-0.052
-0.168
-0.239
-0.314
-0.068
-0.152
0.199
0.492
0.359
-0.366
-0.276
-0.286
-0.370
0.169
0.063
0.615
0.165
0.154
-0.623
-0.627
1.334
0.042
0.025
-0.682
-0.940
-0.073
1.349
0.168
-0.086
-0.258
-0.085
0.166
0.217
-0.166
-1.133
0.116
0.133
0.134
0.727
0.129
-0.163
-0.156
-0.111
-0.052
-0.266
-0.011
0.384
0.346
-0.039
-1.186
-0.000
0.013
0.285
-0.116
-0.160
0.192
-0.278
0.132
0.298
-0.098
-0.340
-0.405
-0.303
0.774
0.217
0.175
-0.116
0.312
0.776
-2.628
0.155
0.887
0.256
0.202
0.026
0.006
-0.380
-0.368
0.604
-0.129
-1.778
0.808
0.268
0.643
0.423
-1.083
-0.747
0.292
0.013
0.368
0.116
0.475
0.576
-0.656
-1.024
0.218
0.331
-0.243
0.095
0.048
-0.137
0.437
0.086
-0.832
-0.365
0.488
0.934
-1.265
-0.170
0.302
0.191
-0.174
-0.152
-0.043
0.616
-0.328
-0.952
-0.069
0.518
0.589
0.166
0.268
-0.574
-1.749
0.349
1.104
0.073
-0.314
0.128
-0.289
-0.291
0.112
0.255
0.167
2.295
-0.593
-2.369
-0.917
1.114
-0.585
-0.239
1.328
1.940
0.217
-2.163
-2.025
-0.186
0.815
0.350
0.360
1.360
1.001
-1.933
-1.679
1.064
0.941
-1.391
0.795
-0.167
-0.480
1.303
-1.127
-0.188
1.481
-0.552
-1.279
0.807
1.418
1.483
-2.074
-3.092
1.276
1.255
0.214
0.073
0.606
0.638
1.491
-1.216
-2.660
0.800
-0.946
-0.033
0.587
-0.887
1.506
0.969
-1.512
-0.694
0.188
0.479
-0.332
0.263
0.655
-0.702
-2.573
0.589
1.771
1.972
-0.135
0.757
-1.275
-1.990
-1.844
1.834
2.448
-0.318
-0.525
-1.071
-2.296
0.216
1.991
0.801
-1.858
1.135
1.060
-0.359
-2.223
-0.027
2.435
1.030
0.008
-1.432
-1.310
-0.600
2.266
0.425
0.369
0.128
-2.191
-1.586
1.888
1.928
-1.862
-1.416
1.127
0.843
-1.187
0.177
2.914
1.975
-2.727
-0.464
2.018
-1.937
-0.294
0.982
1.793
1.802
1.618
-2.455
-3.983
-2.183
2.266
3.160
-0.802
-2.441
0.683
1.686
-0.830
2.490
0.180
0.294
0.483
-1.968
-3.539
0.273
3.333
0.628
-1.550
-0.974
-0.005
1.522
1.639
-0.481
-3.090
0.761
3.413
-0.882
-2.016
1.658
1.892
-0.299
-0.865
2.040
-0.648
-2.120
0.811
0.094
-0.189
2.465
-0.852
-1.840
0.109
2.262
2.464
-0.806
-2.218
0.105
2.792
0.791
-2.429
-1.378
2.523
2.280
-1.744
0.784
-2.060
-2.136
-0.157
3.009
0.777
-3.068
-1.965
2.254
1.375
1.370
0.742
1.868
-0.477
-3.061
-2.410
-0.135
2.298
2.064
1.019
-0.611
-2.298
-3.181
1.946
1.006
-0.999
-1.409
0.770
1.237
0.168
-0.184
0.350
-2.030
-0.171
2.985
0.900
-0.594
1.187
-1.491
0.607
0.150
-3.093
1.342
2.421
1.317
1.549
0.398
-0.283
-1.132
-3.594
-3.285
1.763
2.900
-0.385
0.359
0.577
-0.508
0.905
0.480
-1.198
-3.583
0.415
1.687
2.082
0.875
-1.579
-0.361
2.052
0.587
-2.374
-3.407
1.388
0.271
-1.176
1.888
1.798
0.289
-0.251
-2.471
0.017
0.503
0.780
-0.738
-0.394
0.413
0.298
0.061
1.254
-0.630
-2.238
-0.114
1.439
1.346
-0.316
0.102
-0.320
-0.254
-1.349
-0.195
1.298
1.411
-0.942
-1.124
0.957
3.093
-1.191
-2.482
1.783
2.341
-0.941
0.883
-1.090
-0.631
0.056
-0.500
-1.002
1.202
1.458
-1.279
-1.512
-0.222
0.926
0.216
-0.585
0.163
0.183
0.501
-0.508
-0.550
0.292
0.659
0.359
-0.089
-0.715
0.258
0.427
1.272
0.216
-1.714
-1.137
0.026
1.712
0.855
0.457
0.499
-1.360
-0.793
-0.212
0.412
0.668
0.044
0.180
0.768
-0.041
-0.281
-0.218
-0.406
0.367
0.245
0.182
0.502
-0.548
-1.186
0.106
0.477
0.854
-0.484
-0.963
0.835
0.457
-0.677
-0.354
-0.112
0.148
0.376
0.392
0.247
0.008
-1.511
-0.161
1.662
0.781
-1.770
-0.166
0.277
0.256
-0.080
-0.378
-0.979
-0.134
1.165
1.552
-0.427
0.220
-0.189
-0.152
0.079
0.128
-0.042
0.096
0.245
0.335
0.131
-0.316
-0.463
0.331
-0.248
-0.271
-0.306
-0.349
-0.328
-0.128
0.004
0.174
-0.080
-0.268
-0.259
-0.426
1.425
0.041
-0.510
-0.826
0.166
0.176
0.350
0.139
0.002
0.063
0.579
-0.762
-0.457
0.277
0.158
-0.043
0.315
0.815
0.204
-1.265
-0.113
0.026
0.340
0.782
0.023
-1.092
0.482
-0.017
-1.156
0.018
0.275
-0.918
1.055
2.123
-1.521
-3.468
-1.973
-0.404
0.856
0.830
0.192
0.186
0.140
0.647
-0.300
-0.743
-0.579
-0.550
-0.232
-0.155
0.089
0.394
0.287
-0.097
0.455
-0.830
-0.435
0.256
-0.173
1.801
-0.632
-1.377
0.206
-0.061
-0.255
0.655
0.384
-1.035
-0.656
0.220
0.701
-0.670
-0.285
0.414
0.099
0.193
-0.825
-0.876
-0.040
0.381
0.142
-0.178
-0.822
0.677
-0.554
-0.338
0.123
-1.056
-0.061
0.437
0.773
-0.043
-0.664
-0.183
0.804
-0.452
0.376
-0.415
0.446
0.103
-0.619
0.426
0.376
0.140
-0.522
-0.351
-0.034
0.746
0.354
-0.119
-0.350
0.011
0.107
-0.032
0.272
0.175
0.360
-0.614
1.277
-0.964
-0.775
0.379
-0.301
0.942
0.147
0.029
-0.114
0.024
-0.274
-0.619
-0.058
0.516
0.369
0.059
-0.276
-0.074
0.441
0.233
-0.552
0.204
-0.138
-0.436
0.591
0.463
-0.162
-0.290
-0.464
-0.579
0.352
0.567
0.220
-0.053
-0.117
-1.001
-0.325
0.775
-0.218
-0.468
0.364
0.067
0.758
-0.209
-1.857
1.239
0.217
-1.965
0.111
1.839
0.680
-1.137
-0.501
-0.170
1.484
-0.867
-1.204
-0.179
0.378
0.139
1.000
0.849
-1.184
0.211
0.709
-2.133
0.835
0.949
0.075
-0.975
-0.487
1.248
1.238
0.095
-0.504
-1.196
-1.390
-0.428
0.701
-0.171
-0.424
-0.148
1.443
1.577
-0.772
-2.165
-0.069
1.108
0.544
2.264
-0.529
-2.850
0.230
0.333
0.590
0.958
1.295
-0.494
-1.618
-0.733
2.159
0.344
-2.034
-1.990
0.732
-0.002
1.915
0.870
0.321
-0.727
1.364
-1.444
-3.513
1.671
2.562
3.377
-1.050
-1.935
2.110
-0.162
0.109
-0.603
-3.431
-0.689
2.687
3.229
3.324
-1.544
-3.720
-0.833
2.179
2.223
-1.344
-2.671
-1.065
1.844
-0.199
0.063
1.386
1.574
-0.373
-2.451
-2.530
-0.591
1.281
2.082
1.755
-0.291
0.358
1.379
-1.691
-2.783
1.629
-0.396
-0.814
2.561
-1.513
-1.245
1.620
1.941
1.344
0.767
-2.564
-1.612
1.561
1.619
-0.517
-0.836
0.641
2.479
-0.664
-3.426
-0.368
3.023
1.868
0.389
-1.117
0.355
-0.907
-2.824
-0.996
2.473
2.651
-0.487
-2.740
-0.193
1.935
0.343
-0.460
0.927
-2.326
-0.170
0.611
1.828
2.593
-1.426
-3.479
-2.262
1.688
0.978
2.189
-2.217
-2.028
2.581
2.786
0.513
0.740
0.143
-3.008
-1.975
-0.770
-0.190
-2.214
2.565
-1.369
-2.007
2.169
3.991
-0.221
-2.787
-1.442
1.080
-1.068
1.677
1.860
1.913
-1.826
0.231
-1.117
0.300
1.770
3.148
-0.296
-2.602
-1.477
2.291
2.469
-1.482
-2.907
-0.166
0.737
0.547
-1.272
0.376
1.711
-0.007
-2.956
0.629
2.884
-0.994
-3.267
1.282
-1.059
-0.158
0.265
0.643
0.972
0.700
-0.068
-1.165
0.778
0.231
-1.960
0.709
2.641
0.732
-1.877
-2.689
1.296
2.049
-0.789
0.473
-1.335
1.267
-2.309
-0.318
1.272
3.493
-1.334
-1.496
2.175
1.287
-1.786
-1.082
2.423
2.551
0.418
-2.485
-1.369
0.519
1.407
-1.416
0.499
2.477
-1.332
-2.021
0.451
0.679
0.225
-0.914
0.811
2.495
0.390
-2.427
-1.556
2.107
0.859
-2.789
-0.012
1.811
0.568
-0.518
-0.816
0.577
2.052
-1.068
-1.400
-0.181
0.615
1.853
-1.851
-0.478
0.080
0.475
-0.387
-0.174
0.971
0.113
-0.060
0.207
-1.106
0.234
-0.591
0.399
-0.151
-1.163
0.857
0.695
0.561
-0.070
0.346
-0.040
-0.958
-0.873
-0.600
0.365
0.490
1.045
-0.292
-0.157
0.286
0.281
-0.225
-0.097
0.669
-0.629
-1.311
-0.623
0.019
1.005
1.238
0.702
-0.053
-1.216
-1.303
-0.549
0.682
-0.684
0.953
0.074
-1.170
-0.697
1.295
-0.198
-0.009
1.221
-2.492
-0.989
0.965
1.153
0.393
-0.451
-0.321
-0.577
-0.177
1.281
0.731
-1.375
-0.715
1.173
0.724
-0.758
-0.086
0.462
-0.166
-0.359
0.211
0.187
-0.098
0.055
0.039
-0.068
-0.093
-0.229
0.215
-0.048
-0.111
-0.076
-0.043
0.142
-0.012
-0.245
1.194
-0.321
-0.320
-0.198
0.026
-0.203
0.053
0.362
0.026
0.337
0.822
-0.539
-0.958
-0.335
0.438
0.301
-0.116
0.580
-0.278
-0.499
0.002
-0.020
0.075
0.057
0.332
0.142
-0.596
-0.301
0.174
-0.134
-0.264
0.227
0.130
-0.003
-0.160
0.356
-0.302
-0.686
0.282
-0.606
0.777
0.618
-0.535
-1.119
0.080
1.399
-0.432
-0.912
0.117
0.460
-0.278
-0.338
0.036
0.106
0.265
-0.105
0.165
-0.283
-0.062
-0.387
0.702
0.796
-1.558
-0.774
1.249
0.267
-0.712
-0.010
0.530
0.360
-0.603
-0.365
-0.763
0.883
0.981
-1.380
-0.175
0.180
0.053
0.050
-0.084
-0.014
-0.112
-0.115
0.513
0.108
-0.592
-0.178
0.560
-0.146
-0.064
0.105
-0.119
-0.107
0.453
0.210
-0.600
-0.083
0.121
0.838
-0.897
0.710
-1.206
-1.510
1.732
0.536
0.360
-0.348
0.130
-0.283
-0.357
-0.224
0.260
0.832
0.063
-0.386
-0.102
0.163
0.389
-0.023
-0.634
0.091
0.416
0.247
-0.365
-0.102
-0.178
-0.326
0.162
0.441
-0.155
0.165
-0.136
-0.574
-0.078
0.215
0.197
0.440
0.298
-1.257
-0.364
0.263
0.104
0.022
-0.094
0.152
0.110
0.311
1.182
-1.500
-1.788
0.844
1.146
0.082
0.166
0.016
-0.233
-0.116
-0.284
-0.136
0.388
0.187
-0.716
0.098
0.222
-0.071
0.069
0.024
-0.044
0.026
0.241
-0.498
-0.258
0.381
0.010
0.351
0.061
-1.022
-0.194
0.418
0.503
0.018
-0.169
0.126
-0.149
-0.118
-0.345
0.114
0.141
0.021
0.486
-0.853
-0.088
0.456
0.400
-0.649
0.491
0.559
-1.855
0.832
0.146
0.176
0.088
-0.059
-0.186
-0.173
1.389
-0.211
-1.437
-0.465
0.894
0.187
0.063
-0.284
-0.077
0.073
0.314
-0.199
-0.347
-0.091
-0.042
-0.070
-0.010
0.229
-0.066
0.200
-0.190
0.087
-0.441
-0.193
0.540
-0.028
0.672
-0.816
-0.018
-1.092
0.226
0.850
-0.272
0.162
0.131
-0.037
-0.162
0.033
-0.846
-0.217
0.957
-0.199
-0.209
1.557
-0.809
-1.817
-0.116
1.525
0.125
-0.460
0.100
-0.486
0.534
1.582
-2.139
-1.565
1.316
1.384
-0.896
-0.688
0.577
-0.180
-0.320
-0.077
0.198
-0.019
-0.123
0.483
0.753
-1.184
0.009
-0.188
0.027
-0.085
0.086
0.426
0.698
0.373
-0.637
-0.890
-0.416
-0.077
0.256
0.295
0.667
0.526
-1.802
-0.551
0.838
0.393
0.311
0.050
-1.609
0.613
0.654
0.440
-1.161
0.585
-0.328
-0.904
1.528
-0.508
-0.264
0.010
0.293
0.521
-0.376
-0.234
-0.479
0.523
0.403
-0.122
-0.161
-0.431
0.980
0.072
-0.008
-0.863
0.528
-0.024
-0.630
-1.100
0.328
0.474
-0.225
0.072
0.226
0.136
0.318
-1.546
0.693
2.336
-1.804
-1.827
1.996
0.770
-1.182
1.392
0.346
-1.082
-0.298
1.085
-0.700
-0.614
1.352
0.120
-1.929
-0.283
2.886
-0.934
-2.202
-0.807
-0.112
1.816
1.422
-1.413
-0.797
0.695
0.347
0.397
0.072
-2.143
-0.871
1.438
1.252
0.312
-0.525
1.492
-0.152
-2.554
0.882
-0.502
0.354
-0.766
-0.483
0.804
0.761
-0.054
-0.270
0.991
-1.164
-1.002
1.489
0.547
-1.411
-1.041
0.793
-0.820
2.053
2.422
-1.271
-3.356
-2.790
-1.803
1.963
3.815
-0.819
-2.357
1.612
-1.356
-2.433
1.099
3.494
0.877
-1.579
1.260
1.125
-2.180
-3.301
0.967
3.369
2.469
0.045
-2.935
0.204
-0.381
0.480
0.419
-2.943
-1.102
1.325
3.129
-1.487
-1.911
1.658
1.712
-1.551
-0.555
-2.161
0.251
0.817
2.496
0.868
-3.049
1.135
2.391
-1.022
-2.699
1.771
-0.835
1.152
-1.069
0.160
2.597
0.700
-1.740
-2.570
2.132
0.379
-0.187
1.250
0.764
-0.942
-2.949
-0.303
2.460
3.960
-0.828
-2.933
1.904
1.722
0.916
0.341
3.050
-1.565
-3.330
1.856
0.902
3.156
-1.291
-3.578
0.436
3.323
2.078
-1.068
-3.269
1.406
3.633
1.359
0.871
-3.042
1.173
-0.326
-1.502
1.709
3.380
3.512
-2.178
-1.053
2.753
1.168
-2.395
-2.584
-0.133
2.372
3.015
-0.985
-1.050
-2.102
-1.555
2.682
1.660
1.190
0.842
-2.643
-2.131
2.475
1.818
2.233
0.863
-1.977
-0.237
2.332
-0.854
-2.733
0.566
3.179
1.356
-2.383
0.449
3.120
1.424
-1.838
-2.821
-2.402
1.591
3.401
2.236
0.161
-0.974
-3.460
0.137
1.122
1.140
2.665
-0.527
-2.052
-1.381
-0.655
1.783
2.531
-0.945
-1.114
0.736
2.769
-0.530
-3.501
-0.465
0.061
1.851
1.512
-0.850
-1.935
1.440
0.243
-0.651
-1.025
-1.049
-0.135
1.634
-0.099
-0.764
-1.177
1.977
-0.647
-3.218
1.394
2.312
-1.614
-1.094
1.273
0.380
-0.311
0.517
0.318
-1.722
0.286
0.268
-0.086
-0.631
0.487
1.269
-0.483
-0.667
0.941
1.716
-1.348
-1.357
1.266
-0.281
-0.179
-0.430
0.181
0.664
-0.032
-0.254
-0.278
0.292
1.113
-0.344
-1.931
-0.299
1.525
0.959
-0.063
-0.886
-1.329
0.113
1.193
-1.628
0.149
0.878
-0.037
-0.377
0.205
0.200
0.557
-0.801
-0.603
0.172
0.412
0.296
-0.096
-0.083
0.105
0.061
-0.010
-0.040
-0.363
0.030
0.158
-0.131
-0.183
0.063
-0.082
-0.049
-0.144
-0.155
0.247
0.050
-0.267
0.053
0.169
-0.221
-0.388
0.179
-0.052
0.246
0.478
-0.344
-0.086
-0.858
-0.267
0.440
-0.138
-0.386
0.810
0.138
0.292
1.251
-2.297
-0.786
0.998
0.748
-0.252
0.338
-0.157
-0.298
0.162
0.413
0.106
-0.172
-0.147
0.202
0.316
-0.651
0.073
-0.455
0.453
-0.020
-0.329
-0.038
-0.012
0.007
-0.033
0.173
-0.493
-0.055
0.205
0.442
-0.072
-0.228
0.130
-0.288
-0.108
0.064
0.144
0.167
0.263
0.070
-0.819
0.280
1.023
-1.866
0.140
0.824
-0.293
-0.312
0.111
0.348
0.571
-0.736
-0.259
0.204
0.035
0.085
-0.090
-0.151
0.620
-0.310
-0.136
0.751
-0.572
-0.237
0.149
-0.088
0.018
0.235
0.439
0.152
-1.274
0.001
0.447
0.167
-0.409
-0.114
0.693
-0.116
-0.003
-0.288
-0.824
0.143
0.471
0.697
-0.642
-0.774
0.462
0.300
-0.830
-0.438
0.466
0.156
0.064
0.213
0.043
-0.494
-0.813
0.623
0.364
-0.487
0.471
-0.371
0.741
-0.954
-0.238
-0.020
0.350
0.027
0.033
0.229
-0.166
-0.018
-0.278
-0.046
0.035
-0.118
0.437
0.089
0.215
-0.204
-0.430
-0.073
0.204
0.123
0.041
-0.008
-0.224
0.180
-0.025
-0.040
-0.065
-0.333
0.082
-0.295
0.318
-0.329
0.228
0.840
-1.021
-0.234
0.514
0.723
-0.804
-0.431
-0.118
0.136
0.859
0.131
-0.648
-0.741
0.167
0.407
1.216
-0.700
-0.445
-0.054
0.948
-0.794
-0.403
-0.051
1.053
-0.670
-0.285
0.289
0.205
-0.075
0.197
0.512
-1.637
-0.209
0.203
0.532
0.416
0.538
0.052
-1.201
0.073
-0.045
-0.160
0.172
-0.165
0.183
0.190
-0.327
0.083
0.980
-1.144
-0.648
0.019
0.484
0.387
-0.020
0.381
-1.134
0.599
-0.024
-0.522
0.128
0.267
0.124
-0.248
-0.082
0.179
0.219
-0.268
-0.267
-0.033
1.003
-0.224
-0.658
-0.417
-0.025
0.069
0.152
0.173
0.202
-0.122
0.012
-0.169
-0.331
-0.127
0.207
0.234
-0.042
0.463
-0.483
0.030
-0.581
0.398
0.183
-0.057
-0.734
0.084
0.766
0.059
-0.368
0.136
-0.112
-0.233
0.179
0.057
-0.195
-0.002
0.104
0.479
0.053
-0.028
-0.449
-0.224
0.211
0.197
0.034
-0.135
-0.054
0.289
-0.111
-0.177
0.066
-0.599
0.061
0.615
-0.344
-0.349
0.159
0.130
0.010
0.079
-0.046
-0.814
-0.141
0.432
-0.204
-0.046
0.284
-0.090
-0.103
0.619
-0.513
-0.340
0.508
0.270
-1.327
-0.133
0.958
1.290
-1.518
-0.292
0.095
0.187
0.117
0.114
-0.075
0.236
0.058
-0.429
0.065
0.657
-0.701
-0.202
0.400
0.085
0.047
-0.116
-0.415
0.088
0.312
-0.110
-0.311
-0.216
-0.000
-0.036
0.548
0.057
-0.350
-0.312
-0.138
0.274
0.298
-0.259
-0.035
-0.275
0.256
-0.154
0.539
-0.252
-0.251
-0.300
0.253
0.387
-0.432
-0.002
-0.115
-0.004
0.142
-0.021
0.157
0.189
-0.374
-0.361
0.004
0.162
-0.085
0.093
-0.103
0.061
0.108
0.173
0.015
-0.740
-0.118
0.225
0.034
0.162
0.030
-0.039
0.126
-0.048
-0.164
-0.014
0.045
-0.098
0.405
0.031
-1.137
-0.351
0.625
0.718
-0.160
0.129
-0.318
-0.354
-0.347
0.169
0.131
0.010
-0.336
-0.236
0.850
-0.101
-0.790
0.203
0.289
-0.460
-0.007
0.304
-0.239
0.132
-0.103
-0.009
-0.088
-0.244
0.298
0.291
-0.268
-0.108
0.097
0.047
0.338
0.309
0.303
-0.388
-0.948
-0.544
0.339
1.288
-0.320
-0.937
0.455
-0.252
-0.214
0.102
0.347
-0.674
-0.030
0.335
0.199
-0.175
0.079
0.046
-0.095
0.037
0.079
0.072
0.001
-0.013
0.094
-0.134
0.170
-0.245
0.062
-0.039
-0.542
0.029
0.379
0.219
0.896
-0.929
-1.086
0.903
0.323
-0.573
0.016
0.122
0.767
-0.045
-0.286
-0.114
-0.321
0.155
0.188
0.154
0.069
-0.298
0.175
0.085
-0.621
-0.274
0.970
0.192
-0.744
-0.296
0.025
0.314
0.331
-0.334
0.109
-0.365
-0.365
0.054
0.270
0.310
0.047
-0.075
-0.161
-0.113
0.151
-0.001
-0.492
0.031
0.397
-0.555
-0.144
0.291
0.096
0.338
0.153
-0.337
-0.249
0.121
-0.045
0.020
0.089
-0.202
-0.497
0.108
0.365
0.319
0.081
-0.168
-0.131
0.110
-0.258
-0.210
-0.177
0.130
0.371
0.137
-0.410
0.046
0.382
0.269
-1.152
0.015
0.439
0.303
0.245
-0.707
-0.576
0.897
0.066
-1.259
0.554
0.232
-0.156
-0.121
-0.074
0.435
0.193
-0.291
0.042
0.279
-0.418
-0.610
0.517
0.538
-0.224
-0.252
0.174
0.319
0.067
-0.367
-0.522
-0.021
0.411
0.105
-0.211
0.212
0.118
-0.579
-0.361
0.455
0.322
-0.379
0.070
0.704
-0.524
-0.600
0.391
0.423
-0.329
-0.325
-0.121
0.042
0.215
0.124
-0.017
-0.022
-0.137
-0.075
0.040
-0.092
-0.591
0.868
0.366
-0.545
-0.201
-0.091
0.348
0.537
-0.384
-0.354
0.110
-0.357
0.268
0.424
0.026
-0.079
-0.463
-0.212
-0.096
-0.273
0.246
0.407
-0.200
-0.275
0.108
0.112
0.019
-0.136
-0.468
0.171
0.268
-0.031
-0.170
0.347
-0.112
0.020
0.048
-0.294
0.008
-0.104
0.092
-0.046
0.044
-0.021
0.091
0.084
0.056
-0.688
0.068
0.571
-0.112
-0.440
0.208
0.292
-0.538
-0.150
0.092
0.202
-0.067
-0.037
0.311
-0.132
-0.244
-0.106
0.001
0.334
0.147
-0.393
-0.011
0.339
0.006
-0.064
0.073
0.096
-0.184
0.232
-0.097
-0.535
0.199
0.141
-0.354
0.159
0.260
-0.235
0.200
0.065
-0.113
-0.173
0.075
-0.015
-0.179
-0.067
-0.042
0.198
0.262
-0.421
-0.484
-0.073
0.947
-0.050
-0.991
0.074
0.488
0.159
0.165
0.190
-0.472
-0.228
0.043
0.147
0.379
-0.286
-0.228
-0.069
0.348
0.124
0.049
-0.224
-0.182
0.490
-0.585
-0.375
-0.113
0.126
0.205
0.051
-0.014
0.041
-0.010
-0.138
-0.182
-0.134
0.053
0.093
0.556
-0.609
-0.259
0.265
0.275
-0.176
-0.141
0.003
-0.120
0.012
-0.068
0.092
0.085
-0.075
-0.093
-0.168
-0.115
0.005
0.403
-0.304
-0.000
0.379
-0.156
-0.571
-0.352
0.111
0.597
0.226
-0.561
-0.413
0.088
0.130
0.017
0.054
0.163
0.037
-0.385
0.068
-0.132
0.722
-0.006
-1.016
0.323
0.530
-0.339
-0.035
-0.095
0.022
0.250
0.303
-0.548
-0.858
0.574
0.347
-0.226
-0.332
0.333
-0.030
0.189
-0.423
-0.355
0.224
0.159
0.112
-0.041
-0.278
-0.113
0.334
0.379
-0.611
-0.148
0.198
0.184
-0.132
-0.003
-0.029
-0.071
-0.023
0.060
0.066
0.053
-0.470
-0.033
0.179
0.275
0.145
-0.109
-0.018
-0.258
0.024
0.073
0.141
0.117
-0.437
-0.461
0.456
0.271
-0.601
0.539
0.564
-1.283
-0.169
1.136
-0.549
-0.616
0.111
0.203
0.057
0.251
0.057
-0.306
-0.098
-0.010
-0.428
0.388
0.158
-0.010
-0.095
0.064
0.255
-0.422
-0.282
0.359
0.192
-0.282
-0.171
-0.028
0.033
0.059
-0.052
0.011
0.026
-0.192
0.053
0.242
-0.104
-0.438
0.089
0.314
-0.198
0.113
0.297
-0.505
-0.018
0.008
0.127
-0.045
-0.029
-0.017
0.038
-0.237
0.005
0.112
0.486
-0.552
-0.382
0.032
0.243
0.145
0.089
-0.210
-0.069
-0.028
0.093
-0.109
-0.100
-0.035
-0.110
-0.058
0.023
0.115
-0.003
0.051
0.080
0.251
-0.398
-0.285
0.025
0.402
-0.133
-0.248
0.064
0.241
-0.025
-0.247
0.056
-0.042
-0.071
0.150
0.393
-0.147
-0.425
-0.095
-0.091
-0.280
-0.002
0.603
-0.125
-0.047
-0.220
0.010
-0.179
0.792
-0.100
-0.858
-0.650
0.760
0.642
-0.288
-0.065
0.062
0.018
-0.094
-0.022
-0.015
-0.037
-0.244
0.121
0.195
-0.059
-0.096
0.194
-0.027
-0.352
-0.197
-0.098
-0.025
0.131
0.197
-0.212
0.036
0.121
-0.116
-0.019
-0.112
0.063
-0.078
0.074
0.083
0.104
-0.279
0.047
0.221
-0.206
-0.095
0.045
-0.067
-0.044
-0.005
0.004
-0.016
0.004
0.054
-0.093
0.001
0.387
-0.460
-0.476
0.231
0.217
-0.001
0.135
-0.104
-0.149
-0.193
-0.234
0.122
0.100
-0.038
-0.102
0.017
0.024
0.096
-0.092
-0.037
-0.184
0.134
-0.008
0.016
-0.129
0.024
0.055
-0.055
0.006
0.085
-0.341
-0.200
0.079
-0.123
0.263
0.081
-0.051
-0.125
-0.175
-0.002
0.132
-0.070
-0.097
0.047
0.102
-0.021
-0.329
-0.087
0.185
0.170
0.102
-0.115
-0.169
-0.191
0.045
-0.142
-0.138
-0.007
0.109
-0.327
-0.100
0.036
0.111
0.240
-0.092
-0.236
-0.099
0.088
0.077
-0.040
-0.499
0.286
0.104
-0.316
0.122
0.283
0.028
-0.301
-0.166
-0.038
0.013
0.132
0.033
0.012
0.020
-0.026
0.021
-0.039
0.060
-0.173
-0.236
0.224
0.072
0.257
0.215
-1.132
-0.120
0.384
0.103
0.011
-0.083
-0.090
0.001
-0.004
-0.140
-0.250
0.057
0.073
-0.039
0.016
-0.041
0.154
-0.049
-0.109
-0.011
-0.005
-0.068
-0.100
0.007
0.023
-0.079
-0.098
-0.023
0.142
-0.029
-0.103
0.077
0.005
0.029
-0.083
-0.044
-0.100
-0.080
0.043
0.064
0.384
-0.263
-0.368
0.194
-0.229
-0.008
-0.033
0.071
0.073
-0.001
0.087
0.005
-0.241
-0.423
0.269
-0.002
-0.046
0.165
0.030
-0.116
-0.122
0.055
-0.009
-0.089
-0.084
-0.040
0.026
0.033
0.280
0.412
-1.463
0.034
1.067
-0.606
-0.437
0.221
0.106
0.064
0.049
-0.143
0.001
0.066
-0.320
-0.066
-0.029
0.237
0.254
0.124
-0.251
-0.175
0.197
0.041
-0.241
0.176
-0.066
-0.049
0.012
0.051
-0.052
-0.203
0.031
-0.053
-0.085
0.147
0.297
-0.469
-0.198
0.145
0.158
0.044
-0.066
-0.037
0.044
-0.320
-0.419
0.114
0.272
0.020
0.713
-0.648
-0.302
0.058
0.253
0.106
-0.238
-0.124
0.007
0.037
0.051
-0.158
0.113
0.055
-0.279
-0.178
0.026
0.144
0.010
0.269
-0.058
-0.116
0.034
0.151
-0.665
-0.040
0.376
0.039
-0.457
0.336
0.199
-0.473
0.279
0.341
-0.277
-0.495
-0.133
0.190
0.287
0.028
-0.015
-0.206
-0.138
0.210
0.064
-0.136
-0.136
-0.197
0.086
-0.143
-0.061
0.082
0.059
-0.206
0.169
-0.234
-0.198
-0.017
0.271
0.372
-0.536
-0.214
0.127
0.322
-0.023
0.041
-0.070
-0.273
0.014
0.101
0.036
-0.108
0.054
0.142
-0.029
-0.092
-0.075
0.059
-0.078
-0.010
0.031
-0.245
0.088
0.089
-0.028
-0.415
0.103
0.028
-0.093
0.003
0.089
-0.093
-0.062
-0.028
0.046
-0.086
-0.045
-0.176
-0.033
0.077
0.258
0.012
-0.160
0.003
-0.086
-0.030
0.048
-0.271
0.033
-0.058
0.013
-0.100
0.187
0.115
0.015
0.023
-0.049
-0.052
-0.123
0.022
-0.058
0.059
0.115
0.030
0.051
0.060
-0.143
0.009
-0.024
-0.086
0.045
0.000
0.167
0.310
-0.436
-0.823
0.140
0.329
0.212
-0.327
-0.398
0.221
0.104
-0.004
-0.086
-0.047
0.037
0.127
-0.180
-0.557
0.050
0.395
0.306
-0.299
-0.082
0.264
-0.143
-0.414
0.132
0.115
0.368
-0.125
-0.164
-0.026
-0.028
-0.017
-0.064
0.051
0.123
0.131
-0.250
-0.119
0.180
-0.119
-0.010
0.069
0.050
0.037
-0.151
-0.119
-0.034
-0.064
0.147
0.045
-0.018
-0.071
-0.123
-0.107
-0.115
-0.008
-0.035
-0.021
-0.017
0.093
-0.078
-0.026
-0.007
-0.038
-0.066
0.036
0.057
-0.044
-0.153
-0.037
-0.043
-0.028
0.068
-0.111
-0.182
0.397
0.106
-0.364
-0.022
0.534
-0.146
-0.469
-0.086
0.383
-0.007
-0.284
-0.168
0.306
0.139
0.026
-0.126
-0.062
0.025
-0.099
-0.118
0.039
0.058
0.250
0.014
-0.699
0.058
0.124
-0.135
0.116
0.073
-0.022
0.012
-0.053
-0.449
0.101
0.026
0.036
0.204
-0.010
-0.100
-0.062
0.022
0.004
-0.052
0.033
0.036
-0.107
-0.114
0.014
-0.029
0.058
-0.194
0.012
0.040
0.135
0.029
-0.026
0.001
-0.256
-0.073
0.181
0.243
-0.219
-0.335
0.021
0.082
0.028
-0.205
0.042
-0.081
0.050
0.025
-0.086
0.163
0.062
-0.063
-0.223
0.086
-0.077
-0.068
0.247
0.085
-0.248
-0.059
0.052
0.002
-0.061
-0.040
-0.261
-0.098
0.016
-0.001
0.110
-0.154
-0.200
0.138
0.100
-0.177
-0.181
0.101
0.017
0.093
-0.022
-0.029
0.133
-0.070
-0.132
-0.079
0.111
0.307
-0.122
-0.937
0.415
0.377
0.285
-0.469
-0.281
0.157
0.116
-0.098
0.076
0.191
-0.674
-0.135
0.170
0.249
0.042
-0.031
-0.105
-0.093
-0.052
0.011
0.097
-0.214
0.143
-0.056
-0.063
-0.088
-0.041
0.045
-0.023
0.212
-0.478
-0.072
0.193
0.281
-0.265
0.268
-0.398
-0.013
0.310
-0.479
-0.189
0.165
0.255
-0.146
-0.156
0.001
0.094
-0.098
-0.081
0.030
0.095
0.086
-0.135
0.043
-0.053
0.003
0.085
0.049
-0.009
-0.039
0.039
-0.001
-0.077
-0.089
0.007
-0.001
0.037
-0.130
-0.057
-0.128
-0.022
-0.065
-0.019
-0.030
0.140
0.006
-0.142
0.041
0.025
-0.063
-0.085
0.000
0.169
-0.011
-0.178
-0.137
-0.034
-0.084
0.078
0.142
-0.085
-0.162
0.318
0.034
-0.284
-0.384
0.133
0.121
0.001
0.044
-0.002
0.027
-0.087
-0.040
-0.126
-0.031
0.123
0.028
-0.275
0.071
0.130
0.261
-0.324
0.009
-0.036
-0.036
0.015
-0.251
0.072
0.066
0.035
-0.131
0.002
0.132
0.031
-0.402
-0.008
0.088
0.199
0.060
-0.098
-0.162
-0.028
0.064
-0.087
0.012
-0.058
-0.044
0.008
0.146
-0.011
-0.085
0.185
-0.219
-0.416
0.138
0.285
0.031
-0.443
-0.232
0.400
0.283
0.024
-0.534
-0.084
0.174
0.035
0.059
0.087
-0.005
-0.044
0.043
-0.174
-0.068
0.012
0.049
0.030
-0.164
0.043
-0.069
0.030
0.015
0.048
-0.074
0.036
-0.011
-0.037
0.333
-0.842
0.111
0.151
0.382
-0.167
-0.254
-0.292
0.142
0.424
-0.070
-0.160
-0.004
-0.101
0.049
-0.111
-0.020
0.311
0.187
-0.092
-0.136
-0.071
-0.079
-0.012
0.225
0.067
-0.032
-0.151
-0.034
-0.174
-0.156
0.052
0.081
-0.063
0.045
-0.046
0.023
-0.066
-0.069
-0.025
-0.184
0.047
-0.019
0.033
-0.090
-0.028
-0.032
-0.163
-0.073
-0.105
-0.039
0.050
0.136
0.013
0.065
0.072
-0.126
0.019
-0.075
-0.127
0.010
0.109
-0.002
-0.079
0.054
0.091
-0.087
-0.074
-0.042
0.069
0.025
-0.027
-0.086
-0.018
0.105
-0.072
-0.106
0.042
0.085
-0.009
-0.029
0.091
-0.507
0.039
0.362
-0.100
-0.485
-0.033
0.131
0.096
-0.025
0.027
0.138
-0.114
-0.341
0.182
-0.065
-0.296
-0.015
0.147
0.132
-0.039
0.002
-0.050
-0.116
-0.054
-0.116
-0.036
0.183
-0.006
-0.015
-0.010
0.100
-0.140
-0.002
0.145
-0.029
-0.438
0.032
0.211
0.037
0.035
0.058
-0.061
-0.023
-0.075
-0.057
0.003
-0.008
0.001
-0.078
-0.080
-0.058
0.110
0.090
0.149
-0.299
-0.194
0.058
-0.044
-0.008
0.116
0.054
-0.004
-0.192
0.007
0.070
0.055
-0.185
-0.094
0.023
0.168
-0.064
-0.116
-0.039
0.088
0.021
-0.004
-0.139
-0.107
0.119
0.062
0.089
0.013
-0.051
-0.039
-0.057
0.063
-0.115
-0.057
0.013
-0.031
-0.068
-0.036
0.014
-0.058
0.001
0.015
0.017
0.020
-0.077
0.049
0.039
-0.091
0.014
-0.100
0.131
0.211
-0.194
-0.335
-0.004
0.137
-0.097
-0.080
-0.042
0.119
0.010
0.057
-0.123
-0.032
0.030
0.110
-0.022
-0.138
-0.046
0.108
-0.061
-0.156
0.043
-0.025
-0.008
-0.003
-0.017
-0.055
-0.004
0.101
-0.029
0.040
-0.028
0.071
-0.141
-0.133
-0.074
0.051
0.120
0.041
-0.046
-0.118
-0.027
-0.112
-0.055
-0.170
0.008
0.066
0.201
-0.442
0.033
-0.321
0.152
0.140
0.156
0.110
-0.323
-0.090
0.126
0.124
-0.104
0.059
0.080
-0.400
-0.096
-0.158
-0.004
0.358
0.159
0.036
-0.091
-0.176
-0.103
-0.212
0.116
-0.016
0.213
-0.132
0.035
0.090
-0.020
-0.047
-0.071
-0.016
-0.066
0.010
-0.035
0.137
0.196
-0.121
-0.639
-0.010
0.231
0.075
-0.040
-0.053
-0.175
0.099
-0.012
-0.086
0.051
-0.136
-0.002
0.004
0.026
0.053
-0.063
0.018
-0.101
0.035
-0.045
0.052
-0.215
-0.112
0.013
0.066
-0.039
0.088
-0.074
0.094
-0.083
-0.060
-0.117
-0.150
0.181
0.091
0.048
-0.132
-0.122
0.034
0.014
0.074
-0.153
0.111
-0.104
-0.039
-0.006
0.068
0.011
0.113
-0.132
-0.092
-0.051
-0.001
-0.029
-0.151
0.063
0.032
0.009
-0.091
0.119
-0.222
0.100
-0.058
-0.161
-0.009
-0.076
0.050
-0.019
0.128
-0.055
-0.052
-0.118
-0.220
-0.092
0.117
0.057
0.019
0.035
-0.130
0.039
-0.156
-0.048
-0.293
0.092
0.003
0.275
-0.034
-0.006
0.082
-0.160
0.085
0.153
0.010
-0.172
-0.028
-0.076
0.127
0.088
0.009
-0.078
-0.094
-0.093
0.039
-0.054
0.037
0.076
0.069
0.101
-0.259
-0.113
-0.116
0.035
0.033
-0.081
-0.086
-0.031
0.059
-0.063
0.130
-0.096
-0.097
-0.046
-0.143
-0.045
0.062
0.069
-0.009
-0.003
0.002
0.034
-0.267
0.149
-0.138
0.195
-0.058
0.127
-0.204
0.048
-0.032
-0.070
-0.079
-0.016
0.121
0.058
0.056
-0.040
-0.015
-0.012
0.035
-0.289
-0.162
0.085
0.112
0.032
0.111
-0.161
-0.234
0.303
-0.013
-0.036
-0.350
0.051
-0.098
-0.138
0.049
0.121
0.271
0.037
-0.196
-0.481
0.161
0.009
-0.109
0.088
0.023
0.022
-0.090
-0.039
0.009
-0.031
-0.180
-0.052
-0.073
0.162
0.019
0.159
-0.068
0.013
0.017
-0.089
-0.007
-0.002
0.074
-0.083
-0.007
0.060
-0.022
0.018
-0.045
-0.133
0.019
0.028
-0.079
-0.046
-0.042
0.071
-0.002
0.153
-0.107
-0.073
-0.206
0.065
0.092
-0.106
-0.061
-0.066
0.074
-0.057
-0.036
-0.111
0.088
-0.149
-0.150
0.117
0.049
-0.091
0.067
0.000
0.046
-0.084
-0.149
0.050
-0.249
0.161
-0.103
0.265
-0.037
-0.101
0.031
-0.089
0.063
-0.063
0.007
-0.161
0.059
-0.035
0.134
0.230
-0.125
-0.099
0.011
-0.059
-0.074
-0.120
-0.045
0.015
-0.056
0.195
-0.221
-0.016
-0.128
-0.002
-0.030
-0.126
-0.036
-0.084
0.043
0.008
0.042
0.009
-0.098
-0.180
-0.095
-0.007
0.008
-0.029
-0.034
0.002
-0.001
0.044
-0.084
-0.184
-0.152
0.219
-0.039
0.084
-0.141
0.046
0.023
-0.038
-0.030
-0.052
0.014
-0.140
0.025
0.052
0.023
0.033
0.051
-0.168
-0.120
-0.011
-0.068
-0.084
0.028
0.108
0.047
0.179
-0.104
-0.124
-0.186
-0.032
-0.036
-0.103
0.066
-0.032
0.106
-0.111
0.126
-0.160
-0.075
-0.121
-0.108
-0.004
0.013
0.039
-0.021
0.030
0.118
0.077
-0.242
-0.045
-0.172
0.141
-0.043
0.212
0.014
-0.333
-0.134
0.102
0.269
0.039
-0.007
-0.138
-0.090
-0.046
0.157
0.013
-0.041
0.036
0.082
0.067
-0.009
-0.122
0.035
-0.019
-0.062
0.225
-0.200
-0.087
-0.147
0.084
-0.051
-0.212
0.042
0.029
0.075
-0.132
0.041
-0.121
0.068
-0.144
-0.164
0.052
0.007
-0.043
-0.056
-0.015
0.052
0.005
-0.121
0.044
-0.088
-0.016
-0.039
0.138
-0.020
0.021
0.072
-0.086
0.031
-0.160
0.109
-0.054
0.060
0.041
0.062
-0.030
0.021
-0.089
-0.121
0.023
-0.012
-0.158
-0.104
-0.059
-0.062
0.144
-0.095
0.067
-0.244
0.048
-0.033
-0.127
-0.010
0.008
0.029
-0.115
0.021
-0.194
-0.050
-0.050
-0.198
-0.009
0.116
0.126
-0.033
-0.202
0.062
-0.002
-0.200
-0.022
-0.142
0.199
0.004
0.041
-0.160
-0.010
0.077
0.037
0.136
-0.231
-0.061
-0.122
0.182
-0.038
0.058
0.084
-0.014
-0.168
-0.030
-0.015
0.068
-0.051
-0.050
-0.023
-0.092
0.239
-0.212
-0.048
-0.103
0.047
-0.143
-0.120
0.070
-0.011
0.060
0.011
0.159
-0.145
-0.166
-0.229
-0.183
0.111
0.226
0.058
-0.096
-0.012
0.014
-0.002
-0.304
-0.014
-0.077
0.037
0.027
-0.044
-0.207
0.069
0.230
-0.093
-0.010
-0.089
0.113
-0.087
-0.033
0.056
0.138
0.042
-0.107
-0.099
0.107
0.083
-0.071
-0.170
-0.119
-0.018
-0.027
0.154
-0.072
-0.006
-0.262
0.046
0.019
-0.115
-0.099
-0.019
0.053
0.041
0.001
-0.101
0.007
-0.226
-0.111
0.009
0.080
-0.019
-0.098
0.055
-0.027
0.012
-0.242
-0.079
-0.046
0.188
0.019
0.047
-0.089
0.048
0.032
-0.191
0.062
-0.112
0.084
0.053
-0.150
-0.272
0.373
0.085
-0.046
-0.222
-0.061
0.014
0.058
-0.118
0.006
0.015
-0.037
0.220
-0.058
0.052
-0.229
-0.031
-0.036
-0.103
0.056
0.026
-0.007
-0.068
0.059
0.014
-0.129
-0.051
-0.240
0.042
0.113
-0.025
0.052
0.169
0.079
-0.026
-0.148
-0.026
-0.204
0.082
-0.086
0.159
-0.025
0.031
0.033
-0.037
-0.076
-0.157
0.068
-0.179
0.015
0.085
0.107
0.104
-0.040
-0.059
-0.064
0.030
-0.046
-0.081
-0.083
0.047
0.052
0.155
-0.157
0.051
-0.156
-0.066
0.005
-0.068
-0.122
-0.116
0.209
0.093
0.191
-0.321
-0.033
-0.124
-0.189
-0.011
0.093
0.040
-0.027
-0.099
0.128
0.004
-0.243
-0.120
-0.127
0.029
-0.075
0.146
-0.074
0.132
0.269
-0.167
-0.021
-0.112
0.150
-0.175
0.065
-0.011
0.094
0.013
0.034
-0.082
-0.053
0.039
-0.035
-0.100
-0.007
0.108
-0.042
0.082
-0.202
-0.034
-0.120
-0.103
-0.047
-0.035
-0.010
-0.033
0.082
-0.085
0.081
0.109
-0.022
-0.279
-0.168
0.023
0.142
0.115
0.016
0.009
-0.039
-0.049
-0.168
-0.032
-0.218
0.135
-0.039
0.181
-0.035
0.032
0.050
-0.031
0.020
-0.134
-0.037
-0.101
0.083
0.101
0.156
0.240
-0.083
-0.131
-0.075
0.045
-0.171
-0.083
-0.033
0.031
0.011
0.215
-0.172
-0.007
-0.190
0.010
0.010
-0.195
0.028
-0.040
0.103
-0.150
0.160
-0.072
0.002
-0.224
-0.092
0.124
0.001
-0.006
-0.014
-0.085
0.077
-0.054
-0.265
-0.009
-0.162
0.102
-0.075
0.109
-0.071
-0.040
0.115
-0.164
0.022
0.003
0.079
-0.091
0.015
-0.011
0.207
0.028
-0.046
0.029
-0.071
-0.109
-0.006
-0.068
-0.063
0.017
-0.056
0.220
-0.178
-0.058
-0.101
0.004
-0.029
-0.123
-0.124
0.000
0.134
-0.090
0.122
-0.099
-0.030
-0.174
-0.097
0.003
0.056
0.059
0.131
-0.064
0.057
-0.030
-0.134
-0.014
-0.039
-0.040
-0.200
0.119
0.021
-0.056
0.100
-0.104
0.125
0.040
0.029
-0.178
-0.027
-0.012
0.111
-0.107
-0.028
0.037
-0.001
-0.001
-0.080
-0.091
-0.133
0.083
0.019
0.043
0.195
-0.229
-0.398
0.144
0.172
-0.177
-0.113
0.049
0.021
-0.085
0.144
-0.066
-0.127
-0.188
-0.174
0.173
0.206
-0.055
-0.050
-0.036
-0.086
0.048
-0.196
0.099
-0.104
0.130
-0.088
-0.004
-0.096
-0.055
0.127
-0.161
0.154
-0.011
-0.024
-0.101
-0.078
-0.037
0.001
0.084
0.034
-0.037
-0.121
-0.073
-0.049
-0.028
-0.172
0.036
0.010
0.129
-0.164
0.083
-0.090
-0.026
-0.051
-0.157
0.027
-0.028
0.051
-0.005
0.163
-0.111
-0.067
-0.074
-0.125
-0.044
0.082
-0.003
0.037
-0.098
0.041
0.096
-0.165
0.052
-0.209
-0.010
-0.077
0.109
-0.003
0.052
-0.029
-0.008
-0.134
-0.122
0.039
-0.131
-0.032
0.159
0.156
0.259
-0.072
-0.663
-0.038
0.191
0.083
-0.059
-0.051
0.119
-0.004
0.100
-0.138
-0.047
-0.177
0.108
0.043
-0.073
-0.049
-0.084
0.019
-0.072
0.173
0.003
-0.024
-0.097
-0.143
-0.196
0.054
-0.023
0.104
0.107
-0.052
0.010
-0.108
-0.066
-0.263
0.002
-0.081
0.213
-0.051
-0.007
0.117
-0.125
-0.069
-0.226
0.741
-0.536
-0.509
-0.007
0.357
0.271
0.044
-0.064
-0.048
-0.015
-0.061
-0.103
-0.101
-0.025
0.061
0.221
-0.032
-0.062
-0.221
0.029
-0.029
-0.299
0.142
-0.078
0.168
-0.048
0.086
-0.157
-0.068
-0.201
-0.062
0.014
0.104
0.054
-0.067
-0.026
-0.050
0.117
-0.030
-0.178
-0.275
0.106
0.079
0.135
-0.057
-0.187
0.028
0.000
0.184
-0.213
-0.033
-0.154
0.015
-0.016
0.067
0.092
-0.130
-0.024
0.061
-0.065
-0.171
-0.126
0.003
0.133
0.181
-0.237
-0.121
0.178
-0.135
-0.005
-0.008
-0.154
-0.065
0.025
0.041
0.037
0.271
-0.098
-0.044
-0.154
-0.225
-0.053
0.106
0.039
-0.097
-0.048
0.065
0.022
-0.113
-0.251
-0.229
0.163
0.046
0.106
-0.092
-0.135
0.035
-0.083
0.108
-0.041
0.087
-0.235
0.087
0.160
-0.073
-0.003
-0.045
0.049
-0.003
0.051
-0.103
-0.119
-0.192
0.075
0.014
0.147
-0.188
0.080
-0.006
-0.061
-0.101
-0.105
0.031
-0.015
0.116
-0.032
0.126
-0.111
0.009
-0.162
-0.186
-0.025
0.061
-0.050
0.088
-0.177
0.075
0.154
-0.090
-0.230
-0.182
0.152
0.146
-0.208
-0.004
0.200
0.158
-0.080
-0.088
-0.154
0.080
-0.043
0.083
-0.149
-0.030
-0.007
0.075
-0.010
0.044
-0.006
-0.091
-0.058
-0.037
-0.036
-0.040
0.156
-0.043
0.012
-0.245
-0.036
-0.100
-0.138
-0.017
0.014
0.164
-0.093
0.144
-0.175
-0.046
-0.117
-0.156
-0.016
0.013
0.094
0.097
0.015
0.039
0.016
-0.124
-0.164
-0.106
0.081
0.055
0.114
-0.036
0.009
0.113
-0.023
-0.133
-0.135
0.021
-0.132
0.115
0.054
0.052
0.119
0.067
-0.478
-0.161
0.165
0.182
0.007
-0.039
-0.228
-0.259
0.238
-0.071
-0.019
-0.122
0.064
0.069
-0.180
-0.018
0.034
0.094
-0.130
0.125
-0.153
-0.058
-0.117
-0.062
0.041
-0.045
0.006
-0.060
0.061
0.006
0.015
-0.102
0.105
-0.132
0.035
-0.032
0.066
-0.145
-0.053
0.195
-0.055
0.112
-0.096
0.015
-0.258
-0.042
-0.057
0.070
0.002
-0.004
0.047
-0.049
0.075
-0.093
0.023
-0.088
-0.052
-0.098
0.122
-0.144
0.007
-0.034
0.000
-0.077
-0.192
0.057
-0.019
0.053
-0.096
0.148
-0.070
-0.036
-0.118
-0.115
-0.018
-0.018
-0.003
-0.030
0.034
-0.024
0.057
-0.032
-0.106
-0.162
0.191
-0.006
-0.012
-0.046
-0.048
0.106
-0.085
0.035
-0.100
-0.001
-0.264
0.028
0.011
0.156
-0.009
-0.191
0.000
0.068
0.037
-0.097
-0.092
-0.050
0.058
-0.009
0.146
-0.129
-0.033
-0.005
0.005
-0.064
-0.202
-0.020
-0.019
0.063
-0.062
0.143
-0.128
-0.031
-0.051
-0.151
-0.022
-0.048
-0.033
-0.021
0.134
0.039
0.047
-0.091
-0.126
-0.172
0.034
0.016
0.036
-0.074
-0.097
0.194
0.057
0.106
-0.114
0.024
-0.133
0.028
-0.019
0.062
0.094
-0.084
0.080
-0.057
0.026
-0.098
-0.134
-0.132
-0.098
-0.011
0.267
-0.123
0.105
-0.167
-0.040
-0.036
-0.269
0.011
-0.015
0.052
-0.111
0.216
-0.056
0.064
-0.096
-0.161
-0.121
0.130
-0.066
-0.002
0.029
0.029
0.008
-0.102
-0.007
-0.295
0.062
0.026
0.095
0.014
0.015
0.095
-0.170
0.050
-0.038
0.151
-0.242
0.044
-0.020
0.101
0.063
0.002
-0.147
-0.053
0.014
-0.101
-0.043
-0.270
-0.029
-0.028
0.219
-0.095
-0.010
-0.024
0.085
-0.029
-0.286
0.010
0.033
0.057
0.045
0.357
-0.578
-0.103
0.089
0.031
0.061
-0.052
-0.099
-0.170
-0.050
0.001
-0.058
-0.054
-0.017
-0.133
0.084
0.030
0.241
0.064
-0.112
-0.041
-0.101
0.008
-0.054
0.076
-0.184
0.097
0.045
-0.017
-0.056
0.032
-0.119
-0.050
0.033
0.003
-0.120
-0.112
0.065
-0.005
0.108
-0.104
-0.127
0.171
0.023
-0.130
-0.242
0.109
-0.085
0.153
-0.010
0.218
-0.159
-0.124
-0.118
-0.066
0.075
0.005
0.047
-0.047
-0.021
0.029
-0.039
-0.031
-0.068
-0.189
0.169
-0.045
-0.062
-0.012
-0.079
0.248
-0.068
-0.057
-0.242
0.085
-0.136
0.048
-0.020
0.135
0.125
-0.102
-0.144
-0.106
0.105
-0.003
-0.146
-0.128
0.034
0.083
0.202
-0.052
-0.081
-0.143
0.055
-0.056
-0.133
0.013
-0.142
0.205
-0.051
0.286
-0.113
-0.164
-0.193
-0.205
0.030
0.041
-0.046
-0.077
0.066
0.087
-0.006
-0.163
-0.096
-0.154
0.079
0.022
-0.024
0.007
0.059
-0.024
-0.046
0.080
-0.134
0.059
-0.231
0.001
0.050
0.022
0.027
0.056
0.035
0.013
0.052
-0.050
-0.095
-0.115
-0.177
0.024
0.290
-0.125
-0.012
-0.169
0.026
0.026
-0.198
-0.128
-0.009
0.065
-0.073
0.225
-0.094
-0.062
-0.083
-0.115
-0.049
0.016
0.081
-0.063
0.011
0.115
0.008
-0.095
-0.131
-0.265
0.141
0.042
0.082
-0.175
-0.024
0.230
0.206
0.026
-0.638
0.084
-0.001
0.263
0.159
0.023
-0.093
0.062
-0.000
-0.080
0.044
-0.120
-0.095
-0.148
-0.140
0.010
0.194
-0.053
0.071
-0.092
0.011
-0.030
-0.174
-0.006
-0.007
0.065
-0.065
0.234
-0.130
-0.190
0.029
-0.032
-0.075
0.050
0.121
0.009
-0.078
-0.126
0.009
-0.058
-0.082
-0.158
0.132
0.064
-0.018
-0.104
-0.031
-0.016
-0.075
-0.034
-0.030
0.090
-0.260
0.097
-0.052
-0.037
0.110
-0.037
-0.001
-0.065
0.041
-0.062
-0.110
-0.146
-0.063
0.086
0.131
-0.209
-0.055
0.042
0.234
-0.205
-0.151
0.143
-0.027
0.083
-0.219
0.252
-0.054
-0.093
-0.130
0.095
0.064
-0.051
-0.147
-0.255
-0.058
0.034
0.101
-0.031
-0.039
-0.286
0.021
-0.117
0.177
0.048
0.016
0.002
-0.159
0.116
-0.033
0.056
-0.174
0.106
-0.068
0.158
0.098
-0.074
-0.307
0.114
0.192
-0.048
-0.039
-0.131
-0.195
-0.167
0.233
-0.061
0.002
0.010
0.174
0.073
-0.527
-0.096
0.102
0.376
-0.007
0.076
-0.238
-0.033
-0.017
-0.071
0.081
-0.047
0.106
-0.043
0.076
0.034
0.043
-0.147
0.027
-0.133
0.000
-0.172
0.125
0.063
0.029
0.073
-0.064
0.066
-0.189
0.107
-0.227
0.096
0.023
-0.021
-0.121
0.064
0.003
-0.049
0.040
-0.113
-0.119
-0.184
-0.098
0.122
0.236
-0.028
-0.022
-0.133
-0.046
-0.066
-0.174
0.188
-0.031
0.087
-0.072
0.167
-0.141
0.088
-0.003
-0.228
0.052
-0.029
0.025
-0.040
-0.008
0.019
0.101
-0.032
-0.091
-0.151
-0.006
-0.064
0.111
-0.145
-0.039
0.030
-0.003
0.041
-0.174
0.093
-0.276
0.098
0.005
-0.143
0.057
0.061
0.096
-0.087
0.093
-0.170
-0.044
-0.050
-0.164
0.010
0.103
-0.050
0.056
-0.097
0.103
-0.029
-0.214
-0.106
-0.019
0.107
-0.057
0.232
-0.124
0.022
0.014
-0.089
0.051
0.006
0.030
-0.051
0.081
-0.070
-0.090
-0.056
0.002
-0.079
0.020
0.036
-0.073
-0.184
0.046
0.134
-0.026
0.168
-0.260
0.019
-0.231
0.113
-0.095
-0.041
0.227
-0.131
-0.074
-0.072
0.012
-0.167
-0.023
-0.113
-0.082
0.006
0.220
0.048
-0.069
-0.072
0.026
0.001
-0.063
0.121
0.258
-0.020
-0.437
0.299
0.030
0.122
-0.223
-0.018
0.027
0.044
0.003
-0.141
-0.055
-0.047
0.126
-0.077
-0.004
-0.111
0.019
-0.147
0.050
-0.046
-0.077
0.093
-0.011
-0.000
-0.180
0.104
-0.182
0.140
0.030
-0.069
-0.095
-0.072
0.004
0.036
0.117
-0.051
-0.046
-0.065
-0.048
0.095
0.150
-0.283
-0.104
-0.014
0.010
0.034
-0.118
-0.076
-0.104
0.070
-0.047
0.303
0.029
0.000
-0.056
-0.266
-0.116
-0.017
-0.051
0.019
-0.047
0.034
0.135
-0.102
-0.145
-0.145
0.068
-0.066
0.041
0.062
0.013
-0.034
-0.057
0.141
-0.069
0.066
-0.263
0.039
-0.062
-0.064
-0.057
0.066
-0.003
-0.063
0.157
-0.088
-0.100
-0.204
-0.172
0.189
0.078
-0.002
-0.117
-0.080
0.079
-0.109
-0.250
-0.071
-0.054
0.136
-0.050
0.177
-0.013
-0.036
-0.048
-0.120
0.036
-0.098
0.059
-0.006
0.035
-0.080
0.168
0.009
-0.045
-0.195
0.103
0.038
0.147
-0.086
-0.168
0.172
0.037
0.034
-0.149
0.144
-0.324
-0.006
-0.011
-0.002
0.098
0.001
-0.052
-0.077
-0.007
-0.105
-0.070
-0.212
-0.051
0.079
0.148
0.060
0.074
-0.101
0.068
0.063
-0.231
-0.121
-0.107
0.244
-0.052
0.306
-0.141
0.050
-0.053
-0.266
0.010
-0.095
0.021
-0.082
0.055
0.055
0.034
-0.051
0.116
0.097
-0.310
-0.256
0.227
0.090
-0.034
-0.161
-0.019
0.277
-0.001
-0.013
-0.269
-0.079
-0.037
-0.054
0.023
-0.082
0.043
-0.002
0.079
-0.109
-0.042
-0.027
-0.188
-0.049
0.116
-0.045
-0.182
-0.066
0.059
0.067
-0.273
-0.012
-0.062
0.221
-0.064
0.210
0.001
-0.150
0.018
-0.146
0.110
-0.121
0.063
-0.058
0.111
0.034
0.038
0.022
0.011
-0.143
-0.088
-0.170
0.127
-0.056
0.022
0.183
-0.016
0.119
-0.236
-0.026
-0.201
-0.035
-0.025
-0.085
0.204
-0.157
0.041
-0.008
0.046
-0.091
-0.052
-0.172
-0.170
0.062
0.188
-0.029
0.082
-0.081
-0.021
-0.016
-0.235
-0.018
0.009
0.146
-0.172
0.349
-0.025
-0.150
0.019
-0.063
0.026
-0.106
-0.019
-0.076
-0.030
0.050
0.029
-0.091
-0.043
-0.030
0.114
-0.034
-0.016
-0.115
0.068
0.045
0.053
0.105
-0.272
0.036
-0.221
0.060
-0.050
-0.021
-0.072
0.014
0.085
-0.052
-0.035
-0.188
0.117
-0.139
-0.260
-0.001
0.081
-0.050
0.076
0.068
0.053
-0.077
-0.310
-0.172
0.025
0.213
-0.125
0.151
-0.086
0.072
-0.045
-0.044
-0.037
-0.055
-0.023
-0.019
-0.019
0.038
0.095
0.056
-0.112
-0.226
-0.047
0.082
0.014
-0.054
0.003
0.111
-0.068
0.057
-0.128
-0.066
-0.146
0.080
0.024
-0.077
-0.032
0.049
0.088
-0.084
0.087
-0.039
-0.043
-0.227
-0.112
0.117
0.133
0.058
-0.170
-0.117
-0.004
0.031
-0.176
-0.052
-0.122
0.174
-0.054
0.187
-0.010
-0.068
0.013
-0.182
0.134
-0.180
0.048
-0.017
0.129
0.187
0.111
-0.094
-0.180
-0.190
0.091
0.064
0.005
-0.079
-0.063
-0.028
0.009
0.144
-0.220
-0.024
-0.016
0.010
-0.104
-0.122
-0.065
0.041
0.014
-0.065
0.151
-0.106
0.027
-0.171
0.031
-0.393
-0.060
0.180
0.087
-0.032
0.084
-0.052
-0.297
-0.029
-0.129
0.053
0.049
0.247
-0.153
-0.080
0.015
-0.092
0.160
0.003
0.007
-0.092
0.033
-0.094
0.022
-0.033
0.021
-0.118
0.002
-0.025
-0.097
-0.198
-0.036
0.074
0.049
0.209
-0.152
-0.112
-0.256
0.029
-0.006
-0.154
-0.080
0.005
0.036
-0.020
0.137
-0.125
-0.142
-0.131
-0.207
0.075
0.162
0.018
0.005
0.022
0.011
-0.004
-0.331
-0.014
-0.139
0.268
-0.070
0.120
-0.146
-0.088
0.040
-0.102
0.154
-0.014
0.057
-0.186
0.023
-0.030
0.152
-0.078
0.075
0.015
0.146
-0.119
-0.115
-0.136
-0.037
0.034
0.037
0.202
-0.146
-0.074
-0.330
0.045
-0.024
-0.106
-0.110
0.019
0.069
-0.037
0.093
-0.122
-0.009
-0.027
-0.233
-0.031
0.104
0.078
-0.028
-0.036
-0.020
0.016
-0.108
-0.014
-0.279
0.249
-0.007
0.209
0.016
-0.073
0.097
-0.162
-0.096
0.070
0.056
-0.187
-0.048
-0.069
0.132
0.079
-0.035
-0.142
0.043
0.028
-0.083
-0.119
-0.076
0.081
0.043
0.106
-0.053
0.003
-0.290
-0.049
0.028
-0.096
0.024
0.006
0.056
0.015
0.022
-0.046
-0.099
-0.110
-0.100
0.004
0.154
-0.061
-0.041
0.102
-0.006
-0.046
-0.291
-0.167
-0.107
0.141
-0.092
0.156
-0.050
-0.003
0.069
-0.076
-0.041
-0.040
0.027
-0.076
0.166
-0.070
0.177
0.134
0.017
-0.115
-0.044
-0.060
-0.054
-0.083
0.035
0.107
-0.047
0.111
-0.153
-0.079
-0.248
0.035
-0.026
-0.055
0.015
-0.024
0.059
-0.101
0.121
-0.123
-0.129
-0.072
-0.152
0.160
0.256
-0.426
-0.100
0.097
0.332
0.050
-0.232
-0.082
-0.148
0.159
0.001
0.025
-0.088
-0.132
0.215
-0.094
0.012
-0.095
-0.009
-0.097
0.107
-0.091
0.071
0.048
-0.023
-0.116
0.025
-0.015
-0.032
-0.133
-0.076
-0.003
0.112
0.198
-0.216
-0.016
-0.176
-0.105
0.102
-0.151
0.072
-0.059
0.032
-0.147
0.015
0.112
0.087
-0.193
0.013
-0.135
0.066
-0.073
0.025
0.068
-0.054
0.013
-0.183
-0.087
-0.164
0.091
0.087
0.127
-0.182
-0.156
0.119
0.077
-0.003
-0.064
0.058
-0.079
0.054
-0.154
0.172
0.022
-0.090
-0.025
-0.026
0.073
0.059
-0.197
-0.168
0.042
0.056
0.174
-0.166
0.047
-0.222
0.006
-0.003
-0.116
-0.062
0.013
0.036
0.026
0.103
-0.028
-0.004
-0.152
-0.228
-0.085
0.026
0.083
0.077
-0.027
0.074
0.018
-0.161
-0.045
-0.278
0.140
-0.072
0.093
-0.052
0.133
-0.003
-0.162
-0.049
-0.025
0.089
-0.007
0.034
-0.116
0.036
0.002
0.061
-0.086
0.005
0.053
0.001
-0.162
-0.050
0.007
0.044
0.175
-0.166
-0.005
-0.162
0.048
-0.073
-0.170
0.012
0.017
0.087
-0.112
0.067
-0.138
-0.128
-0.172
-0.040
0.288
0.035
-0.120
-0.068
0.014
-0.043
0.091
-0.224
0.013
-0.155
0.050
-0.039
0.148
-0.109
-0.029
0.122
-0.080
0.091
-0.121
0.027
-0.180
0.026
-0.083
0.127
0.093
-0.003
-0.094
0.020
0.105
-0.085
-0.088
-0.087
0.045
0.023
0.102
-0.141
0.023
-0.193
0.117
-0.095
-0.149
0.038
-0.025
0.012
0.024
-0.010
-0.096
-0.130
-0.238
-0.130
0.136
0.020
0.037
-0.087
0.159
0.190
0.041
-0.111
-0.258
-0.204
0.104
-0.037
0.141
-0.061
-0.099
0.243
-0.076
-0.097
-0.067
0.072
0.046
-0.110
-0.311
0.131
0.078
0.098
-0.074
0.021
-0.064
-0.073
-0.058
-0.135
0.026
0.199
0.185
-0.179
-0.001
-0.039
0.086
-0.080
-0.099
-0.056
-0.005
0.076
-0.080
0.083
-0.017
0.018
-0.158
-0.241
-0.026
-0.004
0.027
-0.125
0.067
0.138
-0.048
-0.135
-0.089
-0.187
0.105
-0.010
0.243
-0.018
-0.118
0.163
0.123
-0.049
-0.119
0.062
-0.128
-0.004
-0.058
0.154
0.000
0.039
0.062
-0.045
-0.065
-0.160
-0.072
-0.059
0.117
0.079
0.114
0.074
-0.006
-0.144
-0.014
-0.017
-0.130
-0.026
-0.082
0.020
0.038
0.164
-0.121
-0.138
-0.075
-0.135
-0.091
0.056
-0.064
0.090
-0.014
0.033
0.028
-0.019
-0.003
-0.283
0.046
0.060
0.047
-0.054
0.056
0.071
-0.058
-0.020
-0.170
-0.013
-0.128
0.080
0.037
0.115
0.032
-0.038
-0.055
-0.018
0.037
-0.024
-0.168
-0.151
-0.061
0.081
0.206
-0.172
0.020
-0.070
0.032
-0.060
-0.155
0.045
-0.197
0.081
-0.067
0.203
-0.073
-0.046
-0.108
-0.087
-0.096
-0.074
-0.036
0.036
0.069
0.033
0.023
-0.017
0.003
-0.270
-0.064
-0.059
0.158
-0.053
0.040
-0.003
-0.122
0.013
0.014
0.048
-0.247
0.022
-0.025
0.009
-0.019
0.059
0.047
-0.081
-0.037
-0.026
0.027
0.039
-0.107
-0.069
0.158
-0.092
-0.058
-0.158
0.126
-0.040
-0.137
0.060
-0.066
0.110
-0.129
0.077
-0.049
-0.027
-0.078
-0.208
0.133
0.023
-0.093
-0.072
0.051
0.057
0.046
-0.224
-0.013
-0.276
0.134
-0.026
0.109
-0.148
0.095
0.144
-0.172
-0.003
-0.051
0.083
-0.121
0.010
0.011
0.116
0.112
-0.020
-0.145
-0.090
-0.058
0.024
-0.099
-0.034
-0.008
0.004
0.084
-0.093
0.005
-0.116
0.010
-0.045
-0.198
-0.048
0.053
0.129
-0.111
0.124
-0.166
-0.019
-0.160
-0.100
0.069
0.036
-0.063
-0.024
-0.089
0.047
0.156
-0.197
-0.073
-0.247
0.121
0.005
0.123
-0.119
-0.055
0.090
-0.028
0.084
-0.084
0.025
-0.181
-0.001
-0.007
0.060
0.151
0.048
-0.039
-0.128
0.069
-0.131
-0.042
-0.010
0.033
-0.058
0.017
-0.142
0.022
-0.015
0.026
-0.042
-0.140
-0.005
-0.081
0.022
-0.097
0.166
-0.084
-0.008
-0.057
-0.268
0.010
0.013
0.190
0.098
-0.282
-0.253
0.197
0.046
-0.072
-0.095
0.041
-0.144
0.131
0.082
-0.085
0.060
-0.094
-0.023
-0.157
0.065
-0.122
0.111
0.039
0.158
0.114
0.031
-0.010
-0.159
0.032
-0.054
-0.153
-0.098
-0.105
-0.028
0.196
-0.074
0.068
-0.136
-0.031
-0.053
-0.087
-0.093
-0.070
0.181
-0.030
0.227
-0.078
-0.147
-0.119
-0.169
-0.027
-0.014
0.001
-0.059
0.096
0.032
0.096
-0.001
-0.189
-0.239
0.088
-0.033
0.176
-0.049
-0.070
0.081
0.032
0.015
-0.162
-0.010
-0.158
-0.055
0.097
0.037
-0.115
-0.088
0.071
0.011
-0.000
-0.017
-0.081
-0.194
-0.073
0.093
0.149
-0.147
-0.032
-0.038
0.036
-0.057
-0.191
0.040
-0.126
0.049
-0.079
0.169
-0.140
-0.089
-0.070
-0.092
0.026
0.085
0.047
-0.104
-0.047
0.061
0.042
0.025
-0.062
-0.214
-0.052
-0.033
0.062
-0.111
0.043
0.044
-0.038
0.060
-0.121
0.106
-0.253
0.047
-0.027
0.171
-0.056
-0.060
-0.081
0.049
0.038
0.008
-0.075
-0.174
-0.236
-0.056
0.327
-0.061
0.053
-0.012
0.044
-0.078
-0.182
-0.096
-0.041
0.135
-0.079
0.145
-0.158
0.110
-0.033
-0.193
-0.089
-0.005
0.057
-0.042
0.021
-0.044
0.098
-0.043
0.017
-0.290
0.049
0.038
0.068
-0.120
-0.050
0.009
0.056
0.160
0.016
-0.005
-0.336
0.077
-0.022
-0.058
-0.012
0.051
0.127
-0.033
0.022
-0.207
-0.046
-0.072
-0.063
-0.025
0.204
0.004
0.002
-0.171
0.117
-0.104
-0.200
0.041
-0.090
0.096
-0.014
0.189
-0.115
-0.006
-0.086
-0.130
-0.065
0.075
-0.055
-0.048
0.055
-0.017
-0.072
-0.056
0.023
-0.190
0.002
-0.105
0.086
0.069
0.014
0.095
0.032
0.093
-0.304
-0.029
-0.162
-0.014
-0.057
0.025
0.118
-0.046
0.144
-0.065
-0.023
-0.079
-0.045
-0.224
-0.072
0.002
0.238
-0.002
0.028
-0.129
-0.004
-0.102
-0.164
-0.001
-0.130
0.085
0.024
0.226
-0.110
0.038
-0.087
-0.062
0.027
-0.033
0.088
-0.042
-0.016
0.086
0.196
-0.118
-0.158
-0.305
0.026
-0.026
0.012
-0.149
-0.007
0.214
0.028
-0.064
-0.514
0.083
-0.026
0.261
0.001
0.187
0.014
0.034
0.006
-0.173
0.059
0.008
-0.025
-0.113
-0.102
0.062
0.235
-0.046
-0.051
-0.073
0.071
-0.054
-0.155
-0.045
-0.103
-0.018
-0.113
0.186
-0.054
0.086
0.091
-0.512
-0.188
0.083
0.142
0.060
0.119
-0.056
-0.033
-0.058
-0.023
-0.126
0.125
-0.052
0.013
-0.094
0.078
0.156
0.006
0.102
-0.104
0.101
-0.262
0.112
0.007
-0.021
-0.039
0.013
0.013
-0.087
0.051
-0.106
-0.112
-0.085
-0.160
0.034
0.182
0.012
-0.007
-0.190
0.088
0.023
-0.162
-0.014
-0.089
0.087
0.061
0.246
-0.147
0.011
-0.036
-0.151
0.078
-0.038
0.006
-0.179
0.025
-0.023
0.100
-0.062
-0.089
-0.301
0.133
0.034
0.022
-0.163
-0.018
0.046
-0.010
0.130
-0.170
-0.002
-0.252
0.040
0.024
-0.072
0.063
0.081
0.075
-0.097
0.159
-0.060
-0.043
-0.192
-0.209
0.036
0.223
0.118
0.025
0.033
0.176
-0.118
-0.293
-0.079
-0.172
0.240
-0.046
0.343
-0.170
-0.006
-0.077
-0.038
-0.012
-0.078
0.028
-0.134
0.089
-0.113
0.028
-0.080
-0.063
-0.087
0.138
-0.074
0.013
-0.120
-0.008
0.105
0.007
0.011
-0.202
0.082
-0.175
0.053
0.123
0.052
-0.507
-0.076
0.338
0.231
-0.039
-0.125
-0.064
-0.146
0.024
-0.059
0.113
0.032
0.086
-0.077
0.107
0.011
-0.186
-0.057
-0.278
0.167
0.004
0.298
-0.061
-0.039
-0.341
-0.046
0.063
0.093
0.089
-0.007
-0.185
-0.313
0.086
0.015
0.363
0.379
-0.230
-0.860
0.042
0.004
0.222
0.308
0.148
1.866
-2.588
-1.196
-3.219
-3.907
-1.973
0.412
1.832
1.984
1.404
0.184
-0.551
-1.169
-1.566
-2.321
-1.404
-0.269
0.363
-1.622
0.373
1.911
-0.117
0.289
0.822
0.724
0.526
0.505
-0.000
0.073
-0.291
-0.287
-0.220
-0.404
-0.376
-0.479
-0.389
-0.458
-0.335
-0.425
-0.101
-0.291
-0.435
-0.222
-0.401
-0.414
-0.412
-0.414
-0.652
-0.333
-0.178
-0.278
0.834
-0.191
0.239
-3.126
-4.314
-4.015
-0.259
-3.114
-2.749
2.495
3.855
4.547
3.864
2.116
-1.370
-2.503
1.761
2.737
-1.239
-3.669
-1.058
2.819
-0.970
-2.488
-2.367
-3.788
-4.094
-3.404
-1.671
-1.743
-2.580
-3.235
-2.725
-1.193
1.264
3.826
5.009
5.184
-0.191
-2.990
0.045
-0.372
-3.103
-1.446
2.928
4.163
4.263
0.922
-3.216
-4.514
-4.826
-4.823
-4.694
-4.611
-3.119
-0.391
2.359
3.871
4.216
-1.010
-0.484
-1.607
-4.074
-4.793
-0.888
2.640
2.731
-2.470
-4.362
-4.890
-3.472
-1.097
-0.478
-0.865
-2.081
-2.683
-3.406
-3.102
-2.756
-1.777
-0.714
1.709
-1.624
-0.340
-0.547
-1.416
0.288
1.624
3.445
-1.808
-3.906
0.680
0.348
0.048
-2.115
-3.725
-1.733
2.494
0.892
-3.170
-2.305
1.840
0.528
1.861
0.068
-3.289
-4.555
-2.977
2.049
3.540
0.349
-1.092
-3.910
0.668
1.709
-0.161
-3.620
-2.574
-4.138
-3.124
-2.294
-3.746
-4.130
-4.132
-3.964
-3.833
-3.647
-3.494
-2.702
0.794
4.003
5.223
5.395
2.248
2.217
3.970
4.432
4.412
4.111
2.729
1.104
-0.768
-1.918
-2.296
-2.624
-2.432
-1.850
-1.238
-0.745
-0.145
-0.054
0.331
0.218
0.401
0.310
0.115
0.047
0.587
0.228
-1.040
2.282
0.591
-3.534
-4.721
-4.076
1.617
-0.840
-3.432
-1.060
-2.610
-1.431
-3.160
-3.566
-3.522
1.576
-1.789
-2.731
-2.962
-1.196
2.768
4.285
3.655
2.241
0.727
4.187
0.372
-2.472
1.211
1.426
-2.304
-3.449
1.273
3.924
4.191
-1.271
-3.594
-4.277
-4.385
-4.419
-4.356
-4.272
-4.186
-4.112
-3.203
-0.960
1.573
2.734
-0.245
0.237
1.947
3.119
3.182
2.531
1.328
0.145
-0.795
-1.510
-2.343
-2.545
-2.457
-2.101
-1.955
-1.736
-1.262
-1.137
-0.751
-0.748
-0.610
-0.789
-0.642
-0.717
-0.811
-0.872
-0.932
-0.844
-1.018
-0.560
-0.549
-0.360
-0.525
-0.306
-0.365
-0.128
-0.018
-0.013
0.015
0.262
0.299
0.537
0.770
0.905
0.910
-2.598
-3.562
-3.005
2.647
3.268
0.980
-2.198
-3.132
0.923
4.284
5.216
5.345
2.519
-1.999
-3.368
-3.672
-3.697
-1.707
-2.925
-3.239
-0.740
1.917
4.382
5.200
3.996
-1.612
-3.362
-3.429
-3.106
2.123
4.163
4.646
3.526
-1.668
-3.923
-4.568
-4.690
-4.655
-2.380
-3.803
-4.214
-2.237
1.349
3.649
4.271
4.283
4.096
3.736
2.374
1.160
-0.239
-1.086
-1.894
-2.241
-2.072
-2.056
-1.827
-1.489
-1.142
-1.050
-0.781
-0.662
-0.606
-0.291
-0.272
-0.359
-0.397
-0.338
0.738
1.431
-3.220
-3.176
-4.068
-2.412
2.157
3.921
1.346
-2.747
-3.912
-4.091
-2.345
-0.769
-0.273
-0.963
-1.533
-2.359
-2.124
0.967
-1.946
-2.771
-2.175
1.656
4.729
1.811
1.886
-1.430
-2.890
-1.364
3.443
4.814
2.894
1.397
-2.586
-3.895
-4.255
-4.308
-4.267
-2.059
2.789
-1.796
-3.349
-4.106
-1.531
2.774
3.964
4.133
3.258
0.636
-2.051
-2.800
-3.920
-5.068
-5.371
-4.170
-2.427
-0.612
0.323
0.821
1.045
0.883
0.624
0.143
-0.139
-0.645
-0.686
-0.916
-0.851
-0.940
-0.988
-1.026
-0.670
-0.678
-0.616
-0.578
-0.581
-0.426
-0.346
-0.111
-0.450
-0.251
-0.410
-0.175
-0.261
-0.142
0.082
-0.004
0.218
0.131
0.249
0.033
0.107
0.101
0.244
0.310
0.578
0.507
0.477
0.381
0.430
0.458
0.282
0.471
0.299
0.515
0.386
0.589
0.427
0.436
0.443
0.393
0.496
0.260
0.309
0.182
0.392
0.367
0.331
0.272
0.292
0.158
0.323
0.299
0.164
0.109
0.121
0.133
0.212
0.293
0.059
0.176
0.089
0.045
0.115
-0.011
0.152
0.153
0.176
0.197
0.249
0.033
0.144
-0.006
-0.129
0.084
0.175
0.166
0.098
0.142
0.180
0.072
-0.098
0.015
-0.156
0.229
0.025
0.247
0.017
0.121
0.142
-0.099
0.096
-0.055
0.052
-0.145
0.049
-0.062
0.090
-0.008
-0.178
-0.162
-0.035
0.034
-0.072
-0.335
-0.235
-0.039
-0.086
0.002
-0.272
-0.264
-0.328
-0.057
-0.234
-0.425
-0.243
-0.268
-0.130
-0.142
-0.054
-0.298
-0.091
-0.250
-0.345
-0.171
-0.095
-0.113
-0.159
-0.054
-0.129
-0.182
-0.180
0.029
-0.288
0.088
-0.001
0.016
0.042
0.087
0.220
0.109
0.067
-0.041
0.166
0.038
0.294
0.103
0.339
0.254
0.248
0.101
0.186
0.242
0.282
0.134
0.209
0.313
0.212
0.460
0.161
0.359
0.124
0.213
0.089
-0.010
0.152
0.295
0.439
-0.291
0.141
0.244
0.193
0.084
0.004
0.125
0.025
-0.041
-0.058
0.183
0.122
0.002
-0.126
-0.096
-0.338
0.103
-0.096
0.033
-0.301
-0.169
-0.094
-0.097
-0.057
-0.202
-0.167
-0.299
-0.083
-0.200
-0.051
-0.152
-0.157
-0.182
-0.144
-0.084
-0.216
-0.192
-0.238
-0.137
-0.163
-0.018
-0.126
-0.002
-0.305
-0.116
-0.161
-0.216
-0.117
0.024
0.092
-0.100
0.095
-0.206
-0.013
-0.167
-0.053
0.008
0.215
0.021
0.026
0.052
0.090
0.077
0.003
0.095
-0.108
0.219
0.246
0.183
-0.086
0.072
0.187
0.114
0.084
-0.053
0.224
0.077
0.221
0.139
0.113
0.125
0.096
-0.033
0.069
0.082
-0.047
0.009
0.079
0.003
0.093
0.167
-0.045
0.037
-0.067
0.164
-0.106
-0.112
-0.024
0.083
0.098
-0.065
0.178
-0.146
-0.095
-0.164
-0.109
-0.084
-0.058
0.054
-0.117
-0.051
-0.083
0.086
-0.227
-0.097
-0.134
0.033
-0.106
-0.066
-0.047
-0.008
0.033
-0.091
-0.037
-0.185
0.018
-0.176
0.099
-0.086
0.061
0.020
-0.051
0.024
0.019
-0.076
-0.124
-0.038
-0.097
0.023
-0.017
0.149
-0.120
0.072
-0.058
0.008
-0.040
-0.184
-0.071
0.019
0.141
-0.089
0.149
-0.019
0.114
-0.038
-0.134
-0.085
0.038
0.059
-0.016
0.062
-0.015
0.053
-0.119
0.044
-0.140
-0.047
-0.013
0.062
0.020
0.068
-0.001
-0.103
0.152
-0.066
0.067
-0.148
0.254
0.167
0.029
0.006
0.063
0.018
-0.034
0.006
-0.110
-0.009
0.002
-0.074
0.136
0.206
-0.178
-0.057
0.010
0.020
-0.085
-0.142
-0.014
-0.056
0.218
-0.013
0.242
-0.108
-0.058
-0.063
-0.080
0.112
-0.108
-0.068
-0.099
0.098
0.330
-0.201
-0.502
0.100
0.007
0.114
-0.056
-0.014
-0.171
-0.056
0.036
-0.084
0.089
-0.050
0.044
-0.179
0.053
-0.034
0.031
0.056
-0.024
-0.042
0.034
-0.046
-0.051
-0.042
-0.151
-0.090
0.022
0.336
-0.074
-0.082
-0.014
0.115
-0.008
-0.218
-0.030
-0.020
0.202
-0.103
0.247
-0.094
-0.055
-0.108
-0.091
-0.017
-0.088
0.056
0.084
0.033
-0.018
0.038
-0.066
-0.135
-0.193
0.125
-0.016
0.106
-0.034
0.106
0.077
-0.065
0.041
-0.041
-0.020
-0.138
0.106
0.083
0.133
-0.029
-0.005
-0.051
-0.002
0.116
-0.060
0.062
-0.102
-0.051
-0.031
0.195
-0.087
0.058
-0.060
-0.007
-0.117
-0.198
-0.051
-0.057
0.078
-0.004
0.224
-0.100
-0.064
-0.118
-0.255
0.086
0.025
-0.030
-0.031
0.080
0.025
-0.007
0.097
-0.008
-0.200
-0.044
-0.106
0.007
-0.140
0.134
0.170
0.006
0.010
-0.256
-0.162
-0.308
0.135
0.023
0.203
0.077
0.052
0.067
-0.153
-0.140
-0.039
-0.119
-0.137
0.004
0.019
0.290
0.002
-0.050
-0.176
0.047
-0.069
-0.145
-0.017
0.005
0.092
-0.093
0.269
-0.040
-0.046
-0.159
-0.226
0.067
-0.055
0.098
0.103
0.115
-0.075
0.020
0.011
-0.025
-0.224
0.034
-0.001
0.063
-0.007
-0.038
0.100
0.094
0.042
-0.173
-0.065
-0.162
-0.032
-0.153
0.086
0.083
-0.059
0.056
0.004
-0.071
0.002
0.068
-0.135
-0.170
0.030
0.261
-0.060
-0.029
-0.191
-0.045
0.003
-0.152
0.006
-0.022
0.230
-0.048
0.070
-0.185
0.003
-0.106
-0.161
0.127
-0.053
0.018
-0.135
-0.098
-0.034
0.245
0.125
-0.279
-0.310
0.138
0.153
0.072
-0.237
0.100
0.180
-0.280
0.032
-0.116
0.072
-0.201
0.166
0.117
-0.516
-0.131
0.150
0.012
0.142
0.070
-0.199
-0.105
-0.142
0.030
-0.040
0.141
-0.097
0.076
-0.009
-0.030
0.056
-0.246
-0.017
-0.007
0.140
-0.116
0.280
-0.137
-0.027
-0.107
-0.061
0.002
0.076
-0.029
-0.102
0.059
0.045
0.102
-0.081
0.040
-0.020
-0.309
0.024
0.055
-0.033
-0.064
0.132
0.101
-0.034
-0.098
0.125
-0.294
-0.021
-0.036
0.060
0.008
-0.055
0.050
0.033
0.075
-0.053
-0.129
-0.102
-0.180
0.040
0.188
-0.024
0.028
-0.074
-0.087
0.023
-0.202
-0.079
-0.068
0.283
-0.174
0.234
-0.088
0.021
0.019
-0.057
-0.128
-0.135
0.042
-0.047
0.267
0.073
0.034
-0.075
-0.132
-0.078
-0.019
-0.014
-0.031
-0.041
0.044
0.023
0.008
0.136
-0.226
-0.000
-0.259
0.060
-0.061
-0.034
0.027
0.005
0.047
-0.144
0.006
-0.091
-0.107
-0.041
-0.101
-0.054
0.174
-0.042
0.094
-0.181
-0.087
0.071
-0.113
-0.044
-0.002
-0.041
-0.073
0.334
-0.148
-0.020
0.067
0.021
0.040
-0.085
-0.049
-0.149
0.054
-0.017
0.146
0.054
-0.023
-0.186
-0.006
-0.000
-0.032
-0.128
-0.057
0.115
-0.006
0.144
-0.137
0.050
-0.106
-0.021
0.038
-0.190
-0.052
0.011
0.127
0.006
0.010
-0.116
0.086
-0.119
-0.106
-0.036
0.082
-0.041
-0.093
-0.049
0.133
0.000
-0.112
-0.047
-0.091
0.083
-0.058
0.190
-0.123
0.032
-0.012
-0.028
0.143
-0.174
0.071
-0.117
0.053
-0.009
0.137
0.001
0.022
0.089
0.018
-0.277
-0.170
-0.051
-0.009
0.178
0.109
0.148
-0.175
0.009
-0.215
-0.015
0.107
-0.020
-0.059
0.004
0.018
-0.120
0.004
-0.004
0.002
-0.210
-0.136
0.006
0.125
0.015
0.096
-0.088
0.061
-0.085
-0.250
0.101
-0.037
0.146
-0.025
0.242
-0.022
-0.051
0.054
-0.137
0.005
-0.046
-0.006
-0.076
0.086
-0.014
0.017
-0.047
0.040
-0.135
-0.003
0.023
0.000
-0.038
-0.034
0.097
-0.023
0.147
-0.148
0.042
-0.102
0.124
-0.032
-0.191
-0.072
-0.017
0.056
-0.051
0.076
0.023
0.032
-0.228
-0.094
0.044
0.035
0.018
0.031
-0.127
0.040
0.059
-0.096
0.050
-0.228
0.080
-0.017
0.262
-0.070
-0.024
0.082
-0.099
0.059
-0.192
-0.073
-0.064
0.149
-0.013
0.046
0.124
-0.128
-0.214
0.146
-0.011
-0.006
-0.115
0.057
0.093
0.049
0.136
-0.124
0.089
-0.155
-0.029
-0.065
-0.068
-0.004
-0.034
0.139
-0.130
0.001
-0.016
-0.079
-0.235
-0.136
0.064
0.145
-0.104
-0.038
-0.037
0.003
0.056
-0.139
-0.046
-0.268
0.170
-0.075
0.135
-0.143
0.045
0.182
0.002
0.161
-0.105
-0.002
-0.249
0.008
0.045
0.181
0.163
0.014
-0.091
-0.013
-0.122
-0.086
-0.128
-0.022
-0.027
-0.104
0.081
-0.115
0.085
-0.127
-0.014
-0.033
-0.120
0.044
0.023
0.111
-0.028
0.068
-0.110
-0.062
-0.154
-0.120
0.070
0.196
0.007
-0.052
-0.062
-0.044
-0.016
-0.142
-0.107
-0.149
0.248
-0.052
0.220
-0.136
0.060
0.154
-0.165
0.012
-0.012
0.050
-0.131
0.053
-0.085
0.026
-0.031
0.027
-0.170
-0.044
0.060
-0.002
-0.074
0.068
0.015
-0.122
0.214
-0.162
0.038
-0.146
0.093
-0.052
-0.103
0.048
-0.027
0.075
-0.031
0.079
0.070
0.089
-0.215
-0.168
0.039
0.031
-0.066
0.059
0.014
0.080
-0.001
-0.141
-0.047
-0.158
0.139
-0.055
0.161
-0.102
-0.015
0.081
-0.127
0.060
-0.024
-0.018
-0.022
0.084
0.034
0.119
0.073
-0.055
-0.113
-0.070
0.063
-0.012
-0.108
0.052
0.072
0.001
0.206
-0.249
0.071
-0.211
0.131
0.057
-0.166
-0.042
0.001
-0.012
0.000
0.090
-0.013
-0.076
-0.044
-0.202
0.019
0.045
-0.017
-0.023
-0.032
0.110
0.116
-0.232
-0.106
-0.097
0.132
0.027
0.080
0.018
-0.023
-0.086
-0.091
0.081
-0.047
0.023
0.000
0.035
-0.158
0.145
0.097
-0.027
-0.055
-0.070
-0.040
-0.040
-0.018
-0.008
0.029
-0.090
0.118
-0.170
0.034
-0.088
-0.061
-0.062
-0.148
-0.091
-0.010
0.131
-0.030
0.126
-0.101
0.065
-0.227
-0.166
-0.037
0.040
0.041
0.037
-0.038
0.125
-0.088
-0.361
0.027
-0.242
0.180
0.024
0.061
-0.064
0.028
0.039
-0.066
-0.065
-0.096
-0.035
-0.183
0.102
0.110
0.118
-0.006
-0.075
-0.069
0.039
-0.116
0.013
-0.077
0.000
-0.007
0.128
0.189
-0.206
0.001
-0.161
0.141
0.025
-0.162
-0.134
-0.016
0.110
-0.009
0.017
-0.133
-0.075
-0.138
-0.022
-0.077
-0.018
-0.055
-0.081
-0.049
0.072
0.027
-0.050
0.015
-0.200
0.016
-0.079
0.177
-0.035
0.092
0.019
-0.125
-0.044
0.061
0.066
-0.212
-0.009
-0.066
0.209
0.152
-0.019
-0.107
-0.064
-0.078
0.014
-0.011
-0.018
0.010
0.002
0.071
-0.154
0.031
-0.090
0.079
-0.063
-0.122
0.002
-0.061
0.103
-0.117
0.153
-0.038
-0.050
-0.081
-0.081
-0.113
-0.014
-0.017
-0.067
0.087
0.026
0.059
-0.006
-0.150
-0.230
0.098
-0.008
0.227
-0.043
-0.036
0.052
-0.140
0.098
-0.048
0.048
-0.248
0.120
-0.112
-0.004
0.044
0.030
0.009
-0.101
-0.059
0.008
0.032
0.045
0.092
-0.111
0.203
-0.057
-0.045
-0.103
-0.021
-0.013
-0.105
-0.050
-0.001
0.107
-0.048
-0.007
-0.045
-0.024
-0.089
-0.157
0.022
0.090
0.066
-0.063
-0.048
0.005
0.096
-0.098
0.056
-0.255
0.166
0.043
0.060
-0.019
0.072
0.122
-0.391
-0.004
0.001
0.062
-0.056
0.161
-0.073
0.015
0.000
-0.075
0.024
-0.080
-0.056
0.004
-0.065
-0.110
-0.083
0.102
0.195
-0.063
-0.074
-0.141
-0.073
-0.010
-0.154
0.072
0.009
0.122
-0.021
0.120
-0.043
-0.007
-0.271
-0.130
0.054
0.020
0.092
-0.022
0.071
-0.017
-0.074
-0.066
-0.038
-0.255
0.111
0.008
0.121
-0.123
0.047
0.127
-0.101
0.074
-0.248
0.002
-0.064
0.017
0.030
0.231
0.034
-0.101
-0.049
-0.070
0.013
-0.122
-0.049
-0.076
-0.045
-0.011
0.139
-0.146
0.012
-0.044
0.041
-0.089
-0.134
0.015
-0.032
0.147
-0.109
0.117
-0.048
0.020
-0.026
-0.176
-0.005
-0.065
-0.017
-0.017
-0.026
0.006
0.091
-0.100
-0.078
-0.177
-0.009
-0.066
0.214
-0.006
-0.031
0.053
-0.215
0.007
-0.143
0.070
-0.040
0.045
-0.030
0.124
-0.004
0.091
-0.046
-0.110
0.055
-0.088
-0.120
-0.143
-0.033
-0.038
0.258
-0.069
0.038
-0.048
-0.010
-0.044
-0.081
-0.062
-0.025
0.079
-0.157
0.191
-0.074
-0.075
-0.189
-0.095
-0.033
-0.035
-0.031
-0.169
0.082
-0.032
0.119
-0.125
-0.125
-0.167
0.144
-0.002
0.014
-0.034
-0.081
0.146
-0.025
0.222
-0.110
0.055
-0.250
-0.138
-0.025
0.177
0.064
-0.027
0.021
0.030
-0.042
-0.167
-0.074
-0.084
-0.062
0.098
0.162
-0.084
0.121
-0.212
-0.018
-0.006
-0.139
-0.125
0.039
0.151
-0.107
0.115
0.026
-0.027
-0.178
-0.105
0.059
-0.023
0.059
-0.120
0.073
-0.002
0.063
0.049
-0.032
-0.252
0.021
-0.002
0.072
-0.143
0.032
0.131
-0.053
0.123
-0.193
0.048
-0.232
0.022
0.025
0.041
0.029
0.050
0.089
0.006
0.102
-0.112
-0.088
-0.120
0.004
-0.036
0.232
0.107
-0.021
-0.182
0.057
-0.240
-0.166
-0.014
0.060
0.077
-0.059
0.178
-0.105
0.047
-0.101
-0.133
-0.064
-0.003
-0.037
-0.117
-0.022
0.004
0.088
-0.009
0.040
-0.139
0.023
-0.036
0.016
-0.147
-0.036
0.140
-0.001
0.099
-0.262
-0.016
-0.091
0.166
0.019
0.068
-0.059
-0.037
-0.024
0.002
-0.029
-0.117
-0.109
-0.125
-0.027
-0.038
0.290
-0.039
-0.006
-0.154
-0.072
-0.075
-0.238
0.022
-0.082
0.097
0.039
0.236
-0.039
-0.268
-0.112
-0.110
0.058
0.001
0.056
-0.002
0.018
-0.056
0.029
-0.035
0.006
-0.170
0.083
-0.078
0.009
-0.012
-0.025
0.088
0.044
-0.036
-0.271
-0.049
-0.055
0.065
-0.085
0.104
0.111
0.048
-0.012
-0.071
0.042
-0.110
-0.078
-0.091
-0.023
0.045
0.073
0.032
-0.005
-0.002
-0.004
-0.063
-0.234
-0.001
-0.030
0.099
-0.046
0.155
-0.057
-0.056
-0.005
-0.116
0.056
-0.067
-0.019
-0.083
0.016
0.028
0.015
0.064
0.080
-0.202
-0.083
-0.108
0.146
0.050
0.078
0.077
-0.070
0.060
-0.086
0.076
-0.248
-0.030
-0.061
-0.034
0.131
-0.059
-0.003
-0.025
0.020
-0.033
-0.054
-0.097
-0.057
0.080
0.130
-0.070
0.070
-0.147
-0.047
0.100
-0.152
-0.037
-0.019
0.154
-0.076
0.125
-0.214
-0.058
0.017
-0.182
0.125
0.004
-0.136
-0.053
0.011
0.082
0.072
0.031
-0.047
-0.216
0.033
-0.024
-0.018
-0.078
-0.102
0.129
-0.061
0.166
-0.044
-0.041
-0.249
0.047
-0.110
-0.032
0.075
0.069
0.116
-0.115
0.100
-0.104
-0.054
-0.119
-0.142
-0.000
0.119
0.062
0.009
-0.086
0.025
0.017
-0.204
-0.030
-0.122
0.148
-0.142
0.269
-0.135
-0.058
-0.059
-0.145
-0.053
0.050
0.056
-0.089
0.097
0.042
0.067
-0.072
-0.018
-0.069
-0.023
-0.046
-0.033
0.001
-0.031
0.065
0.100
0.162
-0.211
0.059
-0.286
-0.051
-0.021
0.064
0.081
-0.006
0.166
-0.111
-0.027
-0.048
-0.017
-0.164
-0.127
-0.027
0.119
-0.093
0.012
0.037
0.034
-0.024
-0.226
-0.013
-0.017
0.084
-0.098
0.348
-0.109
-0.099
-0.044
0.031
0.032
-0.037
-0.087
-0.051
0.081
-0.102
0.114
-0.036
-0.057
-0.080
0.096
-0.139
0.040
-0.085
-0.045
0.124
0.076
0.081
-0.224
0.008
-0.255
-0.002
0.065
-0.004
-0.025
-0.005
0.055
-0.069
0.094
-0.150
-0.043
-0.019
-0.144
0.023
0.211
-0.014
-0.089
-0.105
-0.008
-0.017
-0.113
0.046
-0.110
0.075
-0.057
0.181
-0.141
-0.089
0.087
-0.102
0.013
-0.029
0.001
-0.069
0.114
-0.009
0.217
-0.084
-0.191
-0.162
0.007
-0.044
-0.018
-0.093
-0.047
0.175
0.055
0.197
-0.059
-0.042
-0.394
-0.025
0.085
-0.087
0.006
-0.009
0.089
-0.012
0.097
-0.027
-0.021
-0.188
-0.123
-0.061
0.061
0.058
0.312
0.247
-0.149
-0.441
-0.240
-0.028
-0.059
0.332
-0.042
0.183
-0.085
0.011
0.029
-0.264
0.017
-0.084
0.003
0.025
0.167
-0.010
0.081
-0.003
-0.024
-0.140
-0.132
-0.057
-0.024
-0.103
0.080
0.232
-0.171
0.035
-0.098
0.039
-0.135
-0.041
0.033
-0.120
0.004
-0.053
0.058
0.069
0.002
-0.114
-0.106
-0.157
-0.121
0.097
0.101
0.034
0.008
0.001
0.019
-0.052
-0.155
-0.086
-0.023
0.106
-0.052
0.150
-0.175
0.073
0.052
-0.121
-0.027
-0.047
-0.023
-0.065
-0.028
-0.014
0.084
-0.071
-0.024
-0.107
-0.015
-0.053
0.127
-0.055
-0.112
0.093
0.074
0.139
-0.247
0.075
-0.187
0.073
-0.131
-0.158
-0.015
0.084
0.169
-0.040
0.057
-0.101
-0.157
-0.172
-0.092
0.005
0.114
0.004
-0.012
-0.020
-0.011
0.059
-0.178
-0.063
-0.176
0.145
-0.035
0.293
-0.078
-0.038
0.096
-0.139
0.050
-0.030
0.109
-0.124
0.006
-0.017
0.113
0.037
-0.039
-0.218
-0.051
0.058
-0.043
-0.025
-0.077
0.047
0.187
0.299
-0.130
-0.083
-0.326
-0.013
-0.028
-0.061
0.056
-0.098
0.167
-0.005
-0.001
-0.029
-0.072
-0.164
-0.288
-0.002
0.127
0.058
0.007
0.038
-0.001
-0.057
-0.219
-0.111
-0.018
0.167
-0.163
0.228
-0.019
0.007
0.001
-0.147
0.077
-0.135
-0.031
-0.104
0.165
0.021
0.115
-0.053
-0.065
-0.190
-0.051
-0.011
0.008
-0.031
-0.025
0.038
-0.089
0.163
-0.072
0.010
-0.214
0.076
-0.148
-0.199
0.056
0.032
0.015
0.032
0.170
-0.157
-0.067
-0.212
-0.255
0.028
0.110
-0.018
-0.008
-0.016
0.056
0.022
-0.200
-0.050
-0.193
0.044
-0.049
0.169
-0.042
0.042
0.063
-0.100
0.018
-0.010
-0.065
-0.174
0.007
-0.025
0.137
0.110
-0.026
-0.148
-0.070
-0.001
-0.009
0.072
-0.080
-0.054
-0.105
0.260
-0.021
0.075
-0.197
-0.001
0.034
-0.266
-0.095
0.093
0.198
-0.100
0.083
-0.040
-0.026
-0.247
-0.163
-0.001
0.104
0.154
-0.022
0.067
0.006
-0.105
-0.225
-0.063
-0.179
0.105
-0.023
0.244
-0.036
0.099
-0.003
-0.103
0.047
-0.069
-0.022
-0.181
0.015
0.024
0.204
0.010
-0.037
-0.024
-0.024
0.054
0.010
-0.138
-0.138
0.147
0.115
0.131
-0.170
0.042
-0.180
0.027
-0.032
-0.141
0.002
0.017
0.038
-0.091
0.066
-0.116
-0.107
-0.096
-0.088
-0.073
-0.022
0.078
0.004
0.025
0.043
-0.197
-0.148
0.036
-0.155
0.144
0.004
0.093
-0.091
0.042
0.104
-0.060
-0.014
-0.121
-0.021
-0.038
-0.037
0.029
0.105
0.088
-0.001
-0.070
0.027
-0.048
-0.004
-0.122
-0.087
-0.069
0.036
0.264
-0.074
-0.031
-0.145
0.107
-0.012
-0.261
-0.043
0.093
0.114
-0.111
0.202
-0.123
-0.164
-0.143
-0.145
-0.028
0.095
-0.048
-0.159
0.066
0.048
-0.063
-0.112
-0.023
-0.106
0.127
-0.069
0.125
-0.042
-0.016
-0.042
-0.005
0.083
-0.145
0.147
-0.120
-0.047
-0.019
0.161
0.129
-0.028
0.071
-0.066
0.005
-0.004
-0.028
-0.095
0.028
0.000
0.088
-0.124
-0.013
-0.208
-0.005
-0.052
-0.101
0.032
-0.037
0.106
-0.090
0.081
-0.078
-0.004
-0.095
-0.124
-0.052
0.139
0.082
-0.132
-0.071
0.101
-0.076
-0.101
-0.061
-0.105
0.175
0.006
0.143
-0.137
-0.115
0.191
-0.029
0.083
-0.171
-0.056
-0.134
-0.010
0.003
0.099
-0.008
-0.016
-0.119
0.040
0.007
0.006
-0.062
-0.073
-0.088
-0.014
0.191
-0.154
0.056
-0.126
0.052
0.010
-0.112
-0.024
-0.009
0.199
-0.101
0.118
-0.130
-0.105
-0.126
-0.112
0.046
0.047
-0.097
0.040
0.081
0.037
0.076
-0.114
-0.091
-0.165
-0.074
-0.014
0.123
-0.119
0.003
0.177
-0.044
-0.037
-0.060
-0.039
-0.220
0.102
-0.018
0.122
0.006
-0.037
0.024
0.081
-0.046
-0.158
-0.021
-0.017
-0.010
0.061
0.238
-0.111
-0.088
-0.244
0.017
-0.037
-0.132
-0.048
-0.144
0.076
-0.034
0.250
0.138
-0.012
-0.285
-0.179
0.007
0.047
0.044
0.014
0.038
-0.020
0.004
-0.228
-0.043
-0.201
0.107
-0.130
0.156
-0.081
0.004
0.086
-0.067
-0.017
-0.120
-0.004
-0.122
0.070
0.042
0.046
-0.079
-0.006
-0.047
-0.019
0.208
0.027
-0.142
-0.057
-0.056
-0.146
0.160
0.024
-0.025
-0.107
-0.221
0.105
-0.175
-0.074
-0.092
0.107
-0.055
0.203
-0.019
-0.026
-0.092
-0.158
0.098
0.000
-0.030
-0.042
-0.001
-0.038
0.035
-0.003
-0.044
-0.291
0.074
-0.005
0.049
-0.191
0.078
0.074
-0.020
0.061
-0.092
0.046
-0.167
0.081
-0.031
0.033
0.065
0.030
-0.040
0.026
0.012
-0.138
-0.004
-0.104
-0.148
0.005
0.216
-0.003
0.008
-0.221
0.066
-0.044
-0.236
-0.098
0.007
0.169
-0.088
0.162
-0.012
0.083
-0.027
-0.244
-0.098
-0.022
-0.030
0.007
0.042
0.028
-0.076
-0.053
-0.091
-0.106
0.118
-0.158
0.154
-0.237
0.050
0.040
0.014
-0.067
-0.098
0.196
-0.213
-0.060
-0.061
0.128
0.006
0.026
0.010
-0.001
-0.006
-0.023
-0.118
-0.079
-0.023
0.115
0.185
-0.127
-0.057
-0.002
0.018
-0.043
-0.177
-0.054
-0.030
-0.019
-0.093
0.178
-0.074
0.061
-0.088
-0.215
0.007
-0.076
0.018
-0.014
-0.032
0.056
0.029
-0.055
-0.087
-0.217
0.081
-0.047
0.048
0.016
-0.018
-0.054
-0.082
0.142
-0.070
0.069
-0.208
0.001
-0.131
0.025
0.048
0.049
0.055
0.074
-0.111
-0.054
-0.095
-0.080
0.095
0.026
0.025
-0.123
0.046
0.050
-0.078
-0.071
-0.210
-0.026
-0.124
0.141
-0.137
0.230
-0.087
-0.025
-0.110
-0.133
0.010
-0.039
0.041
-0.067
0.025
0.027
0.090
-0.027
-0.036
-0.118
-0.035
-0.113
0.080
-0.089
-0.054
0.018
-0.092
0.023
-0.112
0.009
-0.145
0.185
-0.094
0.046
0.078
-0.014
-0.031
-0.112
0.117
-0.243
0.042
-0.107
-0.116
0.072
0.231
-0.038
-0.030
-0.179
-0.061
-0.035
-0.083
-0.020
-0.046
0.028
0.023
0.189
-0.077
-0.096
0.051
-0.127
-0.042
-0.051
0.120
-0.032
0.010
0.048
0.091
-0.003
-0.030
-0.154
0.147
0.022
0.017
-0.123
-0.059
-0.081
0.055
0.114
-0.157
-0.034
-0.339
0.084
0.082
0.017
0.158
-0.076
-0.060
0.010
0.032
-0.111
0.041
0.002
-0.203
0.014
0.120
0.072
0.125
-0.178
-0.080
-0.019
-0.210
-0.031
-0.067
0.139
0.014
0.148
-0.150
-0.038
-0.062
-0.154
0.011
0.031
-0.025
-0.100
0.072
-0.052
0.113
0.050
-0.083
-0.107
0.059
0.026
0.052
-0.201
-0.063
0.111
-0.115
-0.036
-0.058
0.001
-0.182
0.047
-0.013
-0.091
0.028
0.002
0.095
-0.055
0.067
-0.035
-0.134
-0.086
-0.083
-0.016
0.078
-0.100
0.092
0.094
-0.003
0.040
-0.215
-0.052
-0.148
0.088
-0.125
0.286
-0.090
-0.047
-0.073
-0.163
0.004
0.045
0.004
-0.084
-0.043
-0.019
0.186
-0.009
0.010
-0.230
-0.016
-0.034
0.042
-0.056
-0.089
0.154
-0.052
0.131
-0.118
0.033
-0.231
0.104
-0.006
-0.149
0.008
0.075
0.125
-0.080
0.004
-0.065
-0.065
-0.007
-0.230
0.028
0.228
0.020
-0.037
-0.085
-0.013
0.156
-0.209
-0.078
-0.180
0.195
-0.076
0.197
-0.057
-0.142
-0.005
-0.234
0.031
-0.126
0.031
-0.050
0.084
0.081
0.005
-0.076
-0.116
-0.057
0.049
-0.068
0.082
-0.016
-0.059
0.127
-0.056
0.083
-0.205
0.034
-0.215
-0.017
-0.045
-0.035
-0.044
0.014
0.021
-0.050
0.231
-0.233
-0.209
-0.007
-0.105
-0.040
0.183
-0.016
0.005
-0.039
-0.020
-0.097
-0.200
-0.052
-0.240
0.100
-0.071
0.229
-0.010
0.112
-0.070
-0.104
0.001
-0.038
0.085
-0.048
0.144
-0.056
0.042
0.006
-0.027
-0.129
0.096
0.062
-0.027
-0.099
-0.084
0.141
0.031
0.080
-0.267
0.009
-0.347
0.132
-0.024
0.019
0.065
-0.005
0.081
-0.096
-0.064
-0.127
0.064
-0.124
-0.151
0.152
0.174
0.031
-0.106
-0.074
-0.055
-0.051
-0.191
0.081
-0.060
0.229
0.010
0.216
-0.089
-0.054
-0.038
-0.164
0.054
0.029
-0.038
-0.029
-0.001
0.051
0.130
0.070
-0.000
-0.233
-0.039
-0.049
0.021
0.027
-0.032
-0.059
0.076
0.139
-0.228
0.069
-0.222
0.049
-0.036
-0.078
0.090
-0.041
0.033
-0.021
0.103
-0.003
-0.045
-0.260
-0.148
0.044
0.188
-0.105
0.052
-0.031
0.025
0.044
-0.214
-0.093
-0.194
-0.018
-0.022
0.310
0.087
-0.019
0.028
-0.272
-0.080
0.041
0.091
-0.064
0.035
0.016
0.179
0.038
-0.142
-0.168
-0.008
0.013
0.008
-0.156
-0.009
0.002
0.056
0.235
-0.173
-0.046
-0.232
0.065
-0.079
-0.017
0.059
-0.045
0.185
-0.100
0.084
-0.229
-0.071
-0.134
-0.061
0.007
0.269
0.054
-0.011
-0.023
0.072
-0.001
-0.212
-0.055
-0.150
0.165
-0.053
0.272
-0.025
-0.098
0.027
-0.166
-0.071
-0.095
-0.056
-0.099
0.064
0.015
0.075
-0.005
-0.033
-0.160
0.071
-0.043
-0.083
0.000
-0.044
-0.032
0.042
0.251
-0.070
-0.004
-0.199
-0.032
-0.105
-0.015
0.015
0.092
-0.001
0.025
0.031
-0.037
-0.118
-0.137
-0.164
0.075
0.160
-0.016
-0.053
-0.093
0.060
-0.022
-0.130
-0.149
-0.154
0.187
-0.115
0.115
0.006
0.042
-0.091
-0.151
-0.036
-0.066
0.033
-0.067
0.049
0.034
0.123
-0.005
0.002
-0.001
-0.086
-0.012
0.003
-0.149
-0.092
0.071
0.054
0.125
-0.133
0.057
-0.238
-0.048
-0.087
0.023
0.069
-0.075
0.066
-0.082
0.065
-0.089
-0.042
-0.164
-0.204
0.027
0.101
0.017
-0.018
-0.043
-0.006
-0.065
-0.060
-0.008
-0.068
0.127
-0.055
0.211
-0.099
-0.060
0.032
-0.025
0.024
-0.136
-0.090
-0.149
0.152
0.072
0.139
-0.054
-0.083
-0.216
-0.005
-0.006
-0.001
-0.171
0.019
-0.001
-0.005
0.110
-0.140
0.014
-0.284
0.060
-0.056
0.023
0.036
-0.091
0.100
-0.038
0.128
-0.078
0.003
-0.262
-0.047
-0.017
0.054
-0.033
0.014
0.048
0.067
0.006
-0.226
-0.116
-0.214
0.201
-0.043
0.105
-0.032
-0.027
0.046
0.017
-0.005
-0.055
-0.021
-0.096
0.062
0.006
0.196
-0.032
-0.074
-0.207
0.041
0.060
0.058
-0.122
-0.138
-0.056
0.055
0.175
-0.179
0.071
-0.157
-0.032
0.112
-0.046
-0.081
-0.040
0.036
-0.031
0.216
-0.167
-0.048
-0.097
-0.124
-0.055
0.107
0.126
0.027
0.031
0.064
-0.027
-0.259
0.051
-0.206
0.013
-0.049
0.264
-0.009
-0.081
0.064
-0.067
0.020
-0.033
0.100
-0.122
-0.033
0.008
0.166
0.043
-0.093
-0.104
0.046
0.051
-0.087
-0.053
-0.078
0.012
0.062
0.142
-0.137
0.010
-0.141
0.114
-0.032
-0.047
-0.134
-0.067
0.020
-0.082
0.106
-0.042
-0.080
-0.154
-0.157
-0.087
-0.024
0.152
0.011
0.106
0.136
-0.089
-0.324
0.002
-0.199
0.208
0.047
0.247
-0.186
-0.046
0.072
-0.030
-0.028
-0.106
0.183
-0.158
-0.072
0.078
0.110
0.020
0.041
-0.022
0.000
-0.114
-0.067
-0.085
-0.081
0.002
-0.052
0.144
-0.062
0.063
-0.211
-0.023
0.051
-0.153
-0.024
-0.042
0.115
-0.149
0.210
-0.036
-0.051
-0.159
-0.173
0.050
0.063
0.016
-0.106
-0.010
0.043
-0.051
-0.172
-0.030
-0.091
0.164
-0.042
0.109
0.024
-0.026
0.026
-0.048
0.043
-0.123
0.099
-0.194
0.111
0.077
-0.039
-0.099
0.059
-0.075
-0.132
0.072
0.096
0.018
-0.057
0.009
0.023
0.083
-0.119
0.039
-0.308
0.112
0.047
-0.183
0.027
0.027
0.175
-0.139
0.026
-0.120
-0.011
-0.143
-0.146
0.026
0.106
-0.038
-0.084
0.030
-0.007
0.007
-0.059
-0.056
-0.253
-0.025
-0.105
0.092
-0.003
-0.001
0.111
0.079
0.049
-0.213
0.008
-0.191
0.084
-0.007
0.146
0.153
-0.075
-0.054
-0.025
0.027
-0.050
-0.115
-0.038
-0.081
-0.095
0.283
-0.044
0.025
-0.174
0.250
0.042
-0.257
-0.070
-0.111
0.101
-0.055
0.169
-0.131
-0.056
-0.151
-0.005
-0.064
0.008
0.049
0.010
0.054
-0.022
0.017
-0.102
0.003
-0.204
0.071
-0.100
0.153
-0.112
-0.046
0.155
-0.041
0.046
-0.040
-0.046
-0.214
0.134
0.022
0.075
0.073
0.015
-0.004
-0.050
-0.049
-0.095
-0.226
-0.108
0.015
0.049
0.135
-0.095
0.033
-0.160
0.047
-0.022
-0.195
0.011
0.014
0.119
0.020
0.123
-0.101
-0.072
-0.185
-0.051
0.051
0.052
0.116
-0.023
0.037
-0.020
-0.021
-0.087
-0.126
-0.186
0.125
0.032
-0.008
-0.058
-0.050
0.021
-0.003
-0.041
-0.192
0.034
-0.243
0.023
-0.034
0.115
0.140
-0.085
-0.150
0.001
-0.002
-0.148
-0.075
-0.030
0.019
0.003
0.245
-0.171
-0.013
-0.173
0.058
0.006
-0.197
0.042
0.086
0.123
-0.158
0.065
-0.046
-0.032
-0.106
-0.110
-0.113
0.032
0.039
-0.032
-0.064
-0.084
-0.006
-0.128
-0.009
-0.175
0.035
-0.006
0.009
-0.024
0.064
0.184
-0.007
0.018
-0.106
0.058
-0.268
0.044
0.067
0.026
0.027
0.017
0.047
0.034
-0.091
-0.125
-0.246
-0.129
-0.017
0.098
0.171
0.076
0.012
0.007
-0.094
-0.151
-0.121
-0.033
-0.089
0.206
-0.030
0.186
-0.074
-0.099
-0.105
-0.319
0.042
0.038
-0.046
-0.091
-0.014
-0.070
0.190
-0.114
-0.150
-0.163
0.085
-0.043
0.020
-0.024
0.002
0.138
0.011
-0.001
-0.286
0.155
-0.215
0.095
0.033
0.074
-0.086
-0.059
-0.030
-0.012
0.207
-0.025
-0.124
-0.152
-0.096
0.101
0.130
0.031
0.033
-0.027
-0.037
-0.067
-0.169
-0.113
-0.002
0.143
-0.132
0.169
-0.043
-0.040
-0.087
-0.128
-0.149
-0.052
-0.036
-0.029
-0.001
-0.030
0.188
0.059
-0.105
-0.143
-0.097
-0.008
0.149
-0.113
0.056
0.159
-0.107
0.066
-0.116
0.070
-0.131
0.035
0.016
0.210
-0.021
-0.161
-0.053
0.013
-0.054
0.010
-0.066
-0.122
0.010
0.100
0.206
-0.124
0.012
-0.115
-0.038
-0.005
-0.102
-0.106
-0.071
0.142
-0.005
0.232
0.009
-0.088
-0.113
-0.150
-0.022
0.092
-0.052
-0.043
0.060
-0.063
0.052
-0.058
-0.127
-0.360
0.224
0.031
-0.005
-0.036
-0.092
0.164
0.020
0.116
-0.140
-0.048
-0.263
0.196
-0.038
0.019
-0.148
0.144
0.076
-0.005
-0.145
-0.096
-0.055
-0.178
-0.073
0.038
0.080
-0.032
0.103
-0.020
-0.036
0.000
-0.180
-0.091
-0.015
0.181
-0.114
0.207
-0.001
-0.083
-0.136
-0.177
-0.019
0.049
0.088
-0.070
-0.072
0.004
-0.187
0.208
-0.003
-0.151
0.030
-0.122
0.080
-0.014
-0.063
0.011
0.021
0.045
-0.141
-0.009
-0.244
0.065
-0.018
0.102
0.162
0.049
-0.086
-0.232
0.115
0.061
0.092
-0.199
-0.085
0.073
0.176
-0.179
0.133
-0.124
0.078
-0.065
-0.182
-0.078
-0.047
0.210
-0.154
0.195
-0.211
-0.043
-0.085
-0.079
0.014
-0.028
0.083
-0.008
0.076
-0.034
0.119
-0.037
-0.077
-0.165
0.043
-0.195
0.057
-0.094
0.104
0.170
-0.146
0.029
-0.192
0.104
-0.189
0.079
-0.093
-0.056
0.088
-0.003
0.159
0.035
0.059
-0.092
-0.083
-0.202
-0.060
-0.064
0.264
-0.038
-0.015
-0.116
0.033
-0.014
-0.183
-0.038
-0.107
0.101
-0.091
0.319
-0.179
-0.175
-0.019
-0.113
0.074
-0.009
0.046
-0.190
0.081
-0.020
0.105
-0.083
-0.005
-0.067
0.075
-0.095
-0.007
-0.087
-0.019
0.136
-0.051
0.147
-0.128
-0.024
-0.191
0.063
-0.132
-0.064
0.205
-0.053
-0.051
-0.097
0.131
0.075
-0.066
-0.283
-0.238
0.062
0.201
-0.050
-0.063
-0.099
0.060
-0.018
-0.169
-0.044
-0.114
0.112
-0.035
0.246
-0.125
-0.065
-0.025
-0.118
0.041
-0.006
-0.024
0.042
0.045
-0.086
0.213
-0.056
0.014
-0.185
0.040
-0.028
0.089
-0.175
-0.143
0.029
0.029
0.072
-0.024
0.006
-0.263
0.010
-0.115
0.025
-0.060
-0.127
0.048
-0.100
0.129
-0.072
0.033
-0.220
-0.163
-0.074
0.162
0.013
0.015
-0.031
-0.013
-0.087
-0.095
0.004
-0.101
0.123
-0.131
0.154
-0.050
0.007
-0.108
-0.035
0.024
-0.063
0.019
-0.073
0.073
-0.003
0.206
0.018
-0.099
-0.203
0.046
-0.015
0.073
-0.210
-0.036
0.141
-0.085
0.079
-0.110
0.069
-0.155
-0.007
-0.134
-0.006
-0.043
-0.029
-0.016
-0.099
0.097
0.066
-0.046
-0.101
-0.127
-0.045
0.130
0.019
-0.004
-0.097
0.025
0.162
-0.179
-0.109
-0.184
0.097
-0.051
0.157
-0.108
0.099
0.107
-0.036
0.003
-0.108
-0.089
-0.193
0.062
0.053
0.150
0.008
-0.132
-0.085
0.082
-0.058
0.040
0.005
-0.054
0.039
-0.079
0.141
-0.083
-0.001
-0.175
0.089
-0.100
-0.145
-0.079
-0.059
0.084
-0.069
0.207
-0.072
-0.075
-0.112
-0.083
-0.152
0.140
-0.001
0.052
-0.040
-0.025
0.112
-0.159
-0.078
-0.251
0.116
-0.112
0.151
-0.016
0.005
0.089
-0.036
-0.041
-0.049
-0.031
-0.022
-0.008
0.023
0.028
0.028
-0.084
-0.122
0.090
0.011
-0.105
-0.073
0.018
0.028
-0.055
0.031
-0.133
0.049
-0.185
0.073
-0.058
-0.047
0.022
0.000
-0.023
-0.115
0.119
0.078
-0.106
-0.180
-0.135
-0.074
0.097
0.070
0.044
0.014
-0.063
-0.101
-0.165
0.081
0.006
0.159
-0.187
0.163
-0.008
0.044
0.063
-0.250
-0.077
0.021
0.061
0.069
0.054
0.003
-0.047
-0.000
-0.026
-0.074
-0.022
0.076
-0.002
-0.077
-0.106
0.012
-0.056
0.220
-0.070
0.131
-0.198
0.023
-0.047
-0.197
-0.064
0.005
0.128
0.004
0.050
-0.107
-0.054
-0.222
-0.173
0.097
0.144
0.005
-0.065
-0.018
0.051
-0.006
-0.139
-0.065
-0.174
0.190
-0.064
0.203
-0.080
-0.020
0.127
-0.087
0.054
-0.094
-0.017
0.026
0.048
-0.093
0.072
-0.044
-0.064
-0.072
0.017
-0.011
-0.056
-0.125
0.048
0.091
-0.077
0.160
-0.159
-0.041
-0.262
0.117
-0.004
-0.203
-0.072
0.119
0.242
0.036
0.044
-0.277
-0.171
-0.209
-0.073
0.137
0.096
0.070
0.065
-0.037
0.067
-0.045
-0.306
-0.196
-0.139
0.248
-0.095
0.096
-0.064
-0.036
-0.008
-0.054
-0.010
-0.068
0.006
-0.063
0.081
0.171
0.008
-0.206
0.093
-0.059
-0.072
-0.066
-0.026
0.006
-0.071
0.037
-0.036
0.192
-0.241
-0.007
-0.198
0.158
-0.043
-0.154
-0.011
0.016
0.098
-0.051
0.076
-0.062
-0.010
-0.230
-0.144
-0.030
0.055
-0.016
-0.001
0.013
0.093
-0.151
-0.238
0.067
-0.158
0.134
-0.067
0.074
-0.032
-0.060
-0.017
-0.125
-0.026
-0.084
0.101
-0.124
0.072
-0.095
0.087
0.047
-0.006
-0.044
-0.053
-0.009
0.106
-0.033
-0.103
-0.033
-0.010
0.204
-0.134
0.030
-0.100
0.071
-0.096
-0.124
-0.090
0.060
0.064
-0.054
0.036
-0.023
-0.091
-0.180
-0.072
0.103
0.040
-0.032
-0.091
0.036
-0.003
-0.052
-0.054
-0.058
-0.212
0.110
0.007
0.089
-0.080
-0.024
0.085
0.004
0.163
-0.216
-0.009
-0.143
0.085
-0.008
0.093
0.058
-0.059
-0.133
0.023
-0.013
-0.439
0.188
0.029
-0.007
-0.021
0.148
-0.103
0.201
-0.115
0.059
-0.100
-0.107
-0.018
0.051
0.135
-0.069
0.148
-0.050
-0.076
-0.129
-0.292
-0.014
0.152
-0.005
-0.019
-0.016
0.004
0.041
-0.208
-0.087
-0.218
0.149
-0.025
0.170
-0.025
-0.030
0.021
-0.114
0.026
0.015
-0.074
-0.210
0.094
0.026
0.093
-0.041
0.000
-0.138
-0.020
0.020
-0.024
-0.067
-0.076
0.092
-0.095
0.122
-0.079
-0.047
-0.112
0.103
-0.063
-0.188
-0.064
0.017
0.053
0.014
0.049
-0.176
-0.029
-0.302
-0.123
-0.044
0.134
0.160
0.007
-0.017
-0.066
-0.005
-0.161
0.024
-0.181
-0.021
-0.079
0.089
0.046
0.081
0.067
-0.065
-0.034
-0.165
0.105
-0.104
0.052
-0.037
-0.036
0.014
-0.016
0.018
-0.085
-0.052
-0.101
-0.069
-0.056
0.062
0.032
0.236
-0.247
0.006
-0.164
0.073
0.033
-0.128
-0.062
0.009
0.029
-0.086
-0.030
-0.023
-0.103
-0.243
-0.167
0.001
0.091
0.102
-0.076
-0.020
-0.059
0.026
-0.137
0.031
-0.055
0.076
-0.089
0.115
-0.080
-0.037
0.159
-0.098
0.042
-0.137
0.103
-0.124
0.038
-0.047
0.115
0.075
-0.041
-0.137
-0.064
-0.087
0.028
-0.072
-0.117
0.042
-0.001
0.217
-0.132
0.012
-0.124
0.059
-0.061
-0.183
-0.011
-0.025
0.040
-0.091
0.162
-0.092
0.020
-0.195
-0.099
-0.171
0.072
0.098
-0.050
-0.047
0.041
0.029
-0.077
-0.045
-0.367
0.034
-0.090
0.133
-0.101
-0.098
0.100
-0.028
0.071
-0.049
0.000
-0.124
0.124
-0.038
0.124
0.030
-0.098
0.020
-0.013
0.051
-0.035
-0.079
-0.054
0.019
-0.094
0.040
-0.065
0.100
-0.012
0.052
-0.029
-0.307
0.039
-0.101
0.067
0.120
0.218
-0.057
-0.097
-0.093
-0.149
-0.021
0.005
-0.047
-0.032
0.127
0.140
-0.071
-0.183
-0.061
-0.183
0.055
-0.017
0.137
-0.005
-0.043
0.156
-0.156
0.099
-0.053
-0.011
-0.115
0.142
-0.004
0.074
0.041
-0.194
0.064
-0.041
0.002
-0.103
-0.065
-0.087
-0.012
0.009
0.130
-0.120
0.149
-0.127
0.072
0.001
-0.141
-0.076
-0.107
0.072
0.083
0.305
-0.073
-0.090
-0.258
-0.211
0.040
0.055
-0.028
-0.028
0.090
0.005
-0.089
-0.055
-0.105
-0.217
-0.014
0.035
0.002
-0.114
-0.062
0.127
-0.102
0.036
-0.113
0.136
-0.201
0.009
0.039
-0.031
0.087
0.059
-0.143
-0.114
0.037
-0.123
-0.053
-0.057
-0.111
-0.041
0.156
-0.075
-0.072
-0.105
0.045
-0.011
-0.068
0.052
-0.076
-0.038
-0.078
0.128
-0.069
0.013
-0.114
-0.278
-0.034
-0.018
0.010
-0.071
0.019
-0.040
-0.028
-0.033
-0.053
-0.245
0.048
0.026
0.175
-0.087
-0.000
0.097
-0.020
0.020
-0.250
-0.021
-0.155
0.098
0.058
0.029
0.051
-0.123
0.068
-0.031
-0.037
-0.019
0.008
-0.172
0.044
-0.000
0.141
0.014
0.123
-0.149
-0.039
-0.146
-0.294
-0.017
0.013
0.148
-0.135
0.245
-0.060
-0.048
-0.289
-0.087
-0.011
0.139
-0.043
-0.021
0.021
-0.030
0.109
-0.036
-0.085
-0.175
0.116
-0.005
0.092
-0.113
-0.118
0.013
-0.107
0.071
-0.014
0.060
-0.231
0.030
-0.011
0.002
0.091
-0.033
-0.060
-0.024
0.027
-0.136
-0.031
-0.032
-0.033
0.118
0.171
-0.168
-0.023
-0.085
-0.037
0.080
-0.151
0.063
-0.119
0.089
-0.058
0.203
-0.085
-0.050
-0.119
-0.194
0.036
-0.000
0.090
-0.136
-0.071
-0.026
0.096
-0.098
-0.046
-0.210
0.067
0.031
0.037
0.004
-0.040
0.032
0.029
0.045
-0.113
0.099
-0.215
0.036
-0.079
-0.014
0.102
0.051
-0.074
0.004
0.012
-0.082
0.146
-0.101
-0.139
0.048
0.105
-0.021
-0.041
-0.073
0.115
-0.041
-0.218
0.008
-0.016
0.123
-0.117
0.235
-0.027
-0.088
-0.109
-0.121
0.019
0.013
-0.074
-0.050
-0.058
0.057
0.178
-0.009
-0.065
-0.120
0.086
-0.194
-0.034
-0.062
0.061
0.121
-0.025
0.047
-0.214
0.032
-0.148
0.019
-0.051
0.072
-0.004
-0.059
0.121
0.064
0.094
-0.170
-0.132
-0.133
-0.114
0.100
0.132
-0.063
0.020
-0.059
0.086
-0.008
-0.204
-0.011
-0.063
0.074
-0.162
0.223
-0.085
0.045
0.090
-0.064
-0.056
-0.105
-0.010
0.006
-0.022
0.053
-0.023
-0.105
0.026
-0.215
-0.046
-0.059
0.052
-0.114
-0.017
-0.015
-0.083
-0.012
0.014
0.147
-0.191
0.055
-0.019
0.013
0.079
-0.099
-0.049
0.010
0.085
-0.091
-0.042
-0.095
-0.158
0.016
0.188
-0.012
0.070
-0.217
-0.027
-0.038
-0.091
0.070
-0.073
0.086
-0.122
0.218
-0.042
-0.002
-0.140
-0.147
0.116
-0.006
0.003
-0.068
-0.065
-0.123
0.049
0.115
-0.052
-0.082
-0.060
-0.135
0.125
-0.069
-0.018
0.141
0.036
0.074
-0.274
0.069
-0.196
0.102
0.012
-0.046
0.016
0.010
0.044
-0.102
0.058
-0.027
-0.075
-0.149
-0.100
0.111
0.152
-0.097
0.120
-0.050
-0.051
-0.038
-0.138
0.021
-0.083
0.035
-0.058
0.267
-0.194
0.116
0.085
-0.101
-0.093
-0.124
0.004
0.007
0.084
-0.010
0.042
-0.001
-0.067
-0.248
0.068
0.122
-0.136
-0.047
0.068
0.037
-0.062
0.154
-0.116
0.018
-0.166
0.162
-0.012
-0.098
-0.092
-0.066
0.014
0.041
-0.067
0.068
0.037
-0.211
-0.176
0.002
0.154
-0.024
0.007
-0.111
0.025
-0.006
-0.195
-0.025
-0.112
0.096
-0.019
0.157
-0.091
0.027
0.129
-0.101
-0.074
-0.034
0.049
-0.021
-0.009
-0.067
0.096
-0.003
-0.021
-0.098
-0.021
-0.099
-0.002
0.038
0.067
0.030
-0.074
0.021
-0.126
0.010
-0.185
0.049
-0.054
-0.007
0.006
-0.021
0.113
-0.104
0.050
-0.098
-0.063
-0.047
-0.175
-0.096
0.170
0.057
0.023
-0.101
0.046
0.002
-0.243
0.024
-0.131
0.141
0.091
0.267
-0.191
-0.035
0.077
-0.149
0.061
-0.023
-0.107
0.014
0.049
-0.092
0.097
0.125
-0.015
-0.144
-0.022
0.115
0.077
-0.072
-0.192
0.045
0.027
0.155
-0.143
0.054
-0.235
0.105
-0.002
-0.068
0.082
-0.073
0.011
-0.067
0.023
-0.083
-0.113
-0.158
-0.076
0.062
0.058
0.053
0.010
-0.040
0.038
-0.074
-0.218
-0.052
-0.035
0.101
-0.050
0.331
-0.116
0.019
-0.068
-0.126
0.021
-0.122
0.084
0.010
0.034
-0.077
0.052
0.107
0.014
-0.231
-0.042
-0.060
-0.021
-0.024
0.136
0.063
-0.039
-0.029
-0.221
-0.049
-0.201
-0.014
0.130
-0.186
-0.068
-0.013
0.076
0.046
0.023
-0.097
-0.016
-0.177
-0.200
-0.022
0.204
0.061
0.141
-0.092
0.043
-0.093
-0.226
-0.052
-0.092
0.185
-0.094
0.142
-0.047
-0.015
-0.007
-0.144
0.010
-0.010
-0.006
-0.033
-0.004
-0.098
0.128
-0.012
-0.110
-0.153
0.018
0.034
-0.020
-0.001
-0.129
-0.015
-0.036
0.088
-0.165
0.077
-0.161
0.048
0.110
-0.024
-0.057
0.009
0.077
-0.070
0.065
-0.105
-0.037
-0.175
-0.184
-0.021
0.139
-0.105
-0.021
0.003
0.068
-0.058
-0.188
-0.085
-0.158
0.076
-0.028
0.240
-0.040
-0.097
0.040
-0.017
-0.132
-0.052
0.026
-0.147
0.149
0.003
-0.025
0.061
-0.060
-0.176
0.053
-0.043
-0.029
-0.118
0.018
0.040
-0.021
0.148
-0.159
-0.103
-0.325
0.016
0.081
-0.108
-0.024
-0.004
0.025
-0.076
-0.040
-0.061
-0.013
-0.244
-0.141
0.087
0.090
-0.005
-0.015
-0.103
0.026
-0.001
-0.230
-0.079
-0.113
0.067
0.015
0.259
-0.010
-0.126
0.111
-0.184
-0.070
-0.112
0.046
-0.090
0.035
0.061
0.160
-0.147
-0.020
0.007
0.048
-0.010
-0.004
-0.062
-0.025
0.012
-0.032
0.088
-0.116
0.077
-0.137
0.057
-0.065
-0.033
0.011
-0.116
0.066
-0.004
0.022
-0.070
-0.031
-0.211
-0.122
0.015
0.094
0.046
0.017
-0.012
0.045
0.018
-0.294
0.067
-0.279
0.240
0.002
0.233
-0.043
-0.053
0.111
-0.076
-0.100
-0.037
0.092
-0.066
0.035
0.018
0.175
0.117
-0.010
-0.065
-0.073
-0.029
-0.037
-0.032
-0.046
0.115
0.086
0.102
-0.234
0.012
-0.079
0.051
-0.090
-0.170
0.004
-0.001
0.012
-0.063
0.071
-0.041
-0.039
-0.205
-0.059
0.026
0.122
-0.058
-0.099
0.018
0.063
-0.173
-0.167
0.081
-0.141
0.053
-0.020
0.146
-0.044
-0.102
-0.056
-0.052
0.120
0.036
-0.029
-0.103
0.173
-0.008
0.030
0.024
-0.158
-0.070
0.039
0.003
-0.050
-0.128
-0.133
0.005
0.085
0.168
-0.184
-0.002
-0.047
0.176
-0.157
-0.171
0.023
-0.030
0.060
-0.060
0.037
-0.019
-0.064
-0.256
-0.173
-0.074
0.010
0.099
-0.032
0.052
-0.054
-0.022
-0.161
-0.013
-0.172
0.032
0.058
0.163
-0.074
-0.054
0.084
-0.012
0.064
-0.184
0.010
-0.122
0.093
-0.062
0.070
0.016
0.023
-0.090
0.037
0.018
-0.063
-0.033
0.040
0.133
-0.074
0.056
-0.074
0.092
-0.158
-0.061
-0.115
-0.138
0.089
0.005
0.176
-0.189
0.173
-0.164
-0.156
-0.134
-0.242
-0.036
0.212
0.045
-0.100
-0.032
0.058
0.164
-0.257
-0.128
-0.078
0.142
-0.140
0.207
-0.028
-0.025
0.122
0.022
-0.079
-0.130
0.085
-0.081
0.061
0.028
0.039
0.009
0.015
-0.055
-0.098
0.012
0.002
-0.048
-0.131
-0.026
0.042
0.155
-0.182
0.010
-0.147
0.074
-0.048
-0.114
-0.045
-0.042
0.109
-0.087
0.132
-0.095
-0.042
-0.092
-0.126
0.033
0.024
-0.063
-0.021
0.029
0.043
-0.015
-0.156
-0.046
-0.085
0.065
-0.049
0.109
-0.143
-0.079
-0.107
0.009
-0.034
0.023
0.122
-0.028
-0.036
-0.039
0.043
0.000
-0.063
-0.040
-0.032
-0.047
-0.031
-0.010
-0.076
0.014
0.001
-0.109
-0.077
-0.039
-0.032
0.029
0.033
-0.026
0.014
-0.013
0.016
0.018
-0.056
-0.152
-0.007
-0.038
-0.005
0.039
0.027
-0.017
-0.063
-0.187
-0.105
0.026
0.056
0.073
-0.117
0.002
0.131
-0.082
-0.091
-0.017
-0.090
-0.030
-0.006
-0.006
0.172
-0.035
-0.054
-0.043
-0.035
-0.097
0.062
-0.028
-0.006
-0.042
-0.089
-0.037
0.014
0.166
0.004
0.033
-0.002
0.013
-0.140
-0.065
0.022
-0.097
-0.023
-0.007
-0.050
-0.006
0.034
0.010
0.032
-0.005
-0.021
-0.073
-0.076
-0.028
-0.096
0.115
0.009
-0.029
0.035
-0.033
-0.017
-0.102
0.008
-0.020
-0.060
-0.046
-0.102
-0.013
0.134
0.006
-0.002
-0.056
-0.066
0.032
-0.037
-0.067
0.063
-0.011
-0.010
0.017
-0.052
-0.012
-0.116
-0.068
-0.018
0.063
0.030
-0.120
-0.010
-0.011
-0.023
-0.037
-0.134
0.053
-0.002
0.036
-0.008
0.011
-0.084
-0.140
-0.055
0.024
-0.028
-0.010
0.066
-0.096
-0.036
-0.007
0.025
-0.102
-0.038
-0.054
0.114
-0.057
-0.031
0.025
0.055
0.003
-0.166
-0.107
-0.006
0.024
-0.023
-0.064
0.008
0.070
0.050
-0.077
-0.091
-0.038
0.008
-0.010
0.011
-0.016
0.016
-0.042
-0.025
-0.062
-0.024
-0.072
0.002
0.023
-0.027
-0.376
0.292
-0.016
-0.069
-0.057
-0.082
-0.050
0.022
-0.025
0.022
0.051
-0.029
-0.119
-0.020
0.007
0.030
-0.069
-0.010
-0.054
-0.019
-0.022
-0.039
0.018
-0.035
0.045
-0.068
-0.079
0.025
0.010
0.005
0.034
-0.086
-0.069
0.004
-0.059
-0.059
0.074
-0.011
-0.092
-0.046
-0.028
-0.114
0.017
-0.099
0.027
0.048
-0.055
-0.019
-0.113
-0.054
0.016
-0.091
-0.011
0.002
-0.019
-0.077
-0.025
-0.018
-0.160
0.049
-0.034
0.085
0.030
0.004
-0.031
-0.099
-0.087
0.012
-0.053
-0.009
0.057
0.009
-0.058
0.018
-0.015
-0.023
-0.049
-0.084
-0.191
0.001
0.105
0.015
-0.063
-0.107
0.124
-0.052
-0.065
-0.125
0.002
0.102
-0.025
0.008
0.147
-0.127
-0.145
-0.055
-0.110
0.020
0.021
-0.062
0.038
-0.012
-0.018
-0.003
-0.014
-0.065
-0.027
-0.064
0.036
-0.077
-0.126
0.036
0.026
0.018
0.149
0.005
-0.096
0.152
-0.124
-0.034
-0.046
-0.194
0.003
0.108
0.105
0.057
-0.094
-0.038
-0.088
-0.054
-0.062
-0.006
0.057
0.057
-0.087
-0.093
0.047
-0.039
-0.031
-0.012
-0.108
0.000
0.122
-0.046
-0.060
-0.031
-0.014
0.091
-0.038
-0.004
0.000
-0.024
-0.114
0.090
0.014
-0.001
-0.137
-0.074
0.076
-0.024
-0.041
0.070
-0.083
-0.035
0.018
-0.045
-0.034
-0.025
0.021
-0.010
-0.037
0.085
-0.033
-0.015
-0.012
-0.048
-0.155
-0.028
0.018
-0.048
0.044
-0.012
-0.134
0.011
0.007
0.119
-0.012
-0.057
0.011
-0.019
-0.096
0.074
-0.047
-0.001
0.000
-0.029
-0.032
-0.126
-0.003
-0.097
0.024
-0.070
0.034
0.038
-0.104
-0.069
0.091
-0.030
-0.015
-0.064
0.105
-0.119
-0.042
0.013
-0.020
-0.007
-0.056
-0.005
0.041
0.047
-0.027
-0.032
-0.156
-0.058
0.010
-0.084
-0.044
-0.016
0.050
-0.049
-0.046
0.070
-0.071
0.039
-0.071
0.027
-0.086
-0.030
-0.019
-0.092
-0.008
-0.055
0.058
-0.009
-0.081
-0.036
0.052
0.004
-0.024
-0.029
0.030
-0.120
-0.158
-0.130
-0.020
0.038
0.061
-0.081
-0.097
-0.013
0.027
-0.101
-0.025
-0.065
-0.034
-0.063
0.055
0.019
-0.020
-0.002
-0.016
-0.027
-0.026
0.106
-0.092
-0.002
-0.081
-0.082
-0.113
0.079
0.025
-0.108
-0.008
-0.000
0.005
-0.049
-0.021
0.035
-0.019
-0.102
-0.075
-0.047
-0.073
0.018
0.020
0.002
-0.046
-0.086
-0.025
-0.092
-0.118
0.004
-0.002
0.052
-0.018
-0.050
-0.039
0.054
0.034
-0.009
0.081
-0.009
-0.112
0.047
-0.086
-0.039
0.020
-0.043
0.156
-0.004
-0.109
-0.121
-0.116
-0.118
-0.057
0.005
-0.011
0.002
0.053
-0.057
-0.038
-0.037
0.080
-0.011
-0.005
-0.050
0.064
-0.119
0.024
-0.033
-0.018
-0.075
0.041
-0.057
0.024
0.031
0.050
-0.025
0.005
-0.119
-0.101
-0.008
-0.024
-0.005
0.042
-0.042
0.012
0.022
0.045
0.050
-0.094
-0.133
-0.073
-0.091
-0.044
-0.025
0.045
-0.028
-0.056
-0.029
0.032
-0.084
0.002
0.135
-0.016
-0.005
0.002
-0.075
-0.040
-0.046
0.001
0.057
-0.030
-0.093
-0.084
-0.056
0.047
0.067
-0.127
0.006
0.031
-0.227
0.105
-0.047
-0.083
0.008
-0.058
-0.001
0.069
-0.042
-0.023
-0.000
-0.094
-0.055
-0.081
-0.032
0.006
0.077
-0.131
-0.018
-0.002
-0.038
0.004
0.012
-0.026
0.006
-0.006
-0.004
-0.098
0.015
-0.004
0.014
-0.033
0.012
-0.087
-0.013
-0.007
0.001
-0.002
-0.044
-0.023
0.009
-0.009
-0.068
0.022
-0.078
0.090
-0.097
-0.110
-0.004
-0.116
-0.015
-0.075
0.040
0.023
-0.047
-0.047
-0.060
0.043
-0.023
-0.104
-0.023
-0.031
-0.072
-0.055
-0.012
0.009
0.004
-0.042
0.035
-0.043
-0.116
-0.077
-0.030
0.037
0.113
-0.051
-0.051
-0.025
-0.007
-0.003
0.046
-0.083
-0.073
-0.027
0.031
-0.052
-0.031
-0.041
0.004
-0.021
-0.054
-0.092
-0.157
0.080
0.038
-0.050
0.030
-0.089
-0.110
-0.050
0.043
-0.042
-0.032
0.021
-0.002
0.120
0.093
-0.204
-0.157
-0.031
-0.084
-0.019
0.002
0.074
-0.033
0.033
-0.083
0.026
-0.044
-0.071
-0.144
-0.071
0.093
-0.093
-0.010
-0.040
0.061
0.009
0.037
-0.001
-0.088
-0.122
-0.009
-0.076
-0.020
-0.018
-0.033
-0.036
0.079
0.024
-0.079
0.046
0.004
-0.019
-0.031
-0.083
-0.036
-0.061
-0.008
-0.002
-0.030
-0.023
-0.013
-0.014
-0.014
0.031
-0.056
0.059
0.052
-0.115
-0.045
0.007
0.040
-0.077
-0.046
-0.012
0.002
-0.008
-0.086
-0.086
-0.060
0.037
-0.004
-0.047
0.036
-0.102
-0.085
-0.080
0.051
0.036
0.033
-0.047
-0.139
-0.062
-0.070
0.046
-0.009
-0.087
0.118
0.141
-0.070
-0.150
-0.087
-0.050
-0.022
0.018
-0.055
-0.052
-0.042
0.046
0.044
-0.064
0.053
-0.063
-0.163
-0.059
-0.058
-0.076
0.005
0.096
0.144
-0.055
-0.068
-0.167
0.018
-0.156
0.045
0.071
-0.096
0.030
-0.082
-0.120
-0.114
-0.033
0.044
-0.085
0.023
0.001
-0.053
-0.011
-0.043
-0.041
-0.048
0.005
-0.017
-0.143
0.008
-0.040
0.008
-0.002
-0.028
-0.008
-0.065
0.037
-0.077
-0.088
-0.050
-0.025
-0.107
-0.055
0.089
0.003
-0.035
-0.117
-0.082
0.030
0.021
-0.025
-0.018
0.083
-0.007
-0.177
-0.062
-0.071
0.006
0.051
-0.087
0.035
-0.012
-0.050
-0.093
-0.117
-0.012
-0.065
0.065
0.028
0.016
-0.029
-0.053
-0.091
-0.001
0.049
0.016
0.037
0.052
-0.006
-0.172
-0.045
-0.074
-0.075
-0.043
-0.018
-0.089
0.028
-0.043
0.061
0.025
-0.059
-0.078
-0.060
0.054
-0.068
-0.004
0.026
0.094
-0.015
-0.079
-0.045
-0.047
-0.003
0.007
0.004
-0.022
-0.073
-0.001
-0.022
0.021
0.016
-0.026
0.046
-0.026
-0.084
-0.106
0.089
-0.098
-0.014
0.090
0.066
0.032
-0.020
-0.113
-0.095
0.076
-0.041
0.002
-0.047
-0.074
-0.002
0.030
0.056
-0.014
-0.107
-0.101
-0.047
-0.068
-0.066
0.017
-0.013
-0.054
0.009
0.048
-0.011
0.073
0.010
-0.069
0.071
-0.116
-0.065
-0.071
-0.057
0.025
0.144
0.023
-0.036
-0.120
-0.015
-0.050
-0.099
0.036
0.033
-0.013
0.010
-0.103
-0.018
-0.109
0.081
-0.000
0.002
-0.079
-0.054
-0.000
0.048
-0.136
0.008
-0.005
-0.066
0.033
-0.065
-0.096
0.055
-0.102
-0.018
-0.191
-0.010
-0.033
0.085
-0.101
-0.015
0.125
-0.024
-0.190
-0.062
0.039
-0.068
0.127
0.018
-0.006
-0.067
-0.029
0.079
-0.040
0.020
0.019
-0.098
-0.051
0.033
-0.068
-0.067
-0.088
-0.077
0.020
0.108
0.151
-0.117
0.044
-0.140
-0.058
-0.013
-0.089
-0.088
0.129
-0.056
-0.077
-0.109
-0.113
0.013
-0.013
-0.056
-0.137
-0.054
0.006
-0.025
-0.006
0.006
0.041
0.099
0.066
-0.091
-0.021
-0.016
-0.041
-0.080
-0.004
0.102
0.004
0.021
-0.022
-0.116
-0.070
-0.003
-0.039
0.055
-0.040
0.043
-0.180
-0.034
-0.004
-0.038
0.015
0.032
0.038
-0.037
-0.020
-0.028
-0.019
-0.055
-0.062
0.024
-0.093
-0.019
-0.018
0.067
-0.110
-0.042
-0.077
-0.031
-0.127
0.004
0.049
0.018
-0.054
-0.101
-0.100
-0.019
0.093
0.046
-0.108
-0.054
-0.006
0.044
0.105
0.062
-0.012
-0.062
-0.078
-0.089
-0.063
0.010
-0.020
0.003
0.052
0.002
-0.008
-0.106
-0.008
0.019
0.091
-0.111
-0.164
-0.080
0.070
0.006
-0.108
0.001
0.082
-0.096
-0.043
-0.073
-0.107
-0.004
0.001
0.023
-0.080
-0.032
-0.014
0.011
-0.037
-0.013
-0.023
-0.136
-0.005
0.006
0.021
0.131
-0.023
-0.057
0.060
-0.156
0.006
-0.135
-0.013
0.077
-0.070
0.012
0.030
0.043
-0.028
-0.052
-0.110
0.008
-0.123
-0.039
0.022
0.061
0.012
-0.005
-0.034
-0.031
-0.084
-0.134
-0.025
-0.106
0.030
-0.056
-0.081
-0.104
0.047
0.077
0.005
0.084
-0.033
-0.052
-0.020
-0.116
-0.005
0.009
-0.049
-0.007
0.072
-0.011
-0.074
0.006
-0.104
-0.047
-0.006
0.069
0.035
-0.017
0.047
-0.001
-0.024
-0.097
-0.051
0.100
-0.175
0.001
-0.049
0.086
0.023
0.004
0.009
-0.061
-0.162
-0.002
-0.086
-0.021
-0.044
-0.005
-0.040
0.023
-0.018
0.001
-0.045
-0.003
-0.032
-0.031
-0.000
-0.034
-0.047
-0.100
0.031
0.092
0.050
-0.026
-0.075
-0.143
-0.081
0.014
0.081
-0.057
0.006
0.078
-0.071
-0.095
-0.019
-0.008
-0.055
-0.033
0.109
-0.028
-0.094
-0.030
-0.052
-0.001
0.028
-0.007
-0.053
0.056
-0.129
0.048
-0.036
-0.022
-0.046
-0.004
-0.018
0.035
-0.055
-0.109
-0.025
-0.041
-0.016
0.033
-0.071
-0.044
-0.013
-0.060
0.002
0.126
0.032
-0.156
-0.065
0.028
0.017
0.046
0.018
-0.086
-0.017
-0.024
-0.029
-0.033
-0.044
0.052
-0.023
-0.051
-0.058
-0.049
-0.066
-0.011
-0.062
0.045
0.094
0.005
-0.062
-0.091
-0.012
0.020
-0.010
-0.024
-0.015
0.047
0.012
-0.028
-0.058
-0.018
0.035
-0.032
-0.064
0.049
-0.082
0.010
-0.051
-0.018
0.079
-0.069
0.029
-0.017
-0.067
-0.068
0.028
0.062
-0.039
-0.063
-0.123
0.059
-0.000
-0.026
0.064
0.011
-0.090
0.007
-0.079
-0.031
0.007
-0.023
0.123
0.036
-0.020
-0.110
-0.002
-0.143
0.139
-0.047
-0.063
0.128
-0.042
-0.015
-0.140
-0.055
-0.079
0.033
-0.004
-0.003
-0.045
0.024
-0.002
-0.069
-0.115
-0.000
-0.017
0.043
-0.074
-0.072
-0.022
0.058
-0.069
-0.094
-0.014
-0.032
0.061
0.002
0.108
0.050
-0.092
-0.072
-0.073
-0.001
0.047
0.073
0.007
-0.133
-0.024
-0.073
0.096
-0.053
-0.054
0.008
0.005
0.027
-0.081
-0.003
-0.154
-0.038
0.077
0.040
-0.047
-0.010
0.109
-0.024
-0.025
-0.037
-0.078
-0.070
-0.091
-0.007
0.031
0.001
0.042
-0.100
-0.152
-0.009
-0.002
0.006
-0.024
-0.117
-0.029
-0.060
-0.034
-0.025
0.046
-0.103
0.001
0.038
0.030
0.048
0.027
-0.019
-0.074
-0.016
-0.160
-0.011
-0.047
0.031
0.031
-0.039
-0.082
0.055
0.020
-0.056
-0.140
0.067
-0.083
-0.024
0.074
-0.001
0.016
-0.060
0.048
-0.018
-0.017
-0.068
-0.028
0.004
-0.008
-0.093
-0.033
0.009
0.019
0.036
-0.007
-0.065
-0.106
-0.006
-0.046
-0.040
-0.060
-0.035
0.036
-0.096
-0.061
-0.040
-0.082
-0.092
-0.020
0.111
0.044
-0.083
0.048
-0.038
-0.139
0.055
0.001
-0.087
-0.106
-0.009
-0.061
0.097
0.015
0.041
-0.069
-0.027
-0.002
-0.020
-0.042
-0.091
-0.026
0.148
0.038
0.042
-0.062
-0.044
-0.075
0.012
-0.013
-0.042
0.069
0.070
-0.034
-0.019
-0.145
-0.108
0.144
0.065
-0.029
-0.114
0.000
-0.045
-0.028
-0.053
-0.006
0.036
-0.020
-0.043
-0.075
0.055
0.006
0.028
-0.055
-0.023
0.072
-0.046
-0.110
-0.095
-0.056
-0.030
0.029
-0.018
-0.048
-0.011
0.029
-0.036
0.054
0.022
-0.013
0.019
0.023
-0.039
-0.084
-0.011
-0.015
0.001
-0.097
0.014
-0.097
0.017
0.057
-0.098
-0.019
0.013
0.065
-0.029
-0.047
-0.084
0.013
0.009
0.045
0.001
0.057
-0.057
0.009
0.001
-0.034
-0.120
-0.006
-0.028
-0.109
-0.086
-0.032
-0.094
-0.037
0.099
0.011
-0.108
-0.165
0.000
0.005
0.010
-0.028
-0.066
-0.003
-0.008
0.129
-0.003
-0.012
-0.086
-0.061
-0.077
-0.072
0.192
-0.032
-0.040
-0.061
-0.077
0.030
0.132
-0.119
0.023
-0.081
-0.126
-0.016
-0.100
-0.056
0.008
-0.067
-0.006
-0.032
0.104
-0.031
-0.034
-0.043
0.043
-0.122
0.069
-0.017
-0.179
0.003
-0.043
-0.003
0.092
-0.050
0.057
-0.026
-0.097
-0.167
0.068
-0.056
-0.048
0.017
0.054
0.008
-0.096
0.057
0.015
-0.043
0.080
-0.145
0.100
-0.038
-0.032
0.063
0.063
-0.025
-0.067
-0.067
0.030
-0.007
-0.098
-0.056
-0.042
0.026
0.035
-0.101
-0.084
0.058
-0.039
0.056
-0.029
-0.104
0.004
0.118
0.051
-0.098
-0.049
-0.106
-0.085
-0.079
0.012
-0.017
-0.009
-0.005
0.020
-0.058
-0.033
0.043
-0.091
0.020
0.091
0.049
0.003
0.015
-0.126
-0.062
-0.115
0.061
0.027
0.005
0.054
-0.039
-0.043
0.036
0.006
-0.190
-0.038
-0.034
-0.096
-0.106
0.133
0.026
0.001
0.036
0.064
-0.028
-0.049
-0.093
-0.095
0.057
0.079
0.068
-0.137
-0.067
-0.044
-0.021
-0.029
0.084
0.022
-0.027
-0.051
0.040
-0.039
-0.171
-0.081
0.077
0.069
0.008
0.042
-0.054
0.002
0.001
-0.134
-0.103
0.046
0.065
0.057
0.049
-0.079
0.028
-0.095
-0.139
0.031
-0.028
0.077
-0.093
-0.032
-0.015
0.015
-0.068
0.076
-0.053
-0.050
-0.019
-0.080
0.014
-0.030
0.066
-0.068
0.009
-0.076
0.041
0.022
-0.080
0.029
0.021
-0.047
-0.106
0.001
-0.045
-0.066
0.036
-0.009
-0.040
0.016
-0.053
0.014
0.012
0.106
-0.053
-0.099
-0.011
-0.009
-0.024
0.096
0.060
-0.031
-0.089
-0.117
-0.062
0.011
-0.020
0.024
0.016
-0.085
-0.060
0.004
-0.087
-0.018
-0.012
0.101
-0.060
-0.047
-0.099
-0.016
-0.041
0.018
-0.147
-0.012
0.010
-0.072
0.126
0.018
-0.130
-0.061
-0.060
-0.023
-0.004
-0.022
0.073
-0.020
0.066
-0.036
-0.027
-0.104
0.083
-0.049
-0.074
-0.098
-0.003
0.018
0.008
0.002
-0.034
0.065
0.077
0.055
-0.040
-0.116
-0.048
0.014
0.029
0.037
-0.110
-0.068
-0.037
-0.032
0.008
0.012
-0.040
-0.082
-0.020
-0.023
-0.026
-0.010
0.029
-0.042
0.021
-0.001
-0.073
-0.020
0.076
-0.088
-0.100
0.021
-0.006
0.026
-0.102
0.010
0.013
0.003
-0.101
0.042
0.062
-0.080
-0.063
-0.082
-0.045
-0.011
-0.025
0.052
-0.080
0.012
0.050
-0.070
-0.075
0.024
0.096
-0.010
-0.083
0.089
0.097
0.012
-0.074
-0.056
-0.128
-0.047
0.038
0.015
-0.064
0.035
-0.027
0.018
-0.065
-0.064
-0.149
-0.066
0.129
0.036
0.083
-0.069
-0.115
-0.067
-0.060
-0.002
0.009
0.090
0.038
-0.123
-0.085
0.021
0.008
-0.009
0.059
-0.080
0.036
-0.038
-0.085
-0.030
0.034
-0.111
-0.000
-0.035
-0.032
0.064
-0.029
-0.130
-0.009
-0.041
0.046
0.037
-0.006
-0.013
-0.029
-0.081
-0.083
0.008
-0.060
0.032
-0.049
-0.077
0.038
-0.050
-0.115
-0.039
-0.081
0.006
0.052
0.002
-0.031
-0.073
-0.035
-0.023
-0.025
0.021
0.064
-0.035
0.001
0.019
-0.017
-0.061
-0.047
-0.127
-0.065
-0.016
0.009
0.104
-0.050
-0.177
-0.083
-0.058
-0.034
-0.082
-0.018
0.082
0.080
-0.072
-0.129
-0.027
-0.100
-0.033
0.045
0.014
0.082
-0.037
-0.094
-0.108
0.023
-0.068
-0.060
-0.016
0.106
-0.016
-0.024
-0.014
0.006
0.019
0.006
-0.143
-0.023
-0.025
-0.022
-0.029
0.037
-0.074
0.006
-0.078
-0.023
-0.047
0.002
-0.051
-0.048
0.007
-0.021
0.161
-0.049
-0.132
-0.026
0.014
0.025
-0.082
-0.100
-0.025
0.059
0.018
-0.083
-0.051
0.011
0.048
0.008
0.081
-0.315
0.177
-0.003
0.071
-0.045
-0.095
-0.056
-0.069
0.010
0.010
0.051
0.048
-0.068
-0.019
-0.071
-0.069
-0.062
-0.059
0.001
-0.057
0.011
0.004
-0.095
-0.075
-0.085
-0.067
-0.062
0.075
-0.025
0.114
-0.127
-0.080
0.014
0.024
0.061
-0.024
0.016
0.005
0.009
0.039
-0.088
-0.030
-0.025
-0.051
-0.125
-0.100
-0.023
0.013
-0.041
-0.049
0.060
-0.080
-0.174
-0.013
-0.011
-0.079
0.074
0.085
0.032
-0.193
0.051
0.069
-0.078
-0.081
0.038
-0.096
-0.024
0.051
-0.060
-0.051
0.033
0.034
-0.062
-0.069
-0.097
-0.066
-0.044
-0.070
0.043
-0.012
0.097
-0.021
-0.172
-0.068
-0.006
0.003
0.131
0.021
0.026
-0.097
-0.035
0.131
-0.006
-0.041
-0.054
-0.031
-0.041
0.035
-0.052
-0.011
0.038
0.021
0.058
-0.034
-0.120
-0.170
0.004
-0.057
-0.031
0.059
0.020
-0.025
-0.030
-0.044
-0.032
-0.018
-0.022
-0.103
0.022
-0.058
-0.015
0.024
0.073
-0.061
-0.100
-0.034
0.079
0.101
-0.036
0.009
-0.077
-0.100
-0.040
-0.164
0.112
0.009
-0.023
0.021
-0.085
-0.002
-0.127
0.038
0.022
0.057
-0.032
-0.109
-0.096
0.018
0.000
0.058
-0.087
-0.037
-0.103
0.075
-0.009
0.018
-0.086
-0.107
-0.143
0.054
-0.116
-0.003
-0.038
0.061
0.036
-0.036
-0.059
-0.020
-0.018
-0.068
-0.047
0.009
-0.007
-0.013
-0.055
-0.009
-0.022
-0.041
-0.062
-0.022
0.005
0.046
-0.033
-0.086
0.012
-0.066
-0.070
-0.040
-0.016
0.058
0.079
-0.012
0.009
-0.073
-0.029
-0.029
0.053
0.016
0.018
0.018
-0.033
0.001
-0.112
0.046
-0.022
-0.023
