-0.008
-0.030
-0.109
0.077
0.029
0.064
0.035
0.009
0.005
0.046
-0.023
-0.032
-0.001
0.060
-0.009
0.069
-0.005
0.074
-0.009
0.086
-0.004
0.046
0.042
0.045
-0.025
-0.033
0.001
0.019
0.012
-0.031
0.008
-0.025
0.064
0.085
0.018
-0.022
-0.071
0.055
-0.007
0.076
-0.035
0.043
0.077
0.030
0.008
0.006
0.068
-0.002
-0.031
0.010
0.072
-0.018
0.102
0.064
0.047
0.009
0.029
0.100
-0.035
0.117
-0.023
-0.026
0.095
0.035
0.097
-0.038
0.021
-0.018
0.067
0.025
0.018
-0.013
0.042
-0.030
-0.009
0.055
0.007
-0.014
0.016
0.053
0.030
0.038
0.191
-0.025
-0.056
0.009
0.037
0.079
0.075
-0.032
0.010
-0.007
0.067
0.121
0.036
0.029
-0.079
0.042
0.015
0.061
0.011
0.045
-0.000
0.083
0.096
-0.048
-0.025
0.004
0.009
-0.043
-0.059
0.002
0.129
-0.031
-0.116
0.024
0.036
0.020
0.027
-0.077
0.040
0.050
-0.021
0.025
0.046
-0.026
-0.006
0.028
0.009
-0.041
0.112
0.012
0.125
0.050
-0.077
0.028
-0.044
0.094
0.070
-0.036
-0.031
0.043
0.015
0.011
-0.035
0.102
0.037
0.036
0.101
0.082
0.039
-0.052
0.015
-0.039
0.056
-0.075
-0.032
0.043
0.047
-0.047
-0.054
0.064
-0.039
0.094
-0.058
-0.036
-0.011
0.040
-0.059
0.050
-0.032
0.075
0.013
0.072
-0.065
0.035
-0.091
0.111
0.034
0.026
0.035
-0.022
0.095
0.013
0.021
0.034
0.095
-0.040
0.050
0.080
-0.018
-0.013
0.006
0.052
0.062
0.012
-0.000
-0.044
-0.066
0.073
0.004
0.008
0.058
0.013
0.032
0.010
-0.017
0.080
-0.019
0.025
0.005
0.089
0.024
0.085
-0.133
0.005
0.063
0.046
-0.030
-0.001
0.064
0.023
0.044
-0.006
-0.012
0.064
-0.041
0.063
0.091
0.010
-0.065
0.100
0.058
-0.040
-0.040
-0.016
0.064
0.082
0.026
0.040
0.024
-0.039
-0.038
0.075
-0.037
-0.019
-0.040
0.024
0.001
0.047
-0.075
0.026
0.164
0.013
-0.016
-0.032
0.041
0.082
0.096
0.045
0.036
-0.021
0.030
0.123
-0.053
-0.034
0.059
-0.094
0.023
0.093
-0.017
0.026
0.006
0.012
0.038
0.040
-0.003
0.085
-0.036
-0.025
0.028
-0.037
0.049
0.048
0.037
-0.040
-0.030
-0.094
0.087
-0.026
0.144
0.011
-0.014
-0.018
0.026
-0.013
0.004
0.072
0.029
-0.043
-0.061
0.058
-0.036
-0.005
0.077
-0.074
-0.037
0.029
0.136
0.041
0.015
0.033
0.010
0.022
-0.088
-0.001
0.080
0.007
0.044
0.091
-0.024
-0.044
0.027
-0.073
-0.003
0.086
-0.068
-0.035
0.018
0.075
0.053
-0.074
0.032
0.033
-0.018
0.092
0.002
-0.039
0.042
0.034
-0.010
0.050
0.091
0.081
0.028
-0.058
0.004
0.052
0.054
0.071
-0.081
0.011
0.072
-0.040
0.002
-0.009
0.100
0.105
-0.119
-0.014
0.067
0.008
-0.052
0.057
0.005
0.065
-0.009
0.098
0.028
-0.043
0.016
0.025
0.051
-0.053
-0.021
0.099
-0.094
-0.031
0.043
0.122
0.024
0.027
0.089
0.008
0.001
0.011
-0.036
0.070
0.018
0.018
-0.015
0.104
-0.066
0.057
0.111
0.032
0.012
0.007
0.113
-0.025
0.084
-0.036
0.002
0.070
0.044
-0.018
0.026
0.067
0.027
0.013
-0.101
-0.013
0.051
-0.103
-0.045
0.113
-0.060
0.023
0.043
0.021
0.015
-0.011
0.028
-0.004
0.012
0.104
0.048
-0.022
-0.005
0.007
0.079
0.030
0.048
-0.043
0.001
0.072
0.102
-0.021
0.031
0.045
-0.016
-0.148
0.050
0.040
0.081
0.095
0.050
0.026
0.038
0.079
-0.058
0.036
-0.021
-0.037
0.107
0.116
0.053
-0.043
-0.125
-0.029
0.024
0.030
0.028
0.023
-0.043
0.015
0.040
0.043
0.091
-0.027
0.069
-0.022
-0.031
-0.041
0.055
0.074
0.000
0.045
-0.017
0.079
0.086
-0.016
0.027
0.043
0.051
0.031
0.048
-0.076
0.040
0.075
0.102
0.014
-0.056
0.032
0.019
-0.010
-0.005
-0.013
0.020
0.131
0.015
0.025
0.070
-0.067
-0.065
0.035
-0.039
-0.033
0.112
0.016
0.086
0.109
0.032
-0.047
0.078
0.100
-0.020
-0.040
-0.031
0.020
-0.044
0.052
0.056
0.049
-0.068
0.040
-0.040
-0.050
0.035
-0.032
0.006
0.043
0.009
-0.050
0.007
-0.029
0.026
0.051
-0.058
0.079
0.021
-0.003
0.054
-0.006
0.097
0.039
0.066
-0.006
-0.014
0.026
0.058
0.027
0.024
0.041
-0.020
0.050
0.071
0.002
-0.057
-0.013
0.081
-0.019
-0.015
-0.029
0.030
0.036
0.034
-0.003
-0.015
-0.084
-0.039
0.020
0.038
0.044
0.078
-0.103
0.026
0.021
0.008
0.042
0.080
-0.011
0.024
0.005
0.048
-0.053
0.038
0.055
0.056
0.017
-0.036
-0.050
0.106
0.014
0.012
0.030
0.062
-0.003
-0.006
0.087
0.055
-0.088
0.070
0.009
0.045
0.018
-0.022
0.019
0.004
-0.029
0.034
0.073
0.009
-0.007
0.039
-0.093
-0.068
0.064
-0.028
0.123
0.028
0.008
0.048
0.037
0.053
0.043
-0.056
0.020
-0.005
0.018
-0.011
0.005
-0.005
-0.065
-0.001
0.055
0.040
0.038
0.055
0.031
-0.124
0.206
-0.041
-0.069
-0.008
0.078
0.112
-0.047
0.030
0.116
-0.061
0.010
0.095
0.010
-0.039
-0.030
-0.011
-0.104
0.061
0.082
0.007
0.006
-0.110
-0.026
-0.044
0.058
0.102
0.013
0.092
-0.036
0.029
-0.038
-0.023
0.080
-0.002
-0.018
0.021
0.031
0.033
-0.061
-0.025
0.034
0.152
0.075
-0.014
0.016
-0.022
0.043
0.078
0.038
0.073
0.011
0.012
-0.042
-0.043
0.010
0.050
0.060
0.124
-0.082
-0.054
-0.021
0.063
0.109
-0.081
0.038
0.068
0.005
-0.024
0.107
0.038
0.037
-0.065
0.041
0.050
0.044
0.066
0.038
-0.092
-0.025
-0.018
0.112
0.073
0.031
-0.014
0.029
0.084
0.041
0.051
-0.067
0.062
0.107
0.026
-0.047
-0.006
-0.043
0.046
0.048
0.059
0.048
0.077
0.037
0.049
-0.054
-0.042
0.003
-0.003
-0.024
0.089
0.049
0.049
0.052
0.050
-0.027
0.052
-0.117
0.103
0.001
0.051
-0.025
0.017
0.065
0.003
-0.020
0.069
0.066
-0.050
-0.060
0.013
0.024
-0.022
0.011
0.044
-0.009
0.050
0.012
0.037
0.108
0.058
-0.076
0.014
0.012
0.029
-0.087
0.079
0.064
-0.004
0.072
0.021
0.015
-0.019
-0.037
0.085
0.089
-0.010
-0.103
0.028
0.067
0.018
-0.015
0.002
-0.006
0.050
0.001
-0.053
0.052
0.105
0.013
0.014
-0.070
0.026
0.083
-0.085
0.115
-0.025
-0.033
-0.014
-0.022
0.041
0.053
0.142
-0.028
0.026
0.053
-0.037
-0.046
0.047
0.026
0.064
0.110
0.011
0.000
0.043
0.061
0.007
-0.019
0.061
-0.018
0.049
0.077
0.040
0.063
-0.057
-0.048
-0.007
0.080
0.048
-0.019
0.012
0.024
0.016
0.046
0.015
-0.130
0.009
0.020
0.064
0.082
0.039
-0.008
-0.007
0.145
-0.030
-0.005
0.005
-0.022
0.124
0.083
-0.005
-0.021
-0.010
0.049
-0.027
0.039
0.147
-0.010
0.049
-0.071
-0.023
0.031
0.072
-0.096
0.013
0.048
0.094
0.008
-0.118
-0.035
0.076
0.032
0.049
0.047
-0.025
0.011
-0.047
0.027
0.046
-0.079
0.036
0.023
0.033
0.132
-0.079
-0.001
-0.047
0.024
0.089
0.049
0.041
-0.032
-0.011
0.054
-0.026
-0.059
-0.069
-0.017
0.067
-0.003
0.126
0.059
-0.130
0.028
0.048
0.042
-0.024
0.059
0.025
-0.038
0.027
-0.045
0.051
0.064
0.054
-0.078
-0.031
-0.047
0.081
0.055
-0.001
-0.038
0.049
-0.044
-0.020
0.141
0.042
-0.118
-0.053
0.100
-0.007
0.079
-0.001
-0.020
0.050
0.029
0.032
0.038
0.074
-0.046
-0.005
0.009
-0.038
0.049
-0.004
0.031
0.059
0.069
-0.020
0.014
0.009
-0.008
0.013
-0.054
0.066
0.042
0.045
-0.009
-0.035
0.048
-0.006
0.006
0.064
-0.013
-0.005
0.112
0.012
0.101
-0.006
-0.067
-0.002
0.099
-0.001
0.050
0.072
0.040
-0.023
0.063
-0.057
0.015
0.044
-0.055
-0.030
0.017
-0.023
0.044
0.054
0.078
0.013
0.011
-0.080
-0.016
0.028
0.083
-0.016
0.040
0.021
0.029
-0.018
0.078
0.016
0.019
-0.027
-0.001
0.081
-0.077
-0.014
0.021
-0.008
0.154
0.021
-0.030
0.065
0.057
0.122
0.030
-0.028
-0.075
0.063
-0.003
-0.056
0.048
0.084
0.019
0.039
0.007
0.076
-0.060
-0.039
-0.111
0.006
0.007
0.026
0.005
0.039
-0.066
0.047
-0.040
-0.028
0.036
-0.060
0.117
-0.008
-0.015
0.074
0.025
0.036
-0.044
-0.011
0.026
0.040
-0.044
0.010
0.059
0.036
0.015
-0.049
0.089
0.063
0.109
0.041
0.034
-0.021
0.069
0.013
-0.040
-0.012
0.046
0.055
0.027
-0.015
0.072
0.002
0.018
0.014
-0.025
-0.030
-0.018
-0.020
0.044
0.001
0.060
-0.030
-0.076
-0.015
0.055
0.115
0.052
-0.026
0.011
0.001
-0.077
0.016
0.065
0.005
0.002
0.050
0.022
-0.055
-0.009
0.053
0.074
0.020
0.038
0.013
0.001
0.085
0.020
0.003
0.104
0.007
0.069
-0.083
0.016
-0.038
0.009
0.067
0.075
-0.014
0.010
0.039
-0.010
0.050
0.024
-0.092
0.092
0.019
0.041
0.123
-0.011
0.084
-0.049
-0.012
0.036
-0.044
0.025
-0.011
0.002
0.038
0.010
0.066
0.044
-0.030
-0.011
-0.059
-0.017
0.020
0.168
0.093
-0.085
0.030
-0.008
-0.042
0.050
0.006
0.025
0.038
0.050
0.010
0.037
0.002
0.037
0.075
-0.058
-0.111
0.037
0.009
0.021
0.027
0.034
0.027
0.070
0.073
0.017
0.033
0.056
0.007
0.051
-0.013
0.166
-0.070
-0.067
-0.024
0.071
-0.010
0.014
0.020
0.102
0.056
-0.005
-0.005
-0.008
0.030
0.046
0.025
-0.087
0.161
0.069
-0.045
0.029
0.003
-0.010
0.027
0.054
-0.020
0.053
-0.026
-0.034
0.039
-0.066
0.063
0.056
0.117
0.030
0.030
0.101
0.001
-0.073
-0.012
0.059
-0.048
0.048
0.035
0.026
-0.064
0.063
0.061
0.044
-0.045
-0.006
0.073
-0.025
0.102
0.041
-0.014
-0.022
0.045
-0.001
0.017
0.032
-0.050
-0.013
-0.026
0.020
0.011
0.048
0.005
0.041
0.033
0.073
-0.003
0.079
-0.027
-0.056
-0.029
0.019
0.039
0.034
0.029
0.052
0.062
-0.067
-0.047
0.011
-0.013
-0.003
0.024
0.009
0.068
0.031
0.069
0.011
0.007
-0.016
0.062
0.042
-0.037
0.043
0.047
0.013
0.045
-0.031
0.082
-0.047
-0.000
0.061
0.046
0.021
-0.017
-0.016
-0.016
-0.009
-0.043
-0.022
0.015
-0.012
0.132
-0.024
0.036
-0.021
0.061
0.034
0.055
0.064
0.060
0.022
0.063
-0.065
-0.028
0.065
-0.048
0.063
-0.007
0.048
0.070
0.031
-0.017
0.043
-0.007
0.045
-0.070
0.098
0.118
-0.118
0.009
0.068
0.045
0.073
-0.081
0.026
0.087
0.019
-0.029
0.017
0.051
-0.018
0.017
-0.023
0.066
-0.005
0.051
0.016
0.041
0.045
-0.003
-0.030
-0.029
0.074
0.062
0.057
-0.083
0.063
0.083
-0.014
0.057
-0.085
0.096
-0.050
-0.014
0.032
0.121
-0.070
0.003
-0.004
0.033
0.013
0.078
0.033
0.008
0.018
0.068
-0.039
-0.020
0.076
-0.022
0.091
-0.074
-0.013
0.023
-0.028
0.084
0.069
-0.092
0.032
0.034
0.052
0.057
-0.019
0.027
-0.030
0.031
0.070
0.051
0.102
-0.025
0.026
-0.023
-0.035
-0.061
0.059
0.054
0.101
-0.059
0.037
0.068
0.002
0.042
-0.057
0.008
-0.028
0.070
0.086
0.034
-0.028
-0.037
-0.062
-0.002
0.103
0.032
0.018
-0.029
0.088
-0.063
-0.127
-0.023
0.018
0.118
-0.049
0.082
0.039
-0.039
-0.011
0.102
-0.022
-0.033
0.111
0.040
-0.042
0.019
0.024
0.108
0.014
0.033
0.001
0.039
-0.011
0.005
0.011
-0.007
0.049
0.004
-0.060
-0.040
0.059
0.118
0.014
-0.097
0.021
-0.071
0.066
-0.011
0.039
0.029
-0.157
-0.033
0.018
0.118
0.094
0.042
0.007
0.004
-0.026
0.033
0.041
0.053
0.043
0.025
-0.013
0.054
0.037
0.085
-0.021
-0.042
0.054
-0.033
0.006
-0.018
0.051
0.018
0.058
0.080
0.060
0.009
0.038
0.076
-0.022
0.059
-0.013
0.082
0.005
-0.005
-0.029
0.026
0.048
0.021
0.050
-0.090
0.002
0.086
-0.004
0.002
0.027
0.025
0.088
-0.006
0.018
0.012
0.119
-0.078
0.080
0.048
0.020
-0.012
-0.002
0.069
0.026
-0.004
-0.092
0.058
-0.062
0.018
0.040
0.001
0.094
-0.037
0.003
-0.092
0.028
0.123
0.052
0.019
-0.037
-0.034
0.018
0.084
-0.023
0.052
0.006
-0.030
0.035
0.047
-0.007
-0.026
-0.019
0.048
-0.069
0.035
0.008
-0.033
0.038
0.048
0.084
0.011
-0.037
0.046
0.048
0.035
-0.014
0.023
-0.025
0.031
-0.024
-0.064
0.060
-0.012
-0.047
0.054
-0.004
-0.030
0.015
0.015
0.061
-0.020
-0.025
-0.060
0.031
-0.029
0.100
0.101
0.006
0.010
0.039
-0.070
0.052
-0.045
-0.019
0.085
0.055
0.035
-0.043
0.069
-0.009
-0.022
0.041
0.067
-0.038
0.037
0.070
0.071
-0.032
-0.034
-0.020
0.101
0.022
0.081
0.130
-0.074
0.018
-0.071
0.048
0.101
0.009
-0.039
0.004
0.053
0.019
0.073
0.018
-0.011
0.026
0.005
0.014
0.080
0.021
-0.020
0.014
0.070
0.013
0.079
-0.053
-0.083
-0.013
0.040
0.077
-0.046
0.058
-0.016
0.062
0.072
0.031
0.015
-0.004
-0.026
0.016
0.078
-0.049
0.024
0.016
0.078
0.082
-0.067
-0.034
0.052
0.041
-0.092
0.078
0.131
-0.014
-0.033
-0.034
0.104
0.079
0.038
-0.024
0.014
0.015
0.119
-0.021
0.018
-0.032
0.051
0.069
-0.072
-0.012
0.029
-0.008
0.026
-0.075
0.078
0.033
0.018
0.049
-0.106
0.033
-0.034
0.097
0.042
-0.055
-0.020
0.075
0.065
0.008
0.072
-0.010
0.017
0.047
-0.020
0.018
0.042
0.076
0.031
-0.021
-0.029
0.082
-0.017
-0.008
0.100
0.007
0.001
-0.061
0.001
0.188
0.038
0.011
-0.102
-0.030
-0.039
0.076
0.127
-0.024
-0.025
0.042
0.030
0.088
-0.015
0.088
-0.022
-0.054
0.000
0.036
0.059
0.033
-0.020
0.005
0.024
0.013
0.018
0.096
0.012
-0.005
-0.004
0.042
-0.080
0.025
0.043
0.016
0.069
-0.017
0.089
0.047
-0.057
-0.015
0.118
0.125
-0.001
-0.035
-0.043
0.079
0.041
0.046
-0.001
0.008
0.024
-0.005
0.037
0.183
0.066
-0.059
-0.053
-0.046
0.027
0.033
-0.006
0.012
0.131
0.017
-0.024
-0.033
0.035
0.056
0.038
0.038
0.019
-0.081
0.042
0.110
0.073
0.042
-0.082
-0.003
-0.043
0.110
-0.034
0.127
-0.004
-0.048
0.029
0.015
0.031
-0.113
-0.002
0.091
0.077
-0.099
0.060
0.114
0.016
-0.035
0.053
-0.021
-0.007
0.079
-0.007
0.001
0.019
0.039
0.041
-0.003
0.013
-0.024
0.059
0.025
-0.070
0.069
0.060
-0.047
0.088
0.030
-0.067
0.003
-0.002
-0.060
0.061
0.029
0.016
-0.014
0.035
0.076
0.056
0.012
-0.043
-0.004
-0.101
0.065
0.064
0.063
0.117
-0.023
0.007
0.061
-0.006
0.031
-0.039
-0.027
0.046
0.003
-0.012
0.009
0.077
0.049
-0.078
-0.006
-0.014
0.012
0.022
0.038
-0.010
-0.015
-0.056
0.015
0.041
-0.002
0.065
0.092
0.022
0.018
-0.018
0.138
-0.086
0.051
-0.029
0.007
0.014
0.052
0.089
-0.021
-0.011
0.069
-0.048
-0.072
0.155
0.071
-0.062
0.014
0.046
0.005
-0.060
0.035
0.060
0.133
-0.002
-0.018
-0.024
0.012
0.032
0.059
0.032
-0.062
-0.021
0.085
0.013
0.041
-0.148
0.066
-0.015
-0.029
0.032
0.014
-0.009
0.049
-0.049
-0.051
0.011
0.155
0.040
0.065
-0.071
-0.002
0.071
0.073
0.042
0.014
0.043
-0.088
0.081
0.143
0.030
-0.103
0.056
0.090
-0.013
0.103
-0.033
-0.012
0.016
0.112
0.027
0.019
-0.020
-0.009
0.008
-0.001
-0.005
0.030
0.066
0.002
-0.006
0.043
-0.062
-0.039
0.002
0.108
-0.047
0.035
0.110
0.067
-0.039
-0.062
0.089
-0.008
0.032
0.068
0.054
0.017
0.025
0.068
0.029
-0.019
-0.036
0.153
0.095
0.011
0.036
0.045
0.008
-0.004
0.043
0.064
-0.011
0.052
-0.050
-0.015
0.020
0.008
0.089
-0.053
0.045
0.046
-0.012
0.025
-0.061
-0.011
0.022
-0.005
-0.011
-0.041
0.134
-0.045
-0.059
-0.059
0.062
0.045
0.020
0.071
-0.009
-0.033
-0.036
0.084
0.077
0.001
0.027
-0.065
0.034
-0.013
0.075
-0.024
-0.057
0.078
0.128
-0.070
-0.049
0.018
0.033
0.110
0.046
-0.008
0.049
-0.015
0.032
-0.012
-0.115
0.053
0.095
0.005
-0.038
0.017
0.044
-0.049
-0.050
0.056
-0.049
0.039
0.022
0.074
-0.026
0.092
0.014
-0.008
-0.011
-0.004
0.075
0.029
0.033
-0.031
0.051
-0.073
0.088
0.094
0.012
0.070
-0.008
0.026
-0.038
-0.010
0.004
0.071
0.090
0.003
0.020
0.060
-0.068
0.038
-0.002
0.006
-0.036
0.036
0.063
-0.009
0.011
-0.009
0.009
0.081
0.018
0.058
0.027
0.034
0.065
0.006
0.040
0.047
0.025
0.006
0.067
0.015
-0.054
-0.023
-0.043
0.117
0.004
0.110
-0.011
-0.000
-0.048
0.070
0.015
0.030
0.043
0.030
0.012
0.085
0.073
-0.069
-0.049
0.090
-0.002
0.018
-0.046
-0.019
0.131
-0.023
-0.030
0.103
-0.022
0.083
0.053
-0.013
-0.045
-0.062
0.102
-0.032
0.083
0.038
0.065
-0.037
-0.048
0.051
-0.020
-0.088
-0.040
0.046
0.032
0.090
0.048
0.007
-0.021
0.016
0.037
0.101
0.053
0.077
-0.066
0.016
0.057
-0.078
-0.026
0.051
0.107
-0.033
-0.064
0.034
0.014
-0.031
0.067
-0.031
0.117
-0.055
0.097
-0.057
-0.020
0.041
-0.016
0.030
-0.001
0.029
0.004
-0.036
-0.013
-0.013
0.016
0.093
0.101
-0.075
-0.049
0.049
0.014
0.102
-0.039
0.034
-0.003
-0.030
0.099
0.030
-0.062
0.004
0.082
-0.081
0.002
0.062
-0.101
-0.015
-0.063
0.051
0.028
0.054
0.019
0.010
-0.042
0.011
0.142
0.112
0.084
-0.012
-0.065
-0.064
0.034
0.057
-0.049
-0.011
0.047
0.079
0.037
0.031
-0.023
0.039
-0.037
0.046
-0.015
0.006
-0.018
0.017
0.016
0.090
-0.050
-0.006
-0.076
0.073
0.018
-0.043
0.063
0.042
0.110
0.046
0.089
0.006
-0.001
-0.054
0.083
0.048
0.095
-0.003
0.030
0.002
0.084
-0.037
-0.052
0.002
0.082
0.047
0.053
-0.017
0.061
-0.007
-0.024
0.064
-0.067
0.140
0.014
0.096
-0.022
-0.100
0.049
0.022
0.071
0.130
-0.019
-0.090
0.005
0.063
0.048
-0.044
0.054
-0.116
0.012
0.051
0.016
0.101
-0.011
0.089
0.073
0.009
0.051
-0.099
0.028
0.037
0.042
0.068
0.017
-0.055
-0.034
0.051
-0.048
0.031
-0.001
-0.003
0.003
0.064
0.046
-0.053
0.061
0.069
0.040
0.041
0.082
0.083
-0.007
-0.015
0.015
0.062
-0.026
0.065
0.028
0.009
0.011
0.053
0.033
0.046
-0.163
0.045
0.114
0.090
-0.010
-0.002
0.018
0.030
-0.002
-0.002
0.013
0.015
0.017
-0.039
0.031
-0.007
0.026
0.071
-0.052
0.040
-0.018
0.051
-0.065
0.020
0.091
0.150
0.024
0.014
0.060
0.010
-0.013
0.045
-0.000
0.004
0.014
0.048
0.062
-0.042
-0.002
0.081
-0.047
0.026
0.057
-0.037
0.025
-0.014
0.006
0.067
-0.037
0.066
0.104
0.014
-0.040
-0.012
0.007
0.016
0.000
0.027
0.033
0.013
0.130
-0.073
-0.049
-0.019
0.010
0.108
0.035
-0.085
0.031
0.013
-0.005
-0.001
0.038
0.023
-0.004
-0.039
0.071
0.032
0.028
-0.059
0.050
-0.010
-0.005
0.022
0.058
-0.062
0.007
0.003
-0.001
-0.118
-0.000
0.144
0.097
0.018
0.055
0.020
-0.065
-0.016
0.080
0.039
0.018
0.016
0.103
0.005
0.048
-0.028
-0.016
0.055
0.007
-0.018
0.099
0.061
0.021
-0.009
0.074
0.033
0.054
0.022
0.055
-0.012
0.048
0.011
0.042
0.041
-0.014
0.061
-0.019
-0.071
0.059
0.025
0.058
-0.016
0.044
-0.001
0.029
-0.033
0.063
0.039
0.060
-0.049
0.003
0.102
0.077
0.021
0.042
0.021
-0.003
0.026
0.041
0.057
-0.035
0.089
-0.092
-0.001
0.060
-0.039
0.053
-0.010
-0.004
0.029
-0.041
0.078
0.049
-0.002
-0.016
0.144
0.057
-0.010
-0.042
-0.022
0.057
0.043
0.035
-0.004
0.049
-0.037
-0.054
0.029
-0.005
-0.021
0.053
0.002
0.036
-0.014
0.017
0.031
-0.042
-0.038
0.026
0.028
-0.033
0.054
0.037
-0.027
0.052
-0.022
0.058
-0.008
-0.075
-0.018
0.080
0.068
-0.064
-0.024
0.042
-0.031
0.016
0.018
0.046
-0.020
-0.070
0.022
0.004
0.095
0.062
-0.046
-0.010
0.019
-0.021
0.047
0.102
0.075
-0.009
-0.032
-0.051
0.141
0.078
-0.060
-0.032
0.004
0.030
0.017
0.069
0.113
-0.067
-0.047
-0.003
0.053
-0.010
0.064
-0.091
-0.001
0.033
0.011
0.152
0.021
-0.038
0.029
0.060
0.024
0.043
0.088
-0.051
-0.017
0.046
0.001
0.024
0.040
0.164
0.002
-0.088
0.125
0.027
-0.103
0.031
0.093
0.029
-0.033
0.105
0.005
-0.006
0.082
0.052
-0.053
0.124
0.095
-0.076
0.062
0.018
-0.029
-0.035
-0.130
0.065
0.060
0.095
0.038
0.051
-0.028
-0.023
-0.072
0.070
-0.021
0.097
0.091
-0.032
-0.010
0.023
-0.031
0.066
0.151
-0.000
0.037
-0.084
-0.032
0.081
-0.070
0.088
0.026
0.108
-0.042
0.032
0.039
0.014
0.033
-0.006
0.067
0.033
-0.120
-0.034
0.058
0.024
0.060
-0.002
-0.010
-0.087
0.116
0.022
-0.026
-0.014
0.026
-0.023
0.022
0.057
0.039
0.030
-0.012
-0.024
0.034
-0.015
-0.002
0.001
0.046
0.035
0.019
-0.000
0.045
-0.075
0.013
0.042
-0.019
0.034
0.040
-0.032
-0.077
-0.018
0.034
0.067
-0.052
0.066
0.049
-0.013
0.037
0.128
-0.047
-0.075
-0.025
0.047
0.066
0.043
0.008
0.023
0.002
0.011
-0.076
0.037
0.034
-0.065
0.075
-0.037
-0.034
0.020
0.033
0.161
0.018
-0.002
-0.125
0.000
0.071
0.023
0.000
0.076
0.042
-0.039
-0.059
-0.039
0.022
-0.015
0.069
0.069
0.070
-0.017
-0.095
-0.025
0.049
-0.024
-0.014
0.020
0.050
0.041
0.010
-0.030
0.001
0.048
-0.060
0.092
0.055
-0.020
-0.041
-0.020
-0.019
0.013
0.039
0.023
-0.023
0.105
-0.058
0.035
-0.058
0.001
0.049
0.072
0.049
0.101
0.001
-0.014
-0.060
-0.033
0.069
-0.060
0.086
0.044
-0.031
0.090
-0.068
-0.010
0.018
-0.089
0.103
-0.001
0.030
-0.080
0.106
0.093
-0.005
-0.025
-0.047
0.109
-0.018
0.029
0.052
0.019
0.036
-0.030
0.016
-0.031
-0.027
0.018
-0.063
0.123
0.076
-0.003
-0.068
0.011
0.021
0.049
0.042
0.033
0.067
-0.020
0.033
0.008
0.017
0.041
0.014
-0.028
-0.017
0.034
0.020
0.082
0.002
0.016
-0.056
0.006
0.031
-0.032
0.009
0.120
-0.009
0.004
0.067
0.091
0.047
-0.031
0.017
0.014
0.046
-0.043
0.015
-0.005
0.037
0.081
0.068
-0.036
-0.067
-0.050
0.030
0.015
0.028
-0.029
0.002
0.039
0.015
0.018
0.016
0.015
0.139
-0.124
-0.002
-0.035
0.020
0.077
-0.019
-0.020
0.033
0.091
0.054
-0.035
0.002
0.016
0.006
-0.012
-0.032
0.060
0.106
0.016
0.075
-0.065
-0.014
-0.008
0.119
0.105
0.055
-0.051
-0.037
0.052
-0.058
-0.022
-0.011
0.018
0.072
0.061
0.038
-0.060
0.122
-0.056
0.054
0.051
0.008
0.004
0.042
-0.145
0.071
0.085
0.011
-0.041
-0.024
-0.055
0.025
-0.005
-0.011
0.074
0.018
0.068
0.067
-0.020
0.081
0.047
-0.093
0.022
-0.033
0.092
0.056
0.125
-0.021
-0.066
0.008
-0.006
0.028
0.001
-0.005
-0.055
0.084
0.147
-0.034
-0.008
0.033
0.019
-0.055
0.024
0.057
0.033
0.023
0.026
0.048
-0.005
-0.007
-0.009
-0.049
-0.001
0.057
0.087
0.001
-0.008
0.000
0.035
0.008
0.047
-0.019
0.012
0.067
0.032
0.040
0.042
-0.131
0.038
-0.046
0.018
0.094
-0.034
-0.072
0.133
0.125
-0.012
-0.012
0.082
0.032
-0.006
-0.086
0.075
-0.046
0.020
0.040
-0.072
-0.018
0.015
0.093
-0.069
-0.011
0.033
-0.063
0.011
0.055
0.047
0.124
-0.135
0.046
0.054
0.019
0.098
0.067
0.074
-0.032
0.054
-0.050
-0.012
-0.036
-0.018
0.038
0.076
0.004
0.071
-0.035
0.015
-0.053
0.064
0.046
0.005
0.101
0.057
-0.103
0.034
-0.029
0.091
-0.042
0.032
0.064
0.050
-0.032
-0.049
-0.016
-0.006
0.056
0.067
0.045
0.035
0.009
-0.025
-0.089
-0.013
0.074
0.050
0.028
-0.001
0.036
0.043
-0.028
-0.024
0.028
0.081
-0.024
0.020
0.022
0.021
0.075
0.017
-0.018
-0.055
-0.021
0.057
0.038
0.035
0.049
-0.063
-0.012
0.116
0.014
-0.024
-0.003
0.016
-0.068
0.026
0.041
0.081
0.010
0.097
-0.046
0.062
0.002
-0.118
0.070
0.045
-0.011
-0.001
0.027
0.076
0.079
0.021
-0.068
0.061
0.000
-0.047
-0.019
-0.065
-0.068
0.065
0.049
0.092
-0.118
-0.066
0.061
0.024
0.070
0.028
0.043
0.029
-0.070
0.082
0.073
-0.077
-0.036
0.064
0.016
0.071
0.012
-0.038
0.012
-0.018
0.062
0.003
-0.041
0.050
0.044
-0.047
0.041
-0.057
0.027
0.089
-0.117
0.019
0.051
-0.056
-0.039
0.021
0.047
-0.059
-0.001
0.054
-0.029
0.057
-0.006
0.121
0.079
0.030
-0.088
-0.022
0.040
0.024
0.056
0.143
0.048
0.031
-0.046
0.000
0.027
-0.106
0.018
0.034
0.032
0.021
-0.020
0.062
-0.075
0.070
-0.100
0.043
0.033
0.029
0.088
-0.024
0.025
0.039
0.063
0.072
0.036
-0.075
0.034
0.050
-0.103
0.017
0.057
0.021
0.010
0.138
0.061
-0.068
-0.076
0.018
-0.164
0.109
0.124
0.088
-0.040
0.003
-0.025
0.011
-0.055
0.010
-0.027
0.019
0.025
0.046
0.011
-0.020
0.046
0.026
0.077
0.027
0.065
0.054
0.039
-0.010
0.022
0.007
0.068
0.027
-0.074
-0.005
0.000
-0.039
0.143
-0.010
0.035
-0.065
-0.022
0.036
0.017
0.048
-0.014
0.052
0.036
0.073
-0.001
-0.065
0.028
0.038
0.058
0.036
0.000
-0.003
-0.095
0.019
-0.021
0.002
0.059
0.030
-0.039
-0.005
0.029
0.046
0.075
0.021
-0.036
-0.064
-0.039
0.088
0.095
0.080
-0.068
0.046
0.004
0.076
0.001
0.041
0.084
-0.007
-0.002
-0.039
0.014
0.002
-0.003
0.043
0.022
-0.012
0.010
0.093
-0.005
-0.011
0.005
0.008
0.113
-0.005
0.041
0.059
-0.032
0.045
0.108
-0.006
-0.030
0.028
0.021
-0.013
0.155
-0.005
-0.037
0.056
0.027
0.071
0.019
-0.051
-0.042
0.017
0.038
0.008
0.067
0.013
0.058
0.021
-0.012
0.032
-0.092
0.034
0.161
-0.014
-0.012
-0.048
0.017
0.064
-0.015
0.008
0.002
0.132
-0.002
0.026
0.009
-0.005
0.033
0.062
-0.069
-0.044
0.103
-0.014
-0.052
-0.012
0.094
0.018
0.107
-0.072
0.030
0.076
0.037
-0.065
0.030
0.040
0.090
0.015
0.012
-0.004
0.040
-0.009
0.010
-0.009
0.049
0.050
0.054
0.028
-0.067
0.044
-0.012
-0.040
0.046
0.060
-0.075
-0.050
0.018
0.063
0.032
-0.070
0.041
-0.046
0.003
0.022
0.051
-0.005
0.154
-0.078
-0.006
0.024
0.018
0.066
0.121
-0.030
-0.005
0.018
0.057
0.064
-0.024
-0.013
0.019
0.118
-0.044
-0.056
-0.008
-0.058
0.121
0.046
0.004
-0.034
0.047
0.058
0.066
-0.003
-0.058
0.060
0.057
-0.019
0.041
-0.030
-0.002
-0.036
-0.027
0.040
0.062
0.060
0.024
-0.017
0.003
0.033
0.056
0.065
0.076
0.031
0.021
-0.064
0.085
0.075
0.074
-0.003
0.036
-0.075
0.054
0.149
0.081
0.005
-0.052
0.061
0.022
0.004
-0.060
-0.005
0.041
0.027
-0.057
-0.016
0.078
0.012
0.045
-0.085
0.051
0.083
0.036
0.043
-0.032
0.084
0.019
0.096
-0.002
-0.085
0.043
0.089
-0.031
0.042
0.039
0.094
0.016
0.110
0.012
0.004
-0.065
0.110
0.040
0.025
-0.016
0.028
0.037
-0.005
-0.048
0.025
0.034
-0.005
0.009
-0.107
0.011
0.078
-0.015
0.054
-0.028
0.093
-0.004
0.032
0.058
-0.018
0.017
-0.017
0.027
-0.023
0.007
0.092
0.142
0.049
-0.083
-0.020
-0.006
0.095
-0.044
0.011
0.031
-0.041
0.076
0.041
0.044
-0.015
-0.013
-0.032
-0.020
0.052
0.002
-0.008
0.018
0.073
-0.082
0.037
0.106
0.006
-0.122
0.013
0.023
-0.016
0.104
-0.017
0.006
0.053
0.018
0.046
0.002
-0.009
-0.072
0.073
0.016
0.017
-0.050
-0.032
-0.038
0.051
0.064
0.084
-0.057
0.074
0.007
-0.022
-0.022
0.028
0.017
0.088
0.104
-0.040
-0.020
0.001
0.006
0.035
0.093
-0.008
0.006
-0.006
0.052
-0.001
-0.090
-0.072
0.041
-0.014
0.051
0.104
-0.057
0.081
-0.031
0.073
0.013
-0.063
0.086
-0.080
0.038
0.093
0.029
0.045
-0.008
0.013
-0.018
0.077
0.048
-0.038
-0.008
0.059
0.042
-0.046
0.010
0.056
0.022
-0.070
0.014
0.012
0.056
0.020
-0.002
0.044
0.042
0.067
-0.021
-0.030
0.048
0.012
0.018
-0.020
-0.006
0.018
0.049
0.044
0.022
-0.058
0.033
-0.026
0.076
-0.015
-0.015
0.013
0.011
0.036
0.037
-0.012
0.080
0.089
-0.005
0.012
0.044
0.074
-0.025
0.034
-0.058
0.076
-0.016
-0.000
0.029
0.060
-0.034
0.012
0.042
-0.020
-0.022
0.071
0.057
0.026
-0.036
0.021
0.012
0.057
-0.028
0.045
-0.021
0.037
0.129
-0.013
-0.016
0.134
0.063
-0.022
0.023
-0.029
0.027
0.091
0.058
-0.043
-0.038
0.046
-0.076
0.115
0.012
0.098
-0.022
0.062
-0.035
0.038
0.048
-0.056
-0.016
0.021
-0.008
0.067
0.128
-0.062
-0.026
0.049
-0.075
0.036
0.093
0.069
0.007
-0.017
0.053
0.059
-0.021
0.073
-0.027
0.107
0.005
-0.017
0.039
0.090
0.027
-0.008
-0.050
0.067
0.013
-0.018
-0.085
0.134
0.128
0.041
-0.037
-0.030
0.052
-0.018
0.044
-0.058
0.045
0.124
0.135
-0.048
-0.052
0.044
-0.032
0.032
-0.023
0.009
0.008
0.084
0.106
-0.031
-0.049
-0.062
0.095
-0.020
0.032
-0.008
0.057
-0.006
0.067
-0.054
0.016
-0.005
0.002
-0.037
0.031
0.149
-0.094
-0.024
0.021
0.018
0.062
0.112
0.096
-0.034
-0.033
0.079
-0.031
0.101
0.110
-0.064
0.011
0.009
0.025
-0.048
-0.004
0.032
0.075
-0.008
0.000
0.077
-0.023
-0.041
-0.006
0.101
0.103
-0.003
-0.030
0.071
0.003
0.014
0.011
-0.050
-0.049
0.014
0.015
0.004
0.032
-0.019
0.055
0.020
0.034
0.046
0.092
0.009
0.030
-0.033
-0.054
0.049
0.055
-0.034
0.001
-0.032
0.068
0.031
0.062
0.046
-0.113
0.059
0.012
0.005
0.037
-0.019
0.074
-0.023
-0.029
-0.001
0.113
0.012
-0.000
-0.015
-0.021
0.087
-0.075
0.033
0.017
0.032
-0.061
0.080
0.034
0.057
-0.086
0.014
0.038
-0.028
-0.020
0.129
0.070
-0.057
-0.050
0.005
-0.029
0.097
-0.043
0.091
-0.053
0.003
0.041
0.063
-0.017
0.039
-0.027
0.024
-0.051
0.045
-0.030
0.068
-0.026
-0.116
0.057
0.035
0.007
0.008
-0.119
-0.019
-0.012
-0.064
0.102
-0.022
-0.039
0.012
0.036
0.101
-0.124
-0.010
0.078
-0.002
0.097
-0.026
-0.082
0.056
0.021
0.021
0.058
0.052
-0.002
0.040
0.047
0.051
-0.034
0.067
0.012
0.008
-0.074
0.019
0.025
0.067
0.038
0.036
0.045
0.015
0.001
-0.083
-0.076
-0.032
0.003
0.091
-0.072
0.024
0.019
0.029
0.048
-0.052
0.029
-0.002
0.028
-0.088
0.032
0.175
-0.066
-0.002
0.077
0.011
0.028
0.096
-0.039
0.013
0.054
0.049
0.018
0.024
0.082
0.017
0.003
0.036
-0.037
-0.024
-0.016
0.075
0.093
-0.023
0.070
0.051
-0.081
0.067
0.120
-0.017
0.043
-0.006
-0.050
-0.009
0.004
0.089
0.020
-0.019
0.023
0.049
0.021
0.080
-0.042
0.074
-0.061
0.030
0.034
-0.047
0.048
0.030
0.001
0.047
0.019
0.109
0.003
0.013
-0.033
0.025
-0.022
0.058
0.033
-0.022
0.022
0.029
0.008
0.072
-0.025
0.013
0.080
-0.015
0.077
0.030
-0.043
0.007
0.020
0.042
0.032
-0.017
-0.041
-0.004
0.098
0.040
0.046
0.051
0.086
-0.058
-0.059
0.062
0.042
0.019
0.003
-0.035
0.025
0.056
-0.030
-0.095
0.050
-0.062
0.010
0.137
-0.023
0.095
-0.027
0.008
0.034
-0.003
0.033
-0.055
0.154
-0.015
0.144
-0.058
-0.018
0.093
-0.053
-0.049
0.029
-0.021
0.034
0.080
0.030
-0.083
-0.003
0.025
0.003
0.034
-0.047
0.038
0.075
-0.094
0.086
0.041
-0.020
-0.001
0.047
0.001
0.050
0.093
-0.004
-0.000
-0.043
0.052
0.006
0.052
-0.046
-0.072
0.103
-0.018
-0.022
0.057
0.035
-0.031
0.020
-0.106
0.059
0.064
-0.057
0.033
0.005
0.026
0.088
-0.058
-0.096
0.021
0.016
0.035
0.050
-0.088
0.013
0.132
0.051
0.021
-0.009
0.019
0.052
-0.010
-0.067
0.075
0.164
0.029
-0.005
-0.024
0.042
-0.081
0.009
0.056
0.061
-0.085
-0.006
0.129
-0.006
-0.071
-0.007
-0.001
-0.042
0.077
0.004
-0.018
-0.040
0.069
0.106
-0.060
0.057
-0.013
-0.034
-0.086
0.052
0.127
-0.044
0.011
0.069
-0.008
-0.001
0.028
-0.025
0.046
0.013
0.014
0.034
0.044
-0.007
0.054
0.028
0.089
-0.029
0.012
0.044
-0.001
0.093
0.073
0.025
-0.069
-0.006
-0.014
-0.068
-0.071
0.026
0.066
-0.025
0.070
0.045
0.070
0.019
-0.072
-0.072
0.017
0.032
0.049
0.045
0.061
-0.036
-0.001
0.087
0.060
-0.056
0.007
0.053
0.067
-0.082
-0.022
0.061
0.094
0.045
0.058
0.032
-0.086
0.045
0.023
0.027
0.082
0.051
0.041
-0.028
-0.108
-0.010
-0.008
0.028
0.066
0.058
-0.008
-0.006
-0.131
0.000
0.014
0.091
0.024
-0.016
0.083
-0.020
0.031
0.038
0.158
-0.081
-0.014
-0.085
0.000
0.052
0.117
-0.000
-0.005
0.039
-0.001
0.032
0.130
0.009
0.044
-0.054
-0.001
0.076
0.094
0.061
-0.043
-0.017
0.078
0.030
-0.058
-0.064
0.063
0.005
0.006
0.074
0.026
0.014
-0.008
0.020
-0.068
0.003
-0.021
0.077
-0.022
0.099
0.082
-0.022
-0.003
-0.026
-0.068
0.034
0.163
-0.023
0.069
0.074
0.008
-0.074
0.051
0.126
-0.059
-0.136
0.054
-0.088
0.052
-0.013
0.092
0.025
0.090
-0.029
0.047
-0.003
-0.043
0.120
-0.003
-0.043
0.037
-0.014
0.129
0.086
-0.046
-0.047
0.008
0.031
0.049
-0.050
0.087
-0.077
0.054
-0.017
0.029
-0.021
0.073
0.028
0.055
-0.066
0.050
-0.065
-0.006
0.107
0.064
-0.082
0.012
0.012
-0.077
-0.058
0.140
0.018
0.051
0.035
0.064
0.003
0.053
0.022
0.040
0.014
0.026
-0.063
-0.048
0.034
0.061
-0.008
0.036
-0.024
0.070
-0.042
-0.011
0.010
0.118
0.034
0.023
0.037
0.048
-0.121
0.016
0.090
0.021
-0.013
-0.038
0.016
0.108
0.054
0.094
-0.016
-0.023
0.011
0.075
-0.008
-0.023
0.124
-0.039
0.071
0.029
-0.033
-0.009
0.074
0.061
0.008
0.005
-0.104
0.040
0.110
-0.029
0.019
0.020
0.027
-0.001
0.008
-0.024
0.116
-0.035
0.062
0.076
0.060
0.039
0.039
0.010
-0.060
0.032
0.049
0.024
-0.010
0.053
0.063
0.166
0.033
-0.069
-0.035
0.026
0.040
-0.045
0.013
0.109
0.003
-0.024
-0.061
0.042
0.068
0.024
-0.018
-0.051
0.099
0.036
-0.022
-0.069
0.004
0.010
0.044
0.069
0.061
-0.004
-0.014
-0.059
0.010
-0.030
0.104
0.041
-0.036
0.004
0.028
0.062
0.030
0.016
0.067
0.085
0.008
0.036
0.028
0.016
0.030
0.033
0.071
0.005
0.095
-0.088
-0.015
-0.049
-0.000
0.063
-0.019
-0.067
0.087
-0.057
0.070
0.100
0.003
-0.107
-0.034
0.055
0.043
-0.043
0.056
0.089
0.082
-0.035
0.034
0.012
0.045
-0.035
-0.040
0.054
0.080
-0.040
0.046
0.047
-0.013
-0.026
0.036
-0.012
0.033
0.049
0.001
-0.035
0.057
0.102
0.004
0.023
-0.024
-0.018
0.031
0.014
0.035
0.016
0.033
-0.026
0.001
0.020
0.072
0.062
-0.012
-0.106
0.026
0.012
-0.017
0.067
0.092
0.077
-0.008
0.005
0.019
-0.034
0.120
0.063
-0.050
0.104
-0.021
0.061
-0.049
0.087
-0.041
-0.015
0.050
-0.063
-0.035
-0.017
0.077
0.019
-0.033
0.100
0.029
0.002
0.086
-0.023
0.059
0.044
0.000
-0.036
-0.044
-0.001
0.049
0.011
0.019
0.054
-0.116
0.025
0.041
0.006
-0.016
0.050
0.033
-0.016
0.005
0.040
-0.055
0.133
-0.035
0.062
0.039
-0.037
0.018
-0.096
0.021
0.075
0.041
0.003
0.028
-0.038
0.062
0.102
0.066
-0.009
0.032
0.018
0.068
-0.054
-0.021
-0.028
-0.010
0.026
0.040
0.058
0.037
-0.039
0.024
0.019
0.080
-0.076
0.041
0.036
-0.069
0.076
0.029
-0.059
-0.009
0.026
0.030
0.043
-0.069
0.008
0.006
0.036
0.019
0.050
-0.022
-0.011
0.094
0.017
-0.032
0.059
-0.081
0.019
0.025
-0.027
0.104
0.130
-0.064
-0.042
-0.044
0.132
-0.064
0.040
0.044
0.000
-0.008
0.052
-0.003
0.051
0.047
0.030
0.036
-0.021
0.075
-0.056
0.049
-0.041
-0.012
-0.004
0.062
0.001
-0.021
0.019
-0.014
0.043
0.039
0.028
-0.029
-0.031
0.087
0.027
0.066
0.098
-0.043
0.002
0.031
0.042
0.008
-0.037
-0.087
-0.026
0.087
0.093
-0.107
-0.019
0.034
0.033
-0.021
-0.073
0.100
0.036
0.066
0.062
0.019
0.035
0.042
-0.015
0.047
0.010
-0.068
0.061
0.041
0.008
-0.028
0.010
0.028
0.043
0.010
0.015
0.055
0.051
0.086
-0.062
0.091
0.030
0.011
-0.018
0.061
-0.017
0.023
0.077
0.037
0.110
-0.024
0.003
-0.000
0.041
0.040
-0.028
0.005
0.070
-0.097
0.083
0.133
-0.057
0.014
0.053
0.024
0.017
0.082
-0.010
-0.020
-0.040
0.054
0.057
0.131
0.015
-0.086
0.004
0.018
-0.054
0.091
-0.001
-0.025
0.021
0.034
-0.038
0.099
-0.039
0.106
0.039
-0.002
-0.077
0.033
0.032
0.094
-0.015
-0.016
0.021
0.064
0.055
0.112
-0.061
-0.036
-0.059
0.162
0.013
0.017
0.029
0.019
-0.003
0.034
-0.183
-0.003
0.011
0.018
-0.007
0.004
-0.032
0.039
0.066
-0.074
0.008
0.163
-0.045
0.021
0.046
-0.032
0.050
0.079
-0.016
-0.023
0.070
0.035
0.020
-0.006
-0.055
-0.056
-0.133
0.136
0.064
-0.008
-0.018
0.048
0.059
0.032
-0.057
0.050
0.034
-0.021
-0.031
0.012
-0.003
0.086
0.025
0.035
-0.042
-0.074
0.046
0.079
0.008
0.058
0.038
-0.008
0.024
0.037
0.005
-0.017
0.112
0.037
-0.002
0.009
0.037
0.066
-0.097
0.042
0.021
0.077
0.032
-0.030
-0.034
0.062
0.023
0.099
0.002
0.011
0.072
0.084
-0.064
0.101
-0.006
-0.065
-0.073
0.014
0.089
0.087
0.046
0.064
-0.066
-0.072
0.013
0.054
0.046
0.001
0.073
-0.007
0.040
0.022
0.000
0.001
0.119
-0.003
-0.019
0.006
0.030
-0.045
-0.018
0.126
-0.022
0.067
-0.005
-0.011
-0.013
-0.030
0.128
0.094
-0.000
-0.004
0.012
-0.001
-0.028
0.012
0.023
-0.018
0.005
0.059
0.029
-0.039
0.062
0.033
0.036
-0.060
0.012
0.083
0.035
-0.008
0.038
-0.015
0.097
0.004
-0.062
-0.012
0.047
0.011
0.028
-0.027
0.003
-0.011
0.049
0.076
-0.045
-0.035
0.148
-0.000
0.034
-0.011
-0.049
0.012
0.077
-0.039
0.040
0.057
-0.009
-0.032
-0.058
0.042
0.041
0.009
0.047
0.180
0.013
-0.045
0.023
-0.072
-0.057
0.118
-0.007
0.038
0.091
0.069
-0.032
0.014
0.036
-0.086
0.084
-0.046
0.051
-0.043
0.005
0.106
-0.066
0.066
0.007
0.010
-0.002
-0.077
0.088
-0.022
0.108
-0.097
0.012
0.034
-0.019
0.054
0.008
0.101
-0.004
-0.001
0.092
0.011
-0.051
0.016
-0.026
0.114
0.001
-0.022
-0.002
0.033
-0.003
0.071
0.028
0.003
-0.025
0.016
0.005
0.000
0.084
-0.034
-0.130
0.070
0.007
-0.007
0.101
-0.034
0.021
0.012
-0.040
0.086
0.048
0.014
-0.016
0.026
-0.008
-0.007
0.052
0.018
0.005
0.026
0.018
0.005
0.085
0.002
0.037
-0.031
-0.011
0.027
-0.050
0.069
0.060
0.035
0.015
0.053
0.030
0.001
-0.049
-0.031
0.073
0.076
-0.012
-0.079
0.105
0.015
0.068
-0.047
0.007
-0.091
0.066
0.119
-0.006
0.057
0.047
-0.053
0.032
0.040
0.020
0.042
0.038
0.021
0.014
0.020
0.004
0.033
-0.047
-0.034
0.044
0.011
-0.005
0.035
0.164
0.054
-0.053
-0.054
-0.042
0.006
0.048
0.062
0.050
0.003
0.019
0.107
-0.016
0.003
0.039
-0.027
0.051
0.009
-0.007
-0.003
0.031
0.019
0.029
0.048
-0.032
0.015
-0.039
0.014
0.043
0.071
0.037
0.010
-0.048
0.082
-0.036
-0.028
0.100
0.008
0.089
0.011
-0.002
-0.003
0.085
0.008
-0.033
0.040
0.023
0.028
0.066
0.014
-0.066
0.008
0.054
0.068
-0.043
0.038
0.062
0.033
-0.073
0.066
0.084
0.043
-0.014
0.037
0.001
0.051
0.004
-0.149
0.143
0.073
-0.143
0.016
0.082
0.006
0.006
0.025
-0.023
0.035
0.054
-0.007
0.017
-0.013
0.044
0.002
0.028
0.065
0.125
-0.032
0.051
0.033
-0.001
0.042
0.005
0.034
-0.086
0.062
0.123
-0.099
-0.009
0.032
-0.027
-0.018
0.107
0.039
0.038
-0.035
-0.005
0.026
0.042
-0.004
0.051
0.026
-0.054
0.015
-0.094
0.113
0.046
0.013
0.052
0.024
-0.030
-0.007
0.080
0.054
0.074
-0.065
0.015
0.107
-0.035
0.048
0.042
-0.009
-0.084
0.009
0.112
-0.083
0.089
0.041
-0.034
-0.021
0.059
0.003
0.090
-0.006
-0.007
-0.068
-0.004
0.030
0.036
-0.060
0.034
0.084
0.058
-0.039
0.032
0.084
0.036
0.066
0.064
0.025
0.027
0.099
-0.035
-0.041
0.007
0.031
0.101
-0.039
0.067
0.138
-0.010
-0.014
0.128
-0.050
-0.015
0.031
0.002
0.071
-0.037
0.052
0.004
0.047
0.003
0.040
0.013
0.049
0.018
0.044
0.102
0.094
-0.089
-0.035
-0.015
-0.029
0.001
-0.027
0.039
0.063
0.039
0.035
-0.059
0.083
0.071
0.059
0.010
0.025
-0.018
0.000
0.054
0.122
0.038
-0.043
0.042
-0.069
0.027
0.038
0.106
0.011
-0.092
0.041
-0.014
-0.011
0.016
0.100
-0.037
0.015
-0.003
0.016
0.019
0.033
0.056
-0.007
-0.008
-0.003
0.099
-0.055
-0.024
0.065
0.084
0.055
0.003
-0.021
0.048
-0.038
-0.004
0.093
-0.011
0.023
0.025
0.058
-0.020
0.008
-0.010
0.013
-0.020
0.102
-0.041
0.027
0.012
-0.027
0.105
0.042
-0.058
0.001
-0.025
-0.045
0.010
0.005
0.085
0.042
-0.013
0.015
-0.030
0.104
0.032
-0.008
0.004
-0.023
0.127
0.057
-0.108
0.063
0.002
-0.041
0.120
0.007
-0.021
0.042
0.055
-0.062
0.038
-0.011
0.157
0.093
-0.022
-0.082
0.017
-0.005
0.065
0.033
-0.015
0.006
0.046
0.054
0.059
0.019
0.096
-0.055
0.004
-0.002
0.019
-0.052
0.031
-0.048
0.064
0.038
-0.015
0.102
0.048
-0.089
0.070
-0.085
-0.102
0.097
0.046
0.058
0.111
0.091
0.041
0.038
-0.085
-0.047
0.058
0.114
-0.134
0.053
-0.041
0.042
0.055
-0.036
0.037
-0.029
0.040
0.037
0.030
0.039
-0.040
0.085
-0.088
-0.039
0.072
0.030
0.018
-0.003
0.060
0.083
-0.012
0.004
-0.008
-0.014
0.070
-0.026
0.077
-0.025
0.040
-0.027
0.097
0.060
-0.017
0.025
0.057
0.036
0.013
0.016
-0.093
0.060
0.007
0.014
0.035
0.025
0.045
-0.054
0.001
-0.008
0.016
0.034
0.057
0.032
-0.064
0.025
-0.035
0.063
0.058
0.025
0.034
0.000
-0.042
0.083
0.045
-0.043
-0.016
-0.040
-0.029
0.067
-0.021
0.077
0.033
0.012
0.036
-0.023
0.126
-0.020
0.031
0.128
-0.084
-0.001
0.014
0.025
0.048
-0.044
-0.031
0.102
0.004
-0.039
0.067
0.056
-0.018
0.081
0.057
-0.084
0.018
-0.073
0.023
-0.038
0.082
0.012
-0.008
-0.013
0.007
0.020
0.076
0.057
-0.036
-0.007
0.049
0.001
0.031
0.127
-0.075
-0.049
0.097
0.013
0.021
0.031
0.013
0.087
-0.028
-0.003
-0.051
0.012
0.006
-0.031
-0.009
-0.023
-0.036
0.041
-0.010
0.034
0.033
0.105
0.028
-0.079
-0.024
0.043
0.038
0.015
0.111
0.016
-0.056
-0.079
0.059
0.006
0.061
0.077
0.013
-0.017
0.054
-0.012
-0.089
-0.019
0.065
0.033
0.058
-0.014
-0.017
-0.046
-0.030
0.161
0.031
0.019
0.116
0.009
-0.053
-0.026
-0.031
0.142
0.056
-0.102
0.030
0.082
-0.015
0.005
0.082
-0.007
0.037
-0.024
0.008
-0.022
0.024
-0.028
0.024
0.032
0.040
-0.101
0.051
0.100
0.053
-0.056
-0.050
0.084
0.010
0.002
-0.017
0.086
0.085
-0.018
-0.074
0.053
0.059
0.051
-0.024
0.048
-0.025
0.064
0.063
0.006
0.065
0.111
-0.003
-0.086
-0.001
-0.016
0.003
0.013
0.068
-0.078
0.078
-0.048
0.053
-0.013
0.025
0.063
0.030
0.114
-0.057
0.027
0.030
-0.016
0.059
0.018
0.059
0.051
0.006
-0.058
-0.025
0.074
0.020
0.061
0.024
-0.062
-0.017
0.014
0.060
0.059
0.093
-0.096
0.061
-0.038
0.085
-0.047
0.079
-0.050
0.030
-0.035
-0.006
0.108
-0.081
0.038
0.025
0.026
-0.081
0.018
0.073
0.045
-0.055
-0.017
0.125
-0.052
-0.021
0.029
0.113
0.112
-0.125
-0.016
-0.087
0.020
0.055
0.111
0.020
0.022
0.015
-0.005
-0.014
0.041
0.076
-0.004
-0.037
0.085
0.047
0.022
0.004
-0.018
-0.044
0.061
0.116
0.026
0.027
-0.069
0.030
0.059
-0.041
0.022
-0.006
0.057
0.042
-0.108
0.022
0.012
0.037
0.070
0.026
-0.017
0.056
0.066
0.035
0.025
-0.077
0.023
0.056
-0.017
0.012
-0.015
0.085
-0.044
0.047
-0.056
-0.076
0.082
0.111
0.006
-0.061
0.034
0.030
0.082
0.074
-0.007
0.047
0.041
-0.066
0.071
0.006
0.092
0.112
-0.047
-0.031
-0.030
0.057
0.012
0.092
-0.007
0.016
0.094
-0.069
0.036
0.010
-0.014
-0.038
0.069
0.002
0.038
0.066
0.046
0.030
0.017
0.003
-0.018
-0.023
0.031
0.032
-0.055
-0.008
-0.019
-0.013
-0.038
0.085
0.013
0.004
0.102
-0.036
0.054
-0.024
0.051
-0.007
0.054
-0.027
-0.059
0.104
0.016
-0.121
0.040
-0.021
0.013
0.045
0.050
-0.003
-0.029
-0.021
-0.026
0.114
0.037
-0.018
0.058
-0.067
0.022
0.030
-0.038
0.057
-0.086
-0.028
0.074
-0.028
0.010
-0.118
0.029
0.009
0.031
-0.030
-0.104
-0.009
0.065
0.018
-0.023
-0.037
-0.010
0.077
-0.027
0.021
0.048
0.024
0.178
0.034
-0.092
-0.005
-0.067
0.076
0.038
-0.018
-0.019
0.061
0.008
-0.107
0.018
0.012
-0.006
0.046
-0.019
-0.031
0.002
-0.044
0.073
0.045
0.020
-0.057
0.007
-0.033
0.002
-0.004
0.023
-0.026
0.004
0.026
0.016
0.035
0.080
0.008
-0.004
0.043
0.014
0.089
-0.035
-0.020
0.017
0.060
0.089
0.023
0.003
0.065
-0.015
0.038
0.034
0.070
-0.020
0.019
0.062
0.008
-0.022
0.086
-0.002
-0.130
0.028
0.052
0.048
0.048
0.024
-0.032
0.055
-0.095
0.008
0.077
0.004
0.087
0.054
-0.009
0.052
0.038
-0.022
-0.018
-0.009
0.068
0.011
0.003
-0.036
0.008
0.131
0.066
-0.025
0.047
0.050
0.094
-0.044
0.027
-0.054
-0.021
0.018
0.102
0.104
-0.031
-0.038
-0.065
0.035
0.027
0.134
0.048
-0.052
-0.061
0.040
-0.005
0.048
0.060
0.077
0.049
0.022
-0.086
0.010
-0.012
-0.023
-0.050
-0.028
-0.060
0.072
0.058
0.142
-0.066
-0.137
0.007
0.073
0.041
0.048
0.020
-0.062
-0.032
0.042
0.029
0.001
0.104
0.001
0.054
0.006
-0.049
0.011
-0.016
-0.055
0.079
0.069
-0.001
-0.024
-0.017
0.020
0.111
-0.018
-0.063
0.102
0.032
0.082
0.105
-0.070
-0.177
0.004
-0.051
-0.013
0.091
-0.011
-0.027
0.034
-0.030
0.025
0.047
0.005
0.046
0.022
0.108
-0.017
0.029
0.053
-0.033
0.028
0.014
-0.012
0.068
0.010
0.007
-0.008
0.006
0.038
-0.038
-0.009
0.060
-0.033
-0.025
0.105
0.096
0.095
-0.081
-0.036
0.064
-0.049
-0.040
0.061
-0.011
-0.013
0.044
0.039
0.089
0.036
-0.024
0.019
-0.067
0.038
0.069
-0.005
0.074
0.049
0.121
-0.065
-0.005
-0.009
0.081
0.067
0.009
0.053
-0.058
0.038
-0.056
-0.003
-0.029
0.105
0.048
-0.031
-0.002
0.030
0.021
-0.006
-0.039
0.071
0.104
0.023
0.000
-0.017
0.014
0.066
-0.016
-0.001
0.066
0.034
-0.080
0.042
0.110
0.018
-0.074
-0.066
0.077
0.132
0.043
-0.009
-0.034
0.030
0.029
0.021
0.039
0.001
-0.021
0.023
0.034
-0.014
-0.038
0.059
-0.046
0.080
0.047
0.029
0.050
-0.005
0.084
-0.060
0.018
0.122
0.006
0.050
-0.028
0.089
0.047
-0.034
-0.074
0.008
0.018
0.050
0.029
-0.046
0.075
-0.026
0.009
-0.010
0.061
0.032
0.074
0.035
-0.035
-0.073
0.078
0.016
0.021
-0.017
0.039
0.033
-0.076
0.045
0.099
0.055
-0.049
0.066
0.004
0.027
-0.058
0.017
0.152
0.087
0.049
-0.081
0.006
-0.091
0.146
0.079
-0.032
0.038
0.084
-0.006
0.012
-0.094
-0.095
0.058
-0.002
0.041
0.102
-0.047
-0.115
-0.005
0.038
-0.049
0.059
-0.032
0.089
0.088
-0.144
0.016
-0.059
0.031
0.026
0.110
0.075
-0.014
0.068
-0.009
-0.003
0.024
-0.013
0.041
-0.017
0.079
0.025
0.010
0.026
-0.058
-0.002
0.015
0.044
0.088
-0.066
-0.034
0.044
-0.047
-0.053
0.033
0.036
0.042
0.012
-0.059
-0.049
0.020
0.061
0.048
-0.006
-0.063
-0.017
0.054
0.052
0.025
-0.005
0.048
0.062
-0.020
0.058
-0.008
0.040
-0.028
-0.024
-0.012
-0.045
0.002
0.032
-0.002
0.108
0.057
0.040
-0.106
-0.013
0.046
0.076
-0.025
-0.018
0.040
-0.043
-0.030
0.124
0.092
-0.038
-0.039
-0.020
-0.007
0.091
0.032
0.065
0.019
-0.039
-0.133
-0.020
0.107
0.119
-0.059
0.040
0.039
0.033
-0.013
-0.024
0.055
0.046
0.064
0.038
-0.003
0.000
-0.015
0.078
0.018
0.080
0.035
-0.037
0.022
0.026
-0.141
0.073
-0.036
-0.076
0.110
0.004
0.025
0.083
-0.106
0.013
0.107
-0.035
-0.055
0.078
0.030
-0.017
0.003
0.022
-0.022
0.005
0.100
-0.000
0.035
0.039
0.137
-0.015
0.020
0.021
0.091
-0.013
0.028
-0.027
0.036
0.052
0.009
0.010
-0.030
-0.031
0.019
0.041
0.038
-0.051
-0.030
0.022
-0.002
-0.002
0.028
0.040
-0.031
-0.025
0.109
0.111
0.095
-0.030
-0.053
-0.029
-0.007
0.118
0.012
0.094
0.086
0.058
0.029
0.010
0.026
0.002
0.038
0.026
-0.043
-0.010
0.001
-0.024
0.060
0.012
0.043
0.090
-0.010
-0.015
-0.030
-0.023
0.002
0.050
0.020
0.085
0.026
0.014
0.022
0.002
-0.020
0.032
0.054
-0.085
0.057
-0.001
0.007
0.093
0.022
-0.000
0.008
0.023
0.077
0.104
-0.066
0.021
-0.010
-0.059
0.032
0.162
0.061
0.119
0.052
-0.046
-0.005
-0.039
-0.057
0.052
0.059
0.039
0.069
-0.018
-0.021
0.041
0.020
-0.001
-0.041
-0.056
0.101
0.109
0.053
0.009
-0.038
-0.008
0.033
0.055
-0.003
-0.024
-0.012
0.033
0.048
-0.080
0.031
0.075
-0.038
0.042
-0.080
0.085
-0.039
-0.037
0.085
0.027
0.034
0.050
-0.029
0.090
0.167
-0.060
-0.116
-0.008
0.108
0.063
0.005
0.062
0.052
-0.097
0.119
0.006
0.090
-0.019
-0.043
0.019
-0.070
0.043
-0.038
0.103
0.016
0.051
0.008
-0.082
0.010
0.040
0.081
-0.043
-0.016
-0.006
-0.026
0.055
0.027
-0.010
0.036
-0.009
-0.015
0.038
0.045
0.029
0.054
0.011
-0.122
0.095
0.030
0.055
0.043
-0.020
0.066
0.015
0.021
-0.030
0.130
-0.036
-0.061
-0.010
0.063
-0.020
0.143
0.048
-0.002
-0.059
-0.123
-0.046
0.014
0.025
0.156
-0.027
-0.039
0.043
0.050
-0.027
-0.033
0.041
0.027
0.027
-0.061
0.043
0.083
0.099
0.008
-0.001
-0.068
0.049
-0.034
0.064
0.041
-0.022
-0.028
0.091
-0.066
0.029
-0.032
-0.025
-0.082
0.055
-0.081
0.068
0.169
0.011
0.007
-0.059
-0.065
0.027
0.079
0.010
0.018
0.060
0.048
0.017
0.075
-0.113
-0.007
0.013
0.009
0.020
0.075
0.024
-0.099
0.018
0.050
0.003
0.088
-0.023
0.059
-0.083
0.007
-0.044
0.044
0.123
0.047
-0.007
0.021
0.037
-0.027
0.042
-0.028
-0.032
0.090
0.099
-0.037
-0.055
0.035
0.058
-0.034
0.054
0.022
-0.090
0.055
0.087
0.066
0.063
-0.035
-0.012
-0.021
-0.019
0.014
0.023
0.058
-0.048
0.022
0.030
0.053
0.086
-0.064
-0.016
-0.015
0.028
0.051
0.062
0.049
0.041
0.022
0.034
0.020
0.032
-0.027
0.040
-0.095
0.094
0.027
0.049
0.090
0.009
-0.088
0.117
-0.048
0.010
-0.037
0.050
0.057
0.083
-0.053
0.085
0.005
0.016
-0.033
-0.019
0.065
-0.010
0.057
0.034
0.019
0.047
-0.078
0.027
0.012
-0.064
-0.088
0.063
0.018
0.056
-0.063
0.008
-0.070
0.175
0.025
-0.072
0.039
0.070
0.010
-0.042
0.023
0.020
0.075
0.046
0.048
0.064
0.001
0.076
-0.036
0.005
0.085
0.007
-0.040
0.043
0.096
-0.084
-0.005
0.005
-0.028
0.032
-0.006
-0.015
-0.010
0.031
0.054
-0.100
-0.004
0.014
0.025
0.078
0.001
-0.035
0.118
0.008
-0.004
0.106
-0.023
-0.082
-0.003
-0.013
0.068
0.087
-0.004
0.043
0.054
0.010
0.008
-0.033
0.001
-0.013
-0.089
0.126
0.055
0.025
-0.010
-0.087
0.015
0.083
-0.037
-0.039
0.043
-0.002
0.071
0.011
0.077
0.048
-0.000
-0.008
0.028
-0.013
0.020
0.016
0.036
0.039
0.085
0.115
-0.071
0.024
-0.036
0.106
0.030
-0.029
0.128
-0.031
-0.058
0.014
-0.027
0.010
0.000
0.083
-0.077
-0.023
-0.032
0.052
-0.014
-0.003
0.028
0.066
-0.033
-0.035
0.022
0.062
-0.054
0.059
0.115
-0.070
0.079
-0.012
0.091
0.023
0.093
0.052
-0.059
-0.021
0.022
0.042
0.022
0.141
-0.026
0.040
0.083
-0.026
-0.012
0.054
0.039
0.040
0.043
0.008
0.031
-0.044
0.028
0.061
0.025
0.048
-0.011
0.001
0.052
-0.039
0.041
0.035
0.010
0.030
-0.027
0.084
-0.040
-0.068
0.006
0.027
0.096
0.024
0.027
0.091
-0.011
-0.009
0.038
0.114
-0.045
-0.026
0.085
-0.055
0.138
0.027
-0.015
0.040
0.042
-0.061
-0.030
-0.024
-0.001
-0.022
0.123
0.116
-0.037
0.071
0.002
-0.003
0.066
0.041
-0.062
0.048
0.028
0.063
0.022
0.013
0.005
0.021
0.008
0.049
-0.026
0.008
0.055
0.044
0.012
0.049
-0.041
0.120
0.015
0.018
-0.099
-0.005
-0.051
0.100
0.073
-0.034
-0.031
0.009
-0.052
0.060
-0.022
0.036
0.068
0.027
-0.004
0.002
-0.077
0.070
0.073
0.077
-0.005
0.052
0.033
-0.010
0.085
-0.111
-0.035
0.064
0.035
0.011
0.039
0.093
0.019
-0.062
-0.024
0.021
-0.003
-0.114
0.144
0.047
0.017
0.054
-0.005
0.046
0.015
0.079
0.010
0.018
-0.022
-0.052
-0.022
0.063
0.130
0.017
-0.011
0.059
-0.096
0.012
0.105
-0.037
0.069
0.032
-0.007
0.001
0.072
-0.033
-0.015
0.125
0.068
0.062
-0.054
-0.096
0.068
0.092
0.020
0.077
-0.055
0.073
0.076
-0.043
-0.114
0.039
0.041
0.111
0.001
-0.011
-0.009
0.071
0.055
0.053
-0.024
-0.044
-0.005
0.008
0.057
-0.001
-0.006
-0.067
0.017
0.018
0.027
0.057
0.029
-0.077
0.022
0.046
-0.020
0.171
0.002
0.080
0.025
0.047
-0.018
-0.009
0.103
0.005
0.089
-0.023
0.004
0.056
0.015
0.002
0.002
0.038
0.005
0.027
-0.052
0.045
-0.013
-0.075
0.018
0.059
-0.035
-0.004
-0.032
0.090
0.067
0.010
-0.130
0.027
0.082
0.102
-0.039
0.046
0.025
0.008
-0.014
0.032
0.054
-0.023
-0.089
0.063
0.092
-0.007
-0.026
0.035
0.035
0.085
0.051
0.002
0.071
0.051
-0.082
-0.041
0.082
0.021
0.094
0.041
-0.034
-0.017
0.117
-0.045
0.000
0.012
0.016
0.026
0.046
-0.008
-0.042
0.036
0.029
0.074
0.070
0.041
-0.104
0.033
0.020
0.019
0.030
-0.008
0.080
0.064
-0.060
0.037
-0.008
0.072
0.035
-0.023
0.033
-0.040
0.099
0.051
-0.002
0.051
0.080
0.031
0.021
0.043
-0.121
-0.001
0.051
0.104
-0.068
-0.017
-0.017
-0.026
0.015
0.082
0.110
-0.006
0.031
0.081
0.000
0.147
-0.006
-0.119
-0.037
-0.036
0.193
0.003
0.016
-0.005
-0.039
0.025
0.046
-0.012
-0.010
0.004
0.096
-0.025
0.003
0.006
0.090
0.049
-0.035
0.059
-0.030
-0.001
0.092
0.028
-0.001
-0.001
0.112
-0.017
-0.040
-0.058
0.033
0.020
-0.031
-0.057
-0.007
0.001
0.081
-0.076
-0.002
0.056
0.053
-0.046
0.020
0.001
-0.091
0.104
-0.017
0.134
-0.023
0.042
-0.058
0.048
0.016
0.025
0.004
0.073
0.080
0.052
0.034
-0.077
-0.016
-0.057
0.101
-0.049
-0.008
0.020
0.025
-0.013
0.031
-0.082
0.029
-0.020
0.091
-0.034
-0.048
0.025
0.020
0.057
-0.059
0.094
0.073
-0.059
-0.040
-0.071
0.091
-0.005
0.067
0.017
-0.043
-0.100
0.098
0.016
0.012
0.049
-0.002
0.006
0.029
0.081
0.063
-0.046
-0.034
-0.041
0.014
0.067
0.070
0.055
0.018
0.027
-0.066
-0.027
0.009
0.058
0.086
-0.019
-0.078
0.125
0.079
0.020
-0.018
0.028
-0.089
0.046
-0.052
-0.039
0.050
0.033
0.108
0.025
0.047
0.044
-0.106
0.040
0.027
0.128
-0.003
-0.037
0.059
0.019
0.049
-0.073
0.057
-0.036
0.015
-0.060
0.085
0.208
0.066
-0.131
-0.052
0.038
-0.021
0.027
0.038
-0.034
0.084
0.038
-0.012
0.037
-0.001
0.001
-0.053
0.019
0.103
-0.011
0.021
0.058
-0.035
-0.098
0.042
0.109
0.016
-0.014
0.059
0.058
0.088
0.012
-0.064
0.033
0.028
-0.017
-0.019
0.105
-0.024
-0.047
0.023
-0.019
-0.104
0.066
0.036
0.105
0.025
0.113
0.050
-0.051
-0.062
0.094
0.083
-0.012
-0.046
0.055
0.056
0.012
0.009
0.095
0.014
-0.009
-0.041
0.024
-0.007
0.009
0.030
-0.034
0.089
-0.040
0.022
-0.000
-0.043
0.139
0.038
-0.046
0.009
0.021
0.003
0.057
0.073
-0.031
0.028
0.043
-0.061
0.019
0.043
0.048
0.028
0.003
0.047
0.079
-0.008
0.005
-0.008
0.011
0.007
0.101
0.121
-0.008
0.021
0.005
-0.047
0.048
0.056
0.072
-0.013
-0.064
0.015
0.082
0.041
-0.033
-0.027
0.064
0.038
0.038
-0.063
-0.084
0.087
0.003
0.115
0.005
-0.047
0.032
-0.022
0.017
-0.041
0.092
-0.016
-0.037
0.094
0.059
0.021
-0.089
-0.014
0.014
0.035
0.104
0.031
0.011
0.014
-0.052
0.084
0.013
0.053
0.008
-0.008
0.027
0.028
0.029
-0.001
-0.021
0.019
0.093
-0.037
0.037
0.087
-0.058
0.064
0.090
0.032
-0.001
0.109
0.013
-0.008
-0.028
0.057
-0.086
0.009
-0.037
0.079
-0.006
0.036
0.002
-0.011
0.029
-0.018
0.025
0.139
-0.117
0.067
-0.055
0.092
0.132
0.015
-0.031
0.029
0.011
0.054
-0.020
0.039
0.085
0.039
0.029
0.024
-0.014
0.035
0.048
0.087
0.041
-0.007
-0.100
0.074
-0.002
0.063
-0.016
-0.015
0.109
-0.054
0.042
0.019
-0.028
-0.061
0.066
0.068
0.052
0.113
-0.047
-0.070
-0.027
0.019
-0.030
0.053
0.075
0.016
-0.011
0.041
0.012
0.041
-0.008
-0.048
0.093
0.040
0.025
0.005
-0.019
-0.111
0.066
0.015
0.068
-0.002
0.048
-0.021
0.043
0.059
0.034
-0.002
0.107
-0.006
-0.085
0.009
0.001
0.043
0.018
0.111
0.016
-0.093
0.047
0.085
0.104
-0.063
0.013
0.102
-0.013
0.089
-0.034
-0.038
0.015
0.074
-0.054
0.026
0.039
0.024
-0.041
0.090
-0.004
-0.072
0.020
0.010
0.007
0.047
-0.043
-0.010
0.046
0.067
0.078
0.019
-0.051
0.065
0.003
0.016
0.065
0.023
0.048
0.028
0.108
0.003
0.003
-0.040
-0.083
0.007
0.064
0.039
-0.033
0.055
0.032
0.025
-0.017
0.027
-0.008
0.003
0.040
0.035
0.041
0.065
0.031
0.010
-0.038
-0.046
0.014
0.078
-0.040
0.068
0.025
0.071
-0.029
-0.006
-0.016
0.028
0.029
0.003
0.038
0.026
0.074
-0.023
-0.062
0.010
0.057
-0.008
0.032
-0.036
-0.034
-0.050
0.046
0.006
0.103
-0.036
-0.109
0.097
0.101
0.079
0.069
-0.022
-0.013
0.037
0.040
-0.002
-0.019
-0.006
0.047
-0.007
0.055
-0.059
0.093
0.035
-0.060
0.129
-0.051
0.074
0.027
-0.016
0.041
-0.043
0.029
-0.071
0.055
0.073
0.012
-0.015
0.098
0.073
0.004
0.052
-0.043
0.067
-0.023
0.026
0.059
0.011
0.087
0.087
0.015
-0.039
-0.030
0.114
-0.047
0.009
0.092
-0.017
0.047
0.077
-0.033
-0.029
0.021
0.009
0.028
-0.055
0.037
0.023
0.104
0.015
-0.008
-0.017
0.028
0.062
-0.001
0.056
0.046
0.061
0.154
-0.055
-0.006
0.000
0.036
0.051
0.015
-0.007
-0.017
0.076
-0.030
-0.003
-0.075
0.013
0.089
-0.020
0.066
-0.012
-0.021
0.083
0.026
-0.005
-0.038
-0.017
-0.020
0.115
-0.012
-0.001
0.093
-0.017
0.011
-0.017
0.048
-0.014
0.101
0.016
-0.016
0.023
0.010
0.052
0.002
-0.012
-0.017
0.102
-0.036
0.054
-0.027
-0.012
-0.057
0.011
0.113
0.046
-0.121
0.026
0.118
-0.008
0.000
-0.024
-0.051
0.058
0.021
0.036
0.007
-0.076
0.053
0.063
-0.027
-0.018
-0.016
0.040
0.056
-0.011
0.025
0.027
0.024
-0.018
-0.047
-0.074
0.106
0.025
0.002
-0.005
0.092
0.004
-0.005
0.036
-0.027
-0.025
0.048
0.088
-0.014
-0.087
0.091
0.014
-0.153
-0.058
0.007
0.149
0.001
0.054
0.030
0.054
-0.062
-0.030
0.108
0.051
0.069
0.100
0.002
0.008
0.057
-0.013
-0.025
0.054
-0.012
0.119
0.004
0.009
0.037
0.019
0.043
0.039
-0.006
-0.099
-0.067
0.079
0.046
0.123
-0.013
-0.046
0.028
-0.003
0.059
-0.050
0.026
-0.010
-0.003
-0.024
-0.013
0.010
0.051
-0.007
0.080
0.049
0.070
0.029
0.064
-0.034
-0.070
0.072
0.057
0.043
0.059
-0.018
0.003
-0.026
0.052
0.028
-0.008
-0.015
0.061
0.025
-0.030
0.018
0.002
0.072
0.073
0.073
-0.010
-0.094
0.054
0.017
-0.030
0.059
0.069
0.157
-0.010
-0.023
-0.081
0.068
-0.008
0.043
0.055
-0.014
0.012
-0.070
0.056
-0.002
0.021
0.052
0.023
-0.076
-0.092
0.055
0.004
0.076
0.033
-0.021
-0.043
-0.014
0.023
0.068
-0.015
0.038
-0.012
0.011
0.034
0.002
0.078
0.032
-0.073
0.002
0.065
0.060
0.044
-0.009
0.079
0.003
0.093
0.021
0.015
0.052
-0.022
0.018
0.008
0.007
-0.002
0.044
-0.013
-0.042
0.003
-0.007
0.077
0.022
0.010
0.001
-0.045
-0.074
0.084
0.042
0.020
0.026
-0.023
-0.008
0.138
-0.035
0.016
-0.055
0.021
0.084
0.092
0.028
-0.024
-0.048
0.032
0.011
-0.010
0.002
0.006
0.029
0.003
0.116
-0.002
0.035
-0.004
0.055
0.011
-0.033
-0.087
0.093
-0.023
0.027
-0.014
0.024
-0.010
0.054
-0.013
-0.001
-0.037
0.017
-0.010
0.006
0.086
-0.022
0.065
0.006
-0.013
0.010
0.022
-0.005
0.041
0.043
-0.010
0.062
0.043
0.028
0.008
0.023
-0.075
-0.028
0.118
0.098
0.022
-0.023
-0.041
0.038
0.050
-0.012
0.007
-0.029
0.068
-0.026
-0.027
0.012
0.038
0.140
0.067
-0.030
0.001
0.052
0.055
0.057
0.012
-0.014
-0.022
0.048
-0.013
-0.000
0.068
-0.041
0.003
0.042
-0.005
0.045
-0.086
0.043
0.130
0.048
-0.004
0.092
0.060
0.036
0.012
0.150
-0.030
-0.056
-0.017
0.029
0.024
-0.041
0.067
-0.081
0.035
0.107
-0.027
0.100
-0.022
0.046
0.073
-0.075
0.023
0.104
-0.012
0.150
0.051
-0.022
0.021
0.007
-0.058
-0.090
0.018
0.116
0.029
-0.026
0.011
0.020
-0.028
0.018
0.051
-0.006
-0.015
-0.017
-0.036
-0.005
0.073
0.093
-0.094
-0.024
0.080
0.007
-0.036
0.084
-0.013
0.159
0.073
-0.021
0.008
-0.054
-0.065
0.074
0.024
0.001
0.024
0.013
0.005
-0.087
0.052
0.002
-0.015
0.108
-0.006
0.051
0.013
0.017
0.031
-0.024
0.016
0.020
-0.007
-0.025
0.065
-0.037
-0.055
0.060
0.028
-0.004
-0.000
0.042
-0.015
0.042
-0.010
0.047
0.056
-0.058
0.057
0.075
0.071
-0.111
0.062
-0.013
0.023
-0.003
0.070
0.062
0.045
0.052
0.041
0.013
-0.070
0.131
-0.028
-0.013
0.070
0.114
-0.005
-0.063
0.018
-0.009
-0.020
0.113
0.066
0.151
0.054
0.046
-0.114
0.041
0.064
-0.001
0.009
0.068
-0.007
0.057
-0.031
0.096
-0.024
0.013
-0.011
0.016
0.094
0.033
0.016
0.016
0.044
-0.064
0.021
0.126
0.021
-0.033
0.032
0.075
-0.042
0.018
0.174
0.068
-0.084
0.072
-0.012
0.028
0.087
0.004
0.035
0.016
0.034
0.034
-0.010
0.000
0.024
0.019
-0.005
0.077
0.037
0.110
-0.010
-0.069
0.016
0.038
0.094
0.080
0.049
0.061
-0.005
-0.126
-0.002
-0.014
0.050
-0.028
0.052
0.033
0.036
0.034
0.026
-0.001
0.043
-0.050
0.016
0.037
0.080
-0.027
0.103
0.081
-0.066
0.027
-0.010
0.008
0.057
-0.032
0.012
0.047
0.041
-0.025
-0.031
-0.015
-0.004
-0.019
0.124
0.099
0.015
-0.094
0.044
0.069
-0.023
0.110
-0.037
0.068
0.030
0.009
-0.027
-0.057
-0.026
0.029
-0.008
0.119
0.045
-0.074
-0.024
0.115
0.009
-0.015
0.061
0.037
-0.038
0.054
-0.003
-0.003
-0.074
-0.050
0.021
0.067
-0.013
0.033
0.029
-0.057
0.074
0.091
-0.039
-0.131
0.133
0.093
-0.054
0.122
-0.022
0.067
-0.034
-0.016
0.024
-0.009
0.028
0.012
0.018
0.047
0.007
0.002
0.007
0.066
0.041
0.037
0.059
-0.020
-0.053
0.007
0.019
0.056
0.052
0.060
-0.064
-0.086
0.112
0.059
0.033
-0.060
0.005
0.020
0.091
0.006
-0.016
-0.033
0.049
-0.009
0.033
0.023
0.057
0.038
0.084
0.000
0.018
-0.012
0.126
0.057
-0.059
-0.059
0.046
-0.028
0.029
0.036
0.033
0.071
0.053
-0.034
-0.030
0.011
0.035
0.033
0.060
0.022
0.055
0.041
-0.029
-0.003
-0.003
-0.012
0.072
0.140
-0.002
-0.007
-0.058
0.054
0.019
0.021
0.036
0.041
-0.028
0.057
0.062
0.013
-0.003
-0.009
-0.028
0.074
0.016
0.033
-0.058
-0.025
0.057
0.027
-0.112
0.007
0.049
0.083
0.050
-0.002
0.013
-0.087
0.003
0.122
0.060
0.013
-0.042
0.010
0.025
-0.065
0.021
0.064
0.052
-0.020
0.088
0.041
-0.069
-0.045
-0.001
0.094
0.032
0.048
-0.019
0.045
0.042
0.004
-0.038
0.009
0.021
-0.035
0.077
0.099
0.020
-0.047
-0.071
0.007
0.070
-0.068
-0.038
-0.015
0.111
0.068
-0.037
0.011
0.049
0.000
-0.025
-0.026
0.040
0.120
-0.021
0.047
0.051
0.069
-0.050
-0.028
0.128
-0.016
0.027
-0.009
0.045
0.015
0.011
0.041
-0.067
0.091
0.120
-0.011
-0.054
-0.004
0.060
0.087
0.003
-0.048
-0.020
-0.061
0.097
0.072
-0.025
-0.097
0.037
0.078
-0.062
0.063
0.025
0.021
0.051
0.041
0.010
0.128
0.004
0.005
0.058
-0.027
-0.006
-0.010
0.023
0.028
0.078
0.039
-0.033
-0.090
-0.064
0.083
0.154
0.079
0.025
-0.007
-0.004
0.017
0.016
0.033
-0.040
0.053
0.026
0.010
0.089
-0.062
0.022
0.046
-0.089
0.058
0.006
0.033
-0.003
0.035
0.056
-0.034
-0.025
-0.010
-0.014
0.015
0.027
0.092
0.003
0.001
-0.024
-0.054
0.060
-0.010
0.109
0.090
-0.000
0.065
0.067
-0.062
-0.001
0.116
-0.000
-0.067
0.088
-0.053
-0.039
-0.001
0.027
-0.005
0.097
0.049
0.070
-0.068
-0.010
0.073
-0.017
0.039
-0.033
0.021
0.096
0.033
-0.047
0.002
0.026
0.033
0.013
0.152
-0.040
-0.049
0.025
-0.029
0.022
0.002
0.036
-0.051
0.127
-0.002
-0.089
0.015
0.052
0.096
0.006
0.093
-0.034
-0.119
0.025
0.038
0.071
0.035
0.031
0.007
-0.003
-0.046
0.073
0.019
-0.008
0.125
-0.032
-0.049
0.048
0.060
0.058
0.007
-0.060
0.068
0.108
0.102
-0.041
-0.063
-0.043
-0.029
0.002
0.039
0.021
0.109
0.027
0.032
-0.058
-0.031
0.036
0.046
0.081
0.055
-0.046
0.024
0.064
-0.001
-0.062
0.059
0.053
0.034
-0.023
0.059
-0.012
0.057
-0.079
0.021
0.051
0.119
-0.026
-0.050
-0.002
0.100
0.022
-0.062
-0.057
0.049
0.061
0.056
-0.050
0.056
0.062
-0.008
0.038
0.088
-0.088
-0.031
0.060
-0.012
-0.026
0.042
0.036
0.088
0.045
0.049
-0.019
-0.006
0.022
0.054
-0.030
0.059
0.026
0.013
0.038
0.043
0.105
0.068
-0.094
0.037
0.042
0.018
0.026
-0.041
-0.005
-0.073
0.024
0.062
0.013
-0.021
0.005
0.121
-0.048
-0.046
-0.053
0.015
0.046
0.080
0.053
0.131
-0.108
0.037
0.048
-0.140
0.039
0.049
-0.029
0.144
0.062
-0.015
0.071
0.031
-0.034
-0.031
0.023
0.127
0.007
-0.014
0.031
0.023
-0.049
0.001
-0.060
0.022
0.036
0.017
0.061
0.094
0.001
-0.001
0.045
0.059
-0.009
0.027
-0.059
0.029
0.113
-0.007
-0.087
0.003
-0.033
0.007
0.061
0.017
-0.003
-0.034
0.103
-0.032
-0.101
-0.041
0.083
0.016
0.084
-0.089
-0.010
0.014
0.095
0.105
0.042
0.052
0.003
0.028
0.004
0.016
-0.036
0.051
0.006
-0.028
0.087
0.019
0.038
0.058
-0.034
0.024
0.015
-0.039
-0.025
0.026
0.019
0.009
-0.024
-0.021
0.097
-0.007
-0.044
0.042
0.037
-0.038
0.005
0.107
0.045
0.015
-0.024
0.065
0.066
0.028
0.019
0.029
0.046
-0.052
0.006
-0.049
0.026
-0.003
-0.017
0.032
0.028
0.098
0.019
-0.055
0.054
0.021
-0.005
0.018
-0.001
0.024
-0.008
0.015
0.011
0.076
-0.041
0.082
0.059
-0.036
-0.012
0.062
0.032
0.003
0.006
0.115
-0.009
-0.009
0.055
0.024
0.015
0.065
0.126
0.007
-0.013
0.019
-0.010
0.069
0.082
-0.017
0.088
0.013
-0.033
0.084
-0.022
-0.018
0.101
-0.041
-0.031
0.010
-0.016
0.100
-0.011
-0.059
0.066
0.050
0.061
-0.063
0.107
-0.018
-0.070
0.027
0.100
0.082
-0.002
-0.132
0.038
-0.034
0.128
0.034
0.013
-0.031
0.061
-0.002
0.056
-0.047
0.085
-0.030
0.079
0.053
0.012
0.003
-0.052
0.028
0.043
0.045
0.101
-0.149
0.010
0.034
-0.007
0.037
-0.007
0.065
-0.034
-0.031
0.036
-0.032
0.019
0.083
-0.016
0.108
-0.029
-0.080
0.037
0.055
-0.044
-0.029
-0.046
0.152
0.092
0.029
-0.031
-0.060
-0.067
-0.012
0.124
0.034
0.035
0.073
-0.025
-0.013
-0.017
0.013
-0.011
0.072
0.033
-0.045
-0.030
-0.098
0.093
-0.007
0.065
0.018
-0.055
0.009
0.016
-0.005
0.014
0.028
0.045
-0.033
0.084
-0.062
-0.042
0.078
0.063
0.040
0.059
-0.051
0.073
-0.027
-0.003
0.047
0.093
0.011
0.100
-0.023
-0.053
0.021
0.058
0.020
-0.046
0.068
0.079
0.022
0.068
-0.017
-0.004
0.139
-0.015
0.015
-0.067
0.044
-0.001
0.044
0.038
0.005
-0.015
-0.040
0.086
0.126
0.039
0.063
0.016
0.034
-0.113
0.013
0.117
0.019
-0.010
-0.034
-0.011
0.067
0.016
-0.004
0.085
-0.012
0.065
-0.002
-0.004
0.008
0.021
0.078
0.074
-0.053
0.084
0.001
0.047
-0.022
0.050
-0.005
-0.061
0.089
-0.025
0.039
0.039
-0.013
-0.005
0.023
0.034
-0.027
0.019
-0.042
-0.028
0.057
0.031
0.035
0.108
0.040
-0.039
0.006
0.086
-0.037
-0.002
0.054
0.004
-0.001
0.024
0.073
0.014
0.004
-0.012
0.119
0.115
0.012
0.121
-0.086
-0.042
-0.126
0.089
0.064
0.062
-0.026
-0.013
0.026
-0.025
-0.007
0.012
-0.002
-0.023
0.104
0.031
0.096
0.040
-0.018
-0.027
-0.028
-0.030
0.026
0.106
-0.027
0.003
0.020
0.096
-0.027
-0.017
0.148
-0.080
0.070
0.079
-0.023
0.031
-0.020
0.087
-0.070
0.033
0.147
-0.078
-0.008
0.087
0.019
0.022
0.069
0.015
-0.061
0.087
0.028
0.082
0.048
0.022
0.049
-0.055
0.000
-0.050
0.086
0.044
0.002
0.064
-0.067
-0.003
0.099
-0.045
-0.023
-0.028
0.040
-0.047
-0.032
0.070
-0.024
-0.005
-0.003
0.059
-0.050
0.062
0.071
-0.005
-0.024
0.057
0.048
0.021
-0.019
-0.038
0.062
0.051
-0.017
-0.015
0.053
-0.000
-0.030
0.013
0.091
0.073
-0.052
-0.065
0.032
-0.025
-0.047
0.020
0.011
0.027
0.034
-0.015
-0.004
-0.020
0.130
0.008
-0.068
-0.007
-0.016
-0.016
-0.010
0.054
0.031
-0.019
0.029
0.072
0.037
0.075
0.007
-0.057
0.020
0.050
0.037
0.079
0.013
-0.037
0.029
0.079
-0.002
0.013
-0.017
0.075
-0.095
0.086
-0.001
0.010
0.033
0.090
0.035
0.009
-0.051
-0.073
0.045
0.078
-0.014
0.093
0.117
0.082
0.045
-0.078
-0.046
0.015
0.106
0.070
-0.021
0.012
-0.024
0.048
0.045
0.118
-0.005
-0.084
0.048
0.014
0.004
0.085
0.076
0.021
-0.044
0.029
-0.018
0.074
0.053
0.074
0.039
0.012
0.024
-0.050
0.029
0.095
0.031
0.024
0.074
0.021
-0.001
-0.050
0.054
0.008
0.031
0.007
-0.042
0.080
-0.050
0.074
0.050
0.104
0.036
-0.035
-0.098
0.045
0.039
-0.020
0.073
0.026
-0.003
0.061
0.014
-0.007
0.015
0.008
-0.076
-0.031
0.097
0.105
0.041
0.091
0.030
0.029
-0.072
0.021
-0.067
0.082
0.076
-0.006
0.053
0.030
-0.046
0.035
-0.006
-0.033
0.043
0.055
-0.024
0.033
-0.038
-0.040
0.013
0.161
0.074
-0.044
-0.129
0.100
0.098
0.027
-0.039
0.098
-0.068
-0.003
0.085
0.062
-0.039
-0.037
0.019
0.108
0.040
-0.042
0.061
-0.028
0.009
-0.075
0.081
0.091
-0.103
-0.025
0.077
0.023
-0.002
0.097
-0.028
0.034
0.052
0.002
0.067
0.019
0.010
-0.037
-0.045
0.004
0.073
0.040
0.047
-0.094
0.086
0.007
-0.053
0.045
0.080
0.086
0.043
-0.012
-0.057
-0.025
-0.009
0.079
0.105
-0.035
-0.010
0.032
0.098
0.017
-0.018
0.050
-0.031
0.028
-0.002
0.000
0.046
0.030
-0.014
-0.077
0.011
0.063
-0.038
0.023
0.037
-0.075
-0.067
0.143
0.113
-0.009
-0.023
-0.023
-0.056
0.123
-0.040
-0.011
0.071
0.122
-0.012
0.057
-0.027
-0.029
0.065
0.025
0.000
0.041
0.072
-0.003
-0.031
-0.010
-0.013
0.087
0.132
-0.065
-0.026
0.047
-0.030
0.027
-0.003
0.027
0.050
-0.075
0.045
-0.005
0.061
0.037
0.118
0.050
-0.014
-0.009
0.018
-0.026
0.035
-0.083
0.018
0.016
0.091
0.020
-0.066
-0.067
0.055
0.029
0.049
0.059
0.056
-0.023
0.022
0.055
0.041
-0.034
-0.045
0.078
0.064
0.031
0.026
0.076
0.053
0.003
0.081
-0.109
0.029
0.010
-0.013
0.033
0.050
0.026
0.055
-0.027
0.028
-0.052
0.004
-0.005
0.028
0.056
0.003
0.055
-0.082
0.095
-0.009
0.074
-0.003
0.068
-0.007
0.012
-0.046
-0.042
0.098
0.006
0.034
0.036
0.065
-0.051
0.078
-0.040
0.006
0.036
0.034
0.089
0.031
0.043
0.039
0.002
-0.052
0.041
-0.042
0.077
0.026
-0.005
-0.001
-0.010
-0.010
0.016
-0.004
0.066
0.030
0.016
0.037
0.079
-0.066
0.066
0.064
-0.092
0.042
0.009
0.102
-0.032
-0.004
0.037
0.018
0.011
-0.022
0.007
-0.007
0.012
0.086
0.034
-0.025
-0.019
0.042
0.007
-0.013
0.036
-0.031
-0.058
0.062
-0.077
0.100
0.124
0.072
-0.030
-0.114
0.037
0.112
-0.009
0.014
0.015
-0.001
-0.120
0.094
0.071
-0.066
0.044
-0.000
0.055
0.083
0.033
-0.047
-0.001
-0.014
-0.022
0.114
0.042
-0.070
-0.004
-0.028
0.019
0.114
0.002
0.043
0.034
0.027
0.048
-0.073
-0.024
0.074
-0.015
0.001
0.081
-0.019
0.071
0.012
0.010
-0.044
0.142
-0.037
0.120
0.074
-0.100
-0.008
0.074
0.043
-0.078
0.023
0.023
0.015
0.042
-0.019
0.040
0.069
-0.017
-0.029
0.071
0.012
-0.021
0.108
-0.058
-0.013
-0.036
0.057
0.088
0.098
-0.048
-0.035
0.028
-0.025
-0.024
0.119
0.025
0.046
0.128
-0.061
0.059
-0.028
0.110
-0.052
-0.104
0.075
0.131
0.049
0.037
0.022
-0.008
0.077
0.030
0.096
0.021
-0.101
-0.031
0.058
-0.018
-0.010
-0.032
0.081
-0.028
-0.112
-0.035
0.047
0.104
0.011
0.013
0.042
0.013
0.045
-0.013
-0.012
0.071
0.048
-0.079
-0.184
0.131
0.085
0.139
-0.049
-0.082
0.031
0.042
-0.004
0.068
-0.026
0.043
0.024
-0.092
0.000
0.007
0.083
0.106
-0.009
0.020
0.014
0.004
0.004
0.040
0.002
0.062
0.026
0.047
-0.015
-0.023
0.107
0.110
-0.050
0.077
0.000
0.081
-0.113
-0.052
0.025
0.066
0.020
0.091
-0.033
-0.023
-0.057
0.019
-0.040
0.078
0.005
-0.009
0.077
0.036
0.027
0.028
-0.073
-0.044
0.072
0.109
0.020
0.018
0.055
0.060
-0.038
0.040
-0.032
0.028
0.078
0.080
-0.082
0.085
0.017
0.044
-0.048
-0.067
0.037
0.037
0.019
-0.066
0.078
0.021
0.033
0.028
-0.048
-0.068
0.081
-0.001
0.044
-0.061
0.026
0.092
0.059
0.056
0.083
0.037
-0.070
-0.093
0.029
0.048
0.068
-0.009
0.003
0.036
0.081
0.018
0.008
-0.020
0.012
0.057
0.064
0.002
0.066
0.016
-0.030
-0.065
0.117
0.007
0.002
-0.056
0.045
0.038
-0.007
0.083
-0.013
-0.091
0.044
0.038
0.130
0.006
0.015
0.050
-0.035
0.125
-0.007
-0.037
0.118
0.055
0.027
-0.027
0.037
-0.028
0.030
0.018
0.096
0.045
-0.028
0.015
0.086
0.065
0.028
0.101
0.019
0.056
0.053
0.063
-0.045
0.019
-0.090
0.106
0.073
-0.030
0.072
-0.004
0.003
0.026
0.002
-0.034
0.107
-0.017
0.063
-0.068
-0.062
0.090
0.093
0.002
0.014
0.005
0.125
-0.074
0.041
0.071
-0.065
-0.073
0.086
0.041
0.004
0.020
-0.020
0.046
-0.014
0.048
0.023
0.069
-0.060
0.044
-0.037
0.037
0.077
0.017
0.028
-0.088
0.072
-0.009
-0.061
0.105
0.131
-0.004
-0.122
-0.027
0.054
-0.009
0.025
0.071
-0.023
0.003
0.000
0.038
0.019
0.031
0.025
-0.090
0.006
0.091
0.066
-0.008
0.034
0.038
0.039
-0.072
0.042
0.014
0.046
-0.039
0.038
0.069
-0.029
-0.020
-0.071
0.104
0.088
0.048
0.124
0.023
0.021
-0.041
0.006
0.047
-0.033
0.013
0.020
0.008
0.082
0.033
-0.031
0.030
0.046
-0.041
0.034
0.039
-0.004
-0.017
0.114
0.010
0.048
0.044
0.098
0.039
0.046
0.007
-0.084
-0.027
0.094
0.045
0.081
-0.047
0.013
0.039
0.073
0.002
0.044
-0.084
0.068
0.037
0.040
0.068
0.050
-0.025
0.018
0.042
0.062
-0.030
0.102
0.037
0.009
0.075
-0.061
0.007
-0.003
-0.006
0.080
-0.104
-0.011
0.030
0.064
-0.014
-0.049
0.057
0.073
-0.024
-0.031
0.042
0.105
-0.099
-0.026
-0.077
0.132
0.025
-0.003
-0.015
-0.024
0.150
-0.066
-0.007
0.063
0.052
-0.052
0.104
0.032
-0.002
-0.061
0.074
-0.027
-0.000
0.024
0.039
0.051
0.045
0.027
-0.004
0.050
0.056
-0.083
0.007
-0.049
0.106
-0.006
0.056
-0.054
-0.038
-0.010
0.011
-0.025
-0.014
0.062
0.018
-0.055
0.103
-0.014
-0.012
-0.020
0.093
-0.017
0.035
0.054
0.032
-0.072
-0.033
0.135
-0.013
0.032
-0.015
0.026
-0.031
0.060
-0.025
0.031
0.041
0.045
0.039
0.070
-0.044
-0.014
0.010
0.063
-0.073
0.059
0.030
0.026
0.013
0.012
-0.031
-0.024
0.100
0.115
-0.034
0.034
-0.066
0.026
0.105
0.018
0.010
-0.048
0.095
-0.001
-0.056
0.053
-0.061
0.153
0.009
-0.002
-0.005
-0.033
0.024
0.093
0.033
0.005
-0.066
0.108
-0.030
0.016
0.021
0.041
0.060
0.004
0.041
0.010
0.053
0.121
-0.051
-0.028
0.039
-0.094
0.043
0.065
-0.035
0.093
0.003
-0.014
-0.014
0.131
-0.045
-0.012
0.083
-0.018
0.033
0.013
0.085
0.092
0.019
0.017
-0.027
-0.044
0.083
0.005
-0.019
0.154
0.013
-0.030
-0.025
-0.039
-0.058
0.084
-0.052
0.002
0.035
-0.045
0.072
0.055
0.044
0.023
0.021
0.018
0.062
-0.030
0.136
0.064
0.077
-0.056
0.002
-0.078
0.022
0.031
0.054
-0.009
0.094
-0.009
0.006
-0.046
0.037
-0.064
0.078
0.028
0.062
0.035
0.021
-0.015
0.023
0.011
0.068
0.083
-0.052
0.028
-0.044
-0.038
0.001
0.001
0.086
0.017
0.110
0.059
-0.058
-0.051
0.061
0.007
-0.013
0.055
-0.038
0.071
0.055
0.025
-0.027
0.088
0.001
-0.021
-0.074
0.074
0.076
0.054
0.013
0.116
0.047
0.046
-0.058
-0.035
0.131
0.068
0.026
0.019
-0.073
-0.042
0.023
0.050
-0.024
0.051
0.118
-0.032
-0.011
0.082
0.006
-0.019
0.090
-0.010
-0.008
0.068
0.069
0.075
-0.032
0.027
0.003
-0.061
0.013
-0.003
0.064
0.038
-0.016
0.007
0.057
0.039
0.066
-0.041
-0.063
0.056
0.101
0.006
0.084
-0.048
-0.052
0.051
0.092
-0.020
-0.010
0.101
0.056
0.045
-0.061
0.030
0.032
-0.052
-0.028
0.076
0.058
0.049
-0.019
0.049
0.073
0.022
-0.033
-0.088
0.002
0.037
0.049
0.039
0.049
0.007
0.037
-0.023
-0.116
0.034
0.094
-0.025
0.044
0.041
-0.028
-0.003
0.009
0.044
-0.020
-0.065
0.010
0.104
0.010
0.084
-0.039
-0.067
0.030
-0.065
-0.007
0.050
0.019
0.087
0.045
-0.056
0.035
0.074
0.095
0.028
0.044
0.005
-0.054
-0.014
0.047
0.001
0.060
0.041
0.081
-0.110
-0.017
0.060
0.075
-0.031
0.004
0.040
-0.029
0.079
0.066
0.056
0.000
0.032
-0.032
0.012
-0.058
-0.015
-0.008
0.085
0.079
-0.059
-0.036
0.067
0.091
0.021
-0.007
-0.035
-0.037
0.048
0.055
0.005
0.025
0.025
0.031
-0.055
0.059
0.038
0.013
0.046
0.028
-0.035
0.067
-0.001
0.070
0.015
-0.072
0.037
0.022
0.014
0.173
0.058
-0.072
-0.111
0.050
0.025
-0.008
0.062
-0.016
-0.001
-0.009
-0.040
-0.003
0.067
0.025
-0.005
-0.018
-0.019
0.092
0.059
-0.070
-0.014
-0.024
0.094
0.003
0.054
0.052
-0.030
0.012
0.037
0.092
-0.059
0.045
0.050
0.004
0.033
-0.059
-0.049
0.027
-0.001
0.118
0.005
-0.046
-0.020
0.032
0.117
0.003
-0.063
0.031
-0.031
0.055
-0.017
0.063
0.000
-0.013
0.043
-0.091
0.058
-0.079
0.087
0.090
0.115
-0.065
-0.068
0.009
-0.014
0.083
0.124
-0.011
-0.079
0.007
0.050
0.076
-0.037
0.066
0.086
0.023
0.049
-0.001
0.029
-0.062
0.033
-0.029
0.049
0.014
0.061
0.036
-0.028
-0.017
0.069
-0.028
0.055
0.047
0.032
0.029
0.064
-0.032
0.019
0.107
-0.027
-0.021
0.047
0.062
-0.054
-0.015
-0.007
-0.037
0.075
-0.037
0.045
-0.065
0.092
0.058
0.078
0.086
-0.097
-0.030
0.005
0.053
0.010
-0.051
0.044
0.033
0.123
-0.016
-0.015
0.038
-0.025
-0.007
0.070
0.041
0.050
0.055
0.054
-0.092
0.018
0.107
-0.023
0.005
-0.125
0.092
0.062
-0.087
0.096
0.042
0.080
-0.018
0.013
0.068
-0.068
-0.019
-0.071
-0.023
0.124
0.041
0.095
0.084
0.046
-0.001
-0.070
-0.061
0.024
0.009
-0.034
0.028
0.042
0.014
0.015
0.020
0.076
-0.000
0.056
0.065
0.019
-0.032
-0.020
0.097
0.056
0.016
0.112
-0.088
0.001
-0.027
-0.062
0.060
0.027
0.108
0.047
0.035
-0.107
0.126
-0.004
0.038
-0.066
-0.020
0.038
0.023
0.007
0.004
0.044
0.037
0.002
-0.012
0.018
-0.015
0.045
-0.029
0.071
-0.026
0.065
-0.046
0.006
0.081
-0.010
0.058
0.039
0.038
-0.129
0.143
-0.037
0.091
0.163
-0.090
-0.043
0.001
0.020
0.127
0.004
0.011
0.072
0.058
-0.015
-0.026
0.017
-0.043
0.065
0.014
0.001
0.015
0.051
0.043
-0.027
-0.052
0.090
0.022
0.006
-0.000
0.014
-0.037
-0.026
0.059
-0.010
0.048
0.048
-0.008
0.058
0.025
0.002
0.119
0.042
-0.016
-0.059
-0.042
0.024
-0.019
0.190
0.014
-0.060
0.118
-0.048
-0.063
0.088
0.002
0.018
0.044
0.145
-0.040
0.028
-0.058
0.021
0.004
0.066
0.035
0.036
0.018
0.022
0.062
-0.011
-0.061
0.019
0.062
0.059
0.147
0.033
0.101
-0.022
-0.010
-0.026
0.090
0.040
0.073
0.069
-0.006
-0.008
-0.006
0.100
-0.032
-0.017
0.043
0.048
0.011
-0.017
-0.061
-0.050
-0.004
-0.099
0.099
0.074
-0.011
0.010
-0.061
0.154
0.060
-0.053
0.034
0.005
0.055
0.120
0.062
-0.049
-0.014
0.059
0.036
0.100
-0.005
0.098
0.077
0.057
-0.009
-0.020
0.063
0.129
-0.093
-0.051
0.071
0.103
-0.045
0.051
0.053
-0.032
-0.048
0.059
0.050
-0.056
0.081
-0.033
0.011
0.051
-0.038
0.033
0.003
0.025
0.002
-0.031
0.060
0.096
-0.041
0.045
-0.002
-0.032
-0.014
0.058
-0.028
-0.012
0.053
0.042
0.049
0.012
0.007
0.033
-0.015
0.026
0.004
0.054
0.035
-0.029
0.063
-0.005
-0.075
-0.012
0.030
0.087
0.046
0.100
0.011
0.032
-0.006
0.052
0.151
0.003
-0.042
-0.007
-0.029
0.077
0.001
0.029
-0.008
-0.029
-0.041
0.140
0.024
0.015
0.084
-0.050
-0.109
0.094
0.112
0.077
-0.117
0.015
0.042
0.000
-0.008
-0.068
0.064
0.051
0.075
-0.061
0.057
0.098
0.037
0.017
0.007
-0.054
0.096
0.087
-0.030
0.035
0.054
-0.024
0.063
0.002
-0.042
0.082
0.004
-0.081
0.025
-0.037
-0.014
0.153
-0.005
0.061
0.033
0.011
0.071
0.080
0.051
-0.013
0.020
0.019
0.014
-0.046
0.053
0.055
0.071
-0.023
-0.055
0.025
0.045
0.001
0.040
0.030
0.078
0.029
0.024
0.150
-0.068
-0.036
-0.012
0.048
0.074
-0.047
0.016
0.023
-0.005
-0.047
-0.011
-0.011
0.028
0.033
0.056
0.018
-0.029
0.040
0.034
0.049
-0.058
-0.041
0.058
0.106
0.035
-0.022
-0.078
-0.041
0.114
0.003
0.096
-0.082
0.006
-0.022
0.109
0.007
0.077
-0.046
0.009
-0.065
0.130
0.096
-0.040
0.057
0.089
-0.040
-0.028
0.028
0.070
0.031
0.028
-0.014
-0.042
0.094
-0.022
0.015
0.052
-0.037
0.019
0.029
0.129
-0.048
0.013
0.004
-0.062
0.057
-0.001
0.057
0.027
0.099
-0.063
-0.008
0.032
0.030
0.009
0.078
-0.036
-0.081
0.035
0.017
0.058
-0.028
0.015
0.083
0.078
0.026
-0.040
-0.085
0.118
0.036
0.041
0.000
-0.039
-0.002
0.090
0.022
0.058
-0.104
0.075
0.025
0.207
-0.081
-0.037
0.005
0.044
0.027
-0.026
0.130
0.072
-0.015
-0.058
0.070
0.040
-0.017
-0.026
-0.026
0.066
0.024
0.041
0.049
-0.060
0.091
-0.022
-0.037
0.046
0.045
0.044
0.047
0.020
0.046
-0.028
-0.039
-0.131
0.007
0.054
0.008
-0.072
0.042
0.079
-0.011
0.067
0.009
-0.015
0.000
0.032
0.045
0.025
0.045
0.037
0.014
0.115
-0.009
0.072
0.016
-0.056
-0.013
0.052
0.037
-0.034
0.009
0.006
0.036
0.003
-0.004
0.068
0.014
-0.053
0.033
0.148
0.050
-0.100
0.041
-0.009
0.094
0.049
-0.020
-0.012
0.107
0.009
0.002
-0.040
0.086
0.070
-0.058
0.019
0.106
-0.013
0.054
0.055
0.005
0.012
0.008
-0.018
0.051
0.000
-0.006
0.063
-0.017
-0.036
-0.027
0.067
0.052
0.017
0.113
-0.085
0.070
0.003
0.057
-0.026
0.012
0.027
0.001
-0.012
0.094
-0.008
0.074
0.033
0.027
0.008
0.028
0.009
0.071
-0.027
0.034
-0.016
0.075
-0.023
-0.009
0.018
-0.037
0.054
0.075
0.037
-0.082
0.074
0.021
0.016
0.015
-0.037
0.051
0.035
0.009
-0.049
0.066
0.001
0.042
-0.083
-0.012
-0.074
0.021
0.055
0.014
0.001
0.126
0.013
-0.017
-0.127
0.045
0.037
0.097
0.004
-0.008
0.026
-0.009
0.028
-0.007
-0.002
0.092
0.119
-0.021
0.048
0.016
-0.056
-0.002
0.106
0.029
-0.042
-0.007
0.054
0.041
0.096
0.011
-0.026
-0.084
-0.072
0.120
-0.031
-0.013
0.099
0.108
-0.043
-0.065
0.026
0.092
0.016
-0.079
-0.033
0.049
-0.011
0.032
0.066
0.006
0.056
0.040
-0.047
-0.009
0.065
-0.101
0.086
-0.020
0.003
0.076
0.120
-0.006
-0.035
-0.027
0.050
0.016
0.015
0.065
0.119
-0.049
0.028
0.050
-0.013
0.003
0.045
0.044
-0.067
0.084
-0.020
0.033
-0.056
0.116
0.041
0.016
0.050
-0.086
0.064
0.013
0.044
-0.046
-0.000
-0.049
0.103
-0.046
-0.018
0.039
-0.010
0.062
-0.012
-0.051
0.008
0.018
0.033
0.015
0.059
-0.050
0.064
0.056
-0.015
-0.012
-0.045
0.101
0.057
0.009
0.023
0.027
-0.056
-0.039
-0.013
0.088
0.011
0.048
-0.065
0.027
0.030
0.127
-0.002
0.048
0.063
-0.021
0.074
-0.031
-0.021
0.017
-0.007
0.028
0.045
0.040
0.038
-0.058
-0.033
-0.040
-0.013
0.064
-0.021
0.063
0.069
-0.070
-0.032
0.037
0.042
0.013
-0.039
0.013
0.041
-0.005
-0.034
-0.006
0.047
0.026
0.085
-0.022
0.055
-0.042
0.019
-0.029
0.016
0.052
-0.036
0.025
0.022
0.063
-0.005
0.035
0.038
-0.033
-0.069
0.056
0.023
0.110
-0.040
-0.004
0.029
-0.018
0.083
-0.061
0.016
0.048
0.004
-0.085
0.010
-0.000
0.043
0.041
-0.025
0.009
0.024
0.002
-0.020
-0.056
0.075
0.011
0.053
0.051
0.075
-0.084
-0.026
-0.016
0.112
0.043
0.008
0.020
-0.078
0.043
0.033
0.029
0.042
0.084
0.026
0.012
0.046
0.009
-0.041
-0.033
0.050
0.142
0.034
0.082
0.015
-0.031
-0.073
0.044
-0.022
0.017
0.085
-0.017
0.059
0.045
-0.019
-0.034
0.052
-0.066
0.054
-0.027
0.075
0.015
-0.015
0.019
0.032
-0.020
-0.017
0.048
0.101
0.089
-0.021
0.011
0.007
0.052
-0.001
0.074
0.002
0.015
0.074
0.116
-0.056
0.032
-0.014
0.058
0.070
0.080
-0.000
-0.044
0.034
0.003
0.054
0.026
0.030
0.109
-0.042
-0.017
0.002
0.036
-0.089
0.095
-0.011
-0.020
0.039
0.090
-0.020
0.021
-0.060
0.074
0.072
-0.042
0.010
-0.057
0.127
0.065
0.048
0.046
-0.002
0.054
-0.083
0.078
0.095
-0.043
-0.035
0.006
0.047
-0.043
0.083
0.097
0.038
0.016
-0.005
0.048
0.018
-0.016
0.101
0.014
-0.025
0.005
0.120
0.105
-0.073
-0.113
-0.020
0.166
-0.065
-0.033
0.041
0.093
-0.023
-0.036
0.007
0.018
0.032
0.018
-0.009
0.065
0.110
0.001
-0.066
-0.028
0.051
0.078
0.107
-0.010
0.030
-0.017
0.033
0.025
0.034
0.067
0.044
-0.071
0.007
0.135
0.092
0.009
0.026
-0.055
-0.022
-0.020
0.048
0.098
0.045
0.016
0.021
0.012
-0.049
-0.070
0.087
0.018
0.078
0.030
0.013
0.028
-0.097
0.078
0.050
0.008
-0.070
-0.088
0.056
0.084
0.051
-0.003
-0.010
0.063
0.098
0.017
0.004
0.028
-0.016
0.010
0.157
-0.014
0.044
-0.029
-0.075
0.162
0.114
-0.022
-0.052
0.114
0.040
0.066
0.012
-0.018
0.005
0.034
0.017
-0.042
0.028
0.081
0.049
0.056
-0.077
-0.017
-0.002
0.043
0.030
0.002
0.006
-0.029
0.040
0.108
0.042
0.036
0.056
-0.063
0.026
0.058
0.090
0.052
-0.023
-0.019
0.040
-0.022
-0.080
0.020
0.070
0.082
0.033
0.038
0.022
0.056
-0.016
0.003
-0.014
0.016
-0.080
0.101
0.010
0.010
0.076
0.047
-0.004
0.045
0.026
0.044
0.039
0.024
-0.085
-0.064
0.155
0.131
-0.038
-0.019
-0.059
-0.026
0.115
0.065
-0.001
-0.033
0.000
0.063
0.001
-0.046
0.033
0.064
0.004
0.046
0.043
0.062
-0.025
0.063
0.003
0.010
0.042
-0.033
0.069
0.084
-0.048
-0.041
0.099
0.077
0.007
0.055
0.007
0.015
-0.044
0.094
0.054
0.084
0.025
0.000
-0.039
-0.062
0.125
-0.038
-0.038
0.043
0.005
0.031
-0.090
-0.001
0.079
0.020
0.052
0.048
0.005
-0.065
0.034
0.034
0.103
0.027
-0.017
0.074
0.053
0.085
-0.071
0.061
0.005
0.021
0.055
0.072
0.051
0.039
-0.024
-0.045
0.036
-0.005
0.025
0.063
0.036
0.002
0.079
0.047
-0.039
0.033
0.059
-0.012
-0.023
-0.006
-0.015
0.136
0.068
-0.091
-0.034
0.051
-0.002
0.043
0.041
-0.022
-0.050
-0.024
0.179
0.007
0.042
0.004
0.024
-0.016
0.025
-0.014
-0.047
0.019
0.075
-0.022
0.034
0.013
0.083
-0.003
0.002
0.035
0.042
0.050
-0.030
0.024
0.081
0.001
-0.021
0.030
-0.022
0.036
0.013
-0.034
0.065
0.050
0.023
0.018
0.062
0.030
-0.048
-0.022
0.035
-0.052
-0.015
0.024
0.085
0.020
0.038
0.037
-0.015
0.117
-0.076
-0.064
-0.061
0.044
0.038
0.028
0.065
-0.014
0.075
-0.075
-0.001
0.044
0.069
-0.045
0.065
0.043
0.090
-0.029
0.031
0.092
0.051
-0.041
0.081
0.035
0.021
-0.012
-0.058
-0.001
-0.018
0.030
0.080
0.035
0.004
-0.048
0.012
-0.056
0.059
0.067
0.074
-0.023
0.039
-0.046
0.031
-0.015
0.072
-0.081
0.046
0.065
0.037
0.012
0.022
0.025
-0.006
0.086
0.004
-0.024
0.006
0.032
0.027
0.030
0.007
0.093
0.048
0.045
0.046
0.032
0.012
0.037
0.083
-0.014
0.042
-0.071
-0.009
0.038
0.064
-0.003
0.009
0.046
0.045
-0.050
-0.027
0.049
0.023
-0.033
0.032
0.087
0.052
0.006
-0.069
-0.005
0.093
-0.003
0.057
0.039
0.015
0.015
0.032
0.020
0.055
0.029
-0.072
0.036
0.138
-0.019
0.025
-0.103
-0.008
0.108
0.017
0.030
-0.053
0.001
0.154
0.025
0.021
-0.021
-0.034
0.091
-0.045
0.008
0.020
0.080
-0.047
-0.041
0.061
0.015
-0.027
-0.037
0.039
0.106
0.002
0.006
-0.091
-0.006
0.033
0.099
0.056
-0.010
0.014
0.065
0.101
-0.058
-0.032
-0.013
0.116
0.117
0.039
-0.030
-0.023
-0.009
0.064
-0.022
0.034
-0.003
0.064
0.012
0.026
-0.002
-0.067
0.021
0.104
0.051
-0.041
0.057
0.076
-0.049
-0.010
0.065
0.001
-0.036
0.037
0.008
-0.007
0.049
0.041
-0.026
0.034
-0.080
0.040
0.008
0.027
-0.029
0.010
-0.001
0.159
0.044
-0.011
0.068
0.043
-0.039
-0.079
0.018
0.037
0.139
0.087
-0.069
0.011
0.119
-0.088
0.003
-0.027
0.038
0.104
0.021
0.075
-0.053
-0.045
0.028
0.067
0.056
-0.053
0.006
0.058
-0.006
-0.042
-0.026
0.077
-0.024
-0.006
0.056
0.092
0.018
0.025
0.011
0.039
-0.006
-0.072
-0.020
0.034
0.025
0.002
0.113
-0.077
0.019
0.034
0.022
0.058
-0.026
-0.080
0.062
0.136
-0.004
0.004
0.059
-0.018
-0.070
0.059
0.091
0.002
-0.041
0.027
0.035
-0.012
0.039
0.019
0.098
0.132
0.009
-0.048
-0.069
0.102
0.116
-0.033
0.026
0.083
0.071
-0.055
-0.054
0.004
0.004
0.073
-0.054
0.044
0.076
-0.043
0.062
0.100
-0.020
-0.057
-0.060
0.051
-0.026
0.012
0.060
0.125
0.123
0.025
0.116
-0.109
-0.063
0.048
0.160
0.079
-0.062
-0.012
-0.034
0.080
0.053
-0.028
-0.019
0.051
0.002
0.015
0.061
-0.017
0.054
0.065
-0.064
-0.046
0.043
0.015
0.046
-0.020
-0.071
0.069
0.057
0.002
0.004
0.017
0.072
-0.094
0.047
0.018
0.075
0.070
0.038
-0.072
0.011
0.009
-0.012
0.062
0.043
0.022
0.051
-0.107
0.122
0.016
0.014
0.003
-0.088
0.025
0.108
0.054
-0.082
0.078
0.007
-0.132
0.080
0.005
0.019
0.081
0.008
0.083
-0.090
0.018
-0.016
0.099
0.004
0.036
0.040
0.006
0.004
-0.020
0.038
-0.013
0.005
-0.024
-0.024
-0.063
-0.070
0.134
0.003
0.035
0.109
0.028
0.027
0.055
0.029
0.078
-0.061
0.014
-0.047
0.015
0.062
0.129
0.019
0.005
0.038
-0.046
-0.004
-0.013
0.044
0.084
-0.051
-0.027
-0.040
-0.024
0.040
0.076
-0.097
0.071
0.016
0.062
-0.011
-0.002
0.053
0.049
0.134
0.009
0.034
-0.102
0.019
0.102
-0.064
-0.039
0.047
0.035
-0.103
0.134
0.021
0.086
0.024
0.049
-0.055
0.043
-0.006
0.062
-0.045
0.100
0.040
-0.002
0.035
0.025
-0.059
0.070
0.017
0.056
0.018
0.051
-0.047
0.026
-0.041
-0.046
-0.006
0.083
0.029
-0.026
-0.025
0.005
0.115
-0.006
0.055
-0.014
0.109
0.028
-0.077
0.107
0.063
-0.013
-0.027
0.049
0.143
0.049
0.038
-0.051
-0.056
-0.008
-0.021
0.131
0.095
-0.039
-0.047
-0.010
0.039
0.078
0.013
0.024
0.029
-0.068
-0.010
0.046
-0.026
-0.037
0.050
0.074
-0.022
0.025
-0.075
0.010
0.044
0.105
-0.052
-0.031
0.058
0.027
0.048
0.018
-0.001
0.054
0.046
-0.002
0.100
-0.036
-0.014
0.042
0.044
0.009
-0.026
-0.099
0.046
0.029
0.020
0.001
0.006
-0.012
0.069
-0.017
-0.068
-0.006
0.023
0.030
-0.023
0.050
-0.040
-0.098
0.071
0.110
-0.087
-0.011
0.030
0.092
-0.035
0.036
0.077
0.023
-0.054
0.007
0.020
-0.076
0.079
-0.002
0.066
-0.047
0.054
-0.000
-0.073
0.078
0.009
0.042
0.039
0.049
-0.033
0.092
0.018
0.077
0.028
-0.039
0.036
-0.036
0.044
0.019
0.012
-0.020
0.048
0.065
0.012
-0.027
0.027
0.027
-0.031
-0.071
0.013
0.053
-0.042
0.012
0.096
-0.066
0.019
0.072
0.003
0.084
0.058
0.013
0.076
-0.018
0.063
0.003
-0.007
-0.031
-0.010
-0.063
0.073
0.043
-0.061
0.132
-0.009
0.005
0.058
0.059
0.036
0.001
0.034
0.034
0.036
0.029
0.015
0.025
0.044
-0.046
-0.020
0.014
-0.021
-0.014
0.046
0.010
0.016
0.051
0.093
-0.017
0.015
-0.099
-0.031
0.030
0.120
0.084
0.055
-0.097
0.017
0.110
0.013
-0.018
0.016
-0.047
0.036
-0.013
0.061
0.072
0.003
-0.075
-0.029
0.057
-0.002
0.045
0.074
0.089
-0.022
-0.002
0.084
-0.008
0.001
0.029
-0.013
0.013
0.038
0.026
0.004
0.021
0.013
0.025
-0.018
0.050
-0.010
-0.015
0.077
-0.032
0.061
0.027
0.074
-0.017
-0.007
0.007
0.043
0.050
0.063
-0.020
0.134
0.068
0.003
0.013
0.040
-0.034
-0.008
0.018
0.027
0.027
0.106
0.036
0.068
-0.001
-0.035
-0.075
-0.018
-0.003
0.060
0.037
0.074
-0.018
0.090
-0.061
0.141
0.087
0.010
0.028
-0.010
-0.035
-0.012
0.076
-0.002
-0.016
0.050
-0.031
0.096
-0.064
0.048
-0.001
-0.021
0.117
0.023
-0.002
-0.019
0.002
0.034
0.051
0.057
0.126
-0.020
0.068
0.064
0.059
-0.002
0.033
0.077
-0.038
0.151
-0.065
0.088
-0.042
0.035
0.063
-0.051
0.042
0.010
0.073
-0.043
0.099
0.007
-0.034
0.010
-0.069
0.082
-0.003
-0.020
0.018
-0.027
0.018
-0.034
0.128
0.006
-0.017
0.032
0.020
0.030
0.011
0.033
-0.027
-0.011
0.066
0.075
0.119
0.061
-0.082
0.006
-0.031
-0.053
0.027
0.041
0.161
-0.019
0.016
0.066
0.013
0.017
-0.028
0.046
-0.040
0.049
-0.004
0.048
-0.027
0.004
-0.007
0.024
-0.042
-0.015
0.088
0.068
0.013
-0.031
0.037
0.046
0.038
-0.087
-0.020
0.076
0.047
-0.022
0.035
0.006
0.018
-0.070
0.059
0.061
0.100
-0.054
-0.008
0.071
-0.049
0.080
-0.030
-0.007
0.033
0.151
-0.042
0.138
-0.116
-0.048
-0.031
0.023
0.011
0.074
-0.022
0.018
0.020
0.020
0.056
0.094
0.005
-0.048
0.032
-0.075
0.001
0.027
0.025
0.085
0.073
-0.051
-0.032
0.032
0.065
0.053
0.071
-0.014
0.037
-0.055
0.087
0.016
0.018
-0.002
0.007
0.006
0.016
-0.078
0.015
0.060
-0.012
0.004
-0.014
-0.014
-0.002
-0.009
0.064
0.094
-0.066
0.081
-0.044
0.014
0.071
0.040
-0.017
0.045
0.013
-0.021
0.031
0.017
-0.045
0.087
0.025
-0.036
0.009
-0.016
0.017
0.010
0.040
0.035
0.070
0.019
-0.043
-0.050
-0.011
0.036
0.036
-0.093
-0.047
0.080
0.014
-0.011
-0.022
0.003
-0.021
0.028
0.018
0.004
0.060
-0.056
0.100
0.014
0.053
0.068
0.061
-0.024
-0.026
0.078
-0.012
0.001
-0.058
-0.024
0.047
0.028
0.017
0.037
0.003
-0.020
0.012
0.080
-0.004
0.053
-0.033
-0.033
-0.010
0.111
0.002
0.105
-0.014
0.046
0.004
-0.016
-0.004
0.070
-0.010
0.082
-0.001
0.031
-0.100
0.007
0.116
-0.003
-0.054
0.015
0.010
0.116
0.099
0.034
-0.001
-0.060
-0.023
0.058
0.021
0.081
-0.003
0.039
-0.019
0.030
0.009
0.091
-0.046
-0.124
0.061
0.010
0.046
-0.082
0.065
0.022
0.062
0.065
0.011
-0.085
-0.023
0.015
0.101
0.009
-0.022
0.046
0.065
0.067
-0.044
0.005
0.031
0.019
-0.015
-0.039
-0.023
0.112
0.072
0.085
0.014
-0.055
0.045
0.028
0.025
0.084
-0.008
-0.032
0.053
-0.010
0.049
0.065
0.020
0.030
-0.001
0.042
-0.084
0.060
-0.039
0.012
0.014
-0.004
0.059
0.061
0.034
-0.024
0.122
-0.014
0.011
-0.035
0.042
0.006
-0.058
-0.033
0.065
0.122
-0.044
-0.020
-0.048
0.037
0.001
0.069
0.004
-0.052
0.119
0.036
0.059
0.015
-0.068
-0.038
0.131
0.143
-0.033
0.064
-0.044
0.077
-0.015
-0.012
-0.030
0.069
0.078
-0.060
-0.009
0.015
0.064
0.010
-0.006
-0.038
0.008
0.058
0.082
0.013
0.061
-0.061
0.011
-0.021
-0.034
0.008
0.112
0.037
-0.041
-0.008
0.035
-0.021
0.020
0.102
0.172
-0.030
-0.077
-0.018
0.023
0.156
-0.007
-0.025
-0.018
-0.005
-0.004
0.069
-0.013
-0.069
0.049
-0.004
0.002
-0.012
0.079
-0.019
-0.015
-0.029
0.038
0.054
-0.007
0.007
0.120
-0.110
0.046
-0.034
0.106
0.086
0.066
0.063
-0.072
-0.028
0.001
0.055
0.092
0.069
0.006
0.024
0.061
0.068
-0.052
0.035
-0.033
-0.040
0.024
0.023
0.059
-0.029
-0.020
0.086
-0.102
0.014
0.021
-0.044
-0.009
0.038
0.045
0.110
0.031
-0.022
-0.001
0.012
0.066
0.025
0.048
0.008
0.090
0.054
0.031
-0.022
0.103
0.008
0.030
-0.045
-0.069
0.027
-0.051
0.042
0.037
0.059
-0.020
0.077
-0.005
-0.115
0.063
0.052
0.082
-0.038
-0.103
0.004
0.023
0.040
0.069
0.075
-0.067
0.070
-0.042
0.050
0.046
-0.070
0.031
0.073
0.022
0.094
0.030
0.036
0.019
-0.007
0.007
0.033
0.002
-0.050
-0.013
0.000
-0.009
0.012
0.093
-0.007
-0.092
0.016
0.064
0.010
-0.000
0.093
0.025
-0.053
0.010
0.075
0.023
0.078
0.023
0.046
0.034
0.033
-0.046
0.019
0.061
0.063
-0.060
0.005
0.062
0.000
0.039
-0.043
0.029
0.019
0.037
0.002
0.057
0.034
0.024
-0.042
0.013
0.023
0.047
-0.040
0.090
0.096
-0.064
-0.022
0.086
-0.026
0.036
0.063
-0.036
0.025
0.016
0.003
0.051
0.064
0.068
-0.116
-0.014
-0.018
0.083
0.001
0.060
0.039
-0.087
0.030
-0.072
0.080
0.032
0.009
-0.021
0.037
0.058
-0.037
0.030
0.043
0.001
-0.029
0.039
0.091
-0.058
0.036
0.045
0.110
-0.083
-0.071
0.038
0.224
-0.053
-0.026
0.046
0.000
0.039
0.016
0.036
-0.036
-0.017
-0.067
0.033
0.023
-0.054
0.064
-0.040
-0.062
0.024
0.106
0.101
0.072
-0.092
-0.032
-0.014
-0.032
0.008
0.037
0.021
-0.022
0.020
-0.056
0.044
0.069
-0.051
0.063
-0.016
0.088
0.061
0.068
-0.019
0.018
-0.020
0.032
0.054
0.018
0.004
-0.027
0.024
0.106
-0.017
0.045
0.021
0.092
-0.033
0.089
-0.034
-0.015
0.058
-0.011
-0.073
0.074
-0.079
0.130
0.008
0.011
0.085
-0.016
0.018
-0.048
0.079
0.006
-0.015
0.019
0.102
0.016
0.027
0.022
0.092
0.020
-0.042
-0.099
0.116
0.047
0.096
0.017
0.004
-0.085
0.105
-0.031
0.033
0.060
0.062
0.083
0.035
-0.040
-0.012
0.105
0.014
0.038
0.054
-0.062
-0.034
0.016
0.026
-0.001
0.077
-0.045
0.066
0.067
0.067
0.013
0.104
-0.014
-0.007
-0.066
0.028
0.051
-0.051
0.041
-0.032
0.057
0.154
-0.019
-0.125
-0.042
0.075
0.068
0.082
0.030
0.017
-0.002
0.087
-0.047
0.012
0.025
0.092
0.067
-0.104
-0.017
0.038
0.072
-0.046
0.047
-0.025
0.008
-0.002
0.011
0.011
0.041
-0.057
0.089
0.015
-0.017
0.060
-0.007
0.088
-0.055
-0.015
0.049
0.130
0.017
0.071
0.016
-0.005
-0.022
0.030
0.024
0.134
0.015
-0.045
0.024
-0.086
0.028
0.079
0.067
-0.037
0.098
-0.005
-0.060
-0.028
0.060
0.093
-0.038
0.014
-0.007
0.013
0.052
0.033
0.025
-0.004
-0.118
-0.074
0.083
0.040
0.053
0.002
0.029
0.058
0.013
0.075
-0.009
-0.007
-0.006
0.085
0.056
0.061
0.029
-0.034
-0.032
-0.031
0.068
0.025
0.035
-0.022
-0.006
-0.009
0.016
0.035
-0.024
-0.003
-0.011
0.160
0.055
0.019
-0.053
-0.036
0.063
0.090
0.006
0.044
0.081
-0.040
0.057
-0.042
-0.002
0.080
0.032
-0.001
-0.025
-0.015
-0.039
0.042
0.059
0.034
-0.011
-0.011
0.005
0.006
0.023
0.013
0.057
0.117
0.028
-0.052
-0.061
0.022
0.072
-0.003
0.046
0.098
0.072
-0.064
-0.038
-0.032
0.073
0.047
0.068
-0.005
0.055
-0.074
0.051
0.048
0.010
-0.041
-0.033
0.023
0.106
0.048
0.022
0.045
0.044
0.031
-0.014
0.095
0.054
-0.082
0.073
0.002
0.016
0.036
0.031
-0.016
0.004
0.044
0.044
0.004
-0.036
0.045
0.022
-0.013
0.053
0.091
-0.076
0.101
-0.090
0.082
-0.015
0.056
0.000
-0.029
-0.074
0.023
0.097
0.059
-0.072
0.069
0.081
-0.026
0.003
-0.022
0.005
0.025
0.050
0.018
-0.038
0.022
0.082
0.009
0.002
0.064
0.117
-0.052
0.088
0.013
0.047
0.013
-0.082
0.012
0.027
0.061
0.070
0.068
0.026
-0.101
-0.036
-0.016
-0.010
-0.032
0.016
0.048
0.013
0.038
-0.055
-0.092
0.167
0.018
0.017
0.003
-0.017
0.113
0.071
-0.013
-0.017
-0.029
-0.025
-0.025
0.083
0.051
0.081
0.033
0.000
-0.023
0.053
0.040
0.000
0.057
0.089
-0.044
0.044
0.044
0.040
-0.049
0.008
0.019
-0.003
0.018
0.037
0.016
-0.058
0.052
0.011
-0.010
0.033
0.089
-0.011
-0.004
0.014
-0.004
0.025
0.066
0.034
0.067
0.028
0.018
0.033
-0.018
0.048
0.055
0.062
-0.046
0.032
0.047
0.006
0.040
-0.027
0.050
0.119
0.021
-0.063
-0.016
0.059
0.032
0.026
0.033
0.033
-0.077
0.023
0.008
0.030
-0.072
-0.020
0.048
0.120
0.058
-0.028
0.075
-0.012
-0.033
0.040
0.091
0.043
0.034
-0.008
0.041
0.002
-0.043
0.097
0.051
-0.027
-0.098
0.050
0.059
0.064
0.044
-0.006
0.023
0.096
-0.030
-0.012
0.071
0.041
0.028
-0.170
-0.023
0.061
0.053
-0.008
-0.035
-0.006
0.037
0.003
0.018
-0.019
0.079
-0.044
0.086
0.045
-0.057
0.035
0.051
-0.063
0.035
0.056
0.042
-0.030
0.039
0.056
0.035
0.041
-0.029
0.047
0.019
-0.013
-0.055
-0.024
0.048
0.087
0.072
0.018
-0.116
0.085
0.051
0.043
0.021
0.022
-0.059
-0.023
0.034
-0.053
0.061
0.068
-0.056
0.095
-0.014
0.053
0.004
0.029
-0.006
-0.035
0.047
0.075
0.103
0.054
0.033
-0.036
-0.010
0.056
-0.007
0.013
0.040
0.102
-0.018
0.016
-0.028
0.029
0.068
0.015
0.058
0.062
0.031
-0.078
-0.061
0.077
0.112
-0.045
-0.038
0.074
-0.088
0.055
0.040
0.027
0.060
-0.021
-0.058
0.033
0.045
0.035
-0.004
-0.002
-0.005
0.038
0.082
0.034
0.036
0.040
0.086
-0.059
0.018
-0.012
0.144
-0.032
0.076
-0.007
-0.027
0.111
0.041
-0.034
-0.008
-0.008
0.058
-0.078
0.075
-0.006
0.066
0.090
-0.044
0.027
-0.053
0.018
-0.053
-0.022
0.040
0.044
0.092
0.004
-0.024
-0.005
0.029
0.082
0.121
-0.100
-0.030
0.105
-0.078
0.121
0.063
-0.010
0.076
-0.028
0.035
-0.038
-0.015
0.077
0.045
0.008
0.044
0.025
-0.011
0.115
0.006
-0.062
0.001
0.095
0.018
-0.015
-0.014
0.082
-0.039
0.051
0.071
-0.037
0.099
0.127
-0.002
-0.076
-0.083
0.084
0.052
0.008
0.011
0.071
-0.017
0.070
0.103
-0.076
-0.070
0.044
0.093
0.043
0.038
0.024
-0.034
0.006
0.014
0.024
-0.036
0.050
0.066
0.103
-0.056
0.049
-0.009
0.007
0.030
-0.044
0.019
0.035
0.010
0.030
0.011
-0.029
0.052
0.003
-0.013
0.029
-0.003
0.097
0.065
0.051
-0.002
-0.030
0.041
0.102
0.079
0.041
-0.091
0.076
-0.011
0.028
0.051
0.008
-0.008
0.013
-0.076
0.069
0.051
0.104
-0.075
0.004
0.019
0.125
0.079
0.060
-0.109
0.015
0.056
-0.011
0.007
-0.038
-0.015
0.012
0.128
0.065
-0.058
0.119
0.039
-0.026
0.040
-0.033
-0.045
-0.022
0.103
-0.000
0.048
0.016
-0.084
0.061
0.097
0.106
0.078
-0.061
0.014
0.043
0.062
-0.043
-0.021
0.058
0.052
0.055
0.000
0.045
-0.003
-0.069
0.111
0.130
-0.015
-0.002
0.123
-0.033
-0.014
-0.021
0.016
0.118
0.034
0.005
-0.072
0.098
0.000
-0.061
0.000
0.122
-0.007
-0.034
0.050
0.092
0.093
-0.056
0.067
0.064
0.043
-0.015
-0.019
-0.003
0.032
0.043
-0.005
0.041
0.030
0.054
0.032
0.094
0.001
0.014
-0.060
-0.042
0.063
-0.083
0.006
0.018
0.037
0.092
-0.047
0.078
0.061
0.143
0.049
-0.028
0.016
-0.024
0.048
0.135
0.003
-0.056
-0.025
0.060
0.086
-0.024
0.081
0.001
-0.065
-0.060
0.042
0.048
0.047
-0.077
0.092
0.055
0.054
-0.009
0.025
0.076
0.042
-0.021
0.094
-0.023
-0.031
0.021
0.082
0.078
0.035
-0.015
-0.060
-0.057
0.048
0.098
0.026
-0.075
-0.105
0.029
0.017
0.012
0.038
-0.003
0.042
0.080
-0.002
-0.102
0.019
0.081
-0.002
-0.004
0.045
0.124
0.050
-0.019
-0.011
0.010
-0.004
-0.004
-0.015
0.025
0.049
0.116
0.027
-0.016
-0.005
0.022
-0.112
0.067
0.065
-0.032
0.003
-0.039
-0.001
0.029
-0.017
0.008
-0.019
0.074
0.016
0.009
-0.061
0.112
0.039
0.019
-0.043
0.019
-0.084
0.081
0.087
0.084
-0.005
-0.086
0.026
-0.038
0.013
-0.058
0.052
-0.040
0.063
-0.000
-0.036
0.014
0.047
0.071
0.037
-0.015
0.028
-0.016
-0.024
0.030
0.098
0.054
0.026
0.001
0.043
0.037
-0.052
0.065
-0.061
-0.030
0.043
0.020
0.015
0.010
0.011
0.049
-0.035
-0.017
0.009
0.079
0.057
0.036
0.035
0.031
-0.030
-0.024
0.031
-0.002
-0.042
0.061
0.101
0.042
-0.076
-0.052
-0.017
0.116
0.009
0.113
0.006
0.021
-0.027
0.051
-0.028
0.184
0.014
0.038
-0.002
0.016
0.057
-0.078
-0.027
0.038
0.084
0.027
0.001
0.003
0.018
0.006
0.066
-0.091
0.032
0.044
0.047
0.010
-0.026
0.150
0.013
-0.027
-0.019
0.104
0.093
0.032
0.087
-0.017
-0.037
0.015
-0.069
0.041
0.027
0.109
0.018
-0.041
0.075
-0.026
-0.032
0.017
0.037
-0.088
0.056
0.131
0.003
-0.005
-0.025
0.072
0.025
0.032
0.116
0.106
-0.067
-0.020
0.022
-0.003
-0.010
0.046
-0.021
-0.094
-0.034
0.014
-0.007
-0.026
0.078
-0.047
-0.000
0.115
-0.007
0.101
0.034
0.102
-0.013
0.066
0.030
0.024
-0.015
-0.081
0.014
0.127
0.017
0.038
-0.041
0.011
-0.008
0.085
0.011
-0.046
-0.000
-0.037
0.126
0.094
0.031
-0.046
-0.027
-0.033
0.025
0.052
0.032
-0.059
0.044
0.036
-0.009
0.042
0.022
0.026
0.033
0.085
0.089
-0.040
-0.021
-0.010
0.028
-0.016
0.050
-0.010
-0.051
0.073
0.023
-0.046
0.017
0.065
-0.029
0.014
0.088
0.040
0.101
-0.070
-0.027
0.102
0.030
-0.004
0.032
0.062
0.078
0.035
-0.112
0.096
0.001
-0.017
0.065
-0.049
0.055
-0.011
0.048
0.010
0.047
0.008
-0.019
0.080
0.102
0.042
0.002
0.040
0.000
-0.005
-0.029
-0.015
-0.008
0.056
0.076
-0.003
0.059
0.121
-0.026
-0.021
0.020
0.067
-0.054
0.002
0.092
0.056
0.006
-0.087
-0.026
0.035
0.016
0.014
-0.039
0.015
-0.025
0.085
-0.017
-0.012
0.097
-0.018
-0.019
0.068
-0.019
0.094
-0.049
0.028
-0.023
0.040
0.022
0.013
0.008
0.120
0.024
0.033
-0.067
0.077
0.002
0.085
-0.003
0.056
0.007
-0.036
-0.022
0.023
0.057
0.004
0.109
0.008
-0.055
0.002
0.032
0.115
-0.047
-0.006
0.077
-0.007
-0.001
0.010
0.070
-0.005
0.027
-0.007
-0.044
0.075
0.149
-0.020
-0.046
-0.043
0.061
0.075
0.037
-0.038
-0.004
0.078
0.089
0.011
0.003
0.013
0.032
0.006
0.073
-0.091
0.050
0.018
0.006
0.099
0.081
-0.004
0.038
-0.105
-0.019
0.077
0.003
0.154
0.155
0.002
-0.052
-0.035
0.081
-0.048
-0.014
0.158
0.002
0.014
0.059
-0.094
0.061
0.076
-0.007
-0.055
0.006
0.034
0.057
0.010
0.096
0.168
0.025
0.015
0.003
0.004
0.025
-0.035
0.067
-0.026
0.020
0.051
0.026
0.136
-0.015
-0.005
0.034
0.002
0.032
0.000
-0.011
0.031
0.021
-0.039
0.010
0.034
0.074
0.043
-0.027
-0.008
0.069
-0.062
0.075
-0.021
0.032
-0.003
0.039
0.059
0.067
-0.054
-0.036
-0.001
0.071
0.101
0.092
0.020
-0.026
-0.017
0.016
-0.029
0.003
0.055
0.058
0.012
-0.027
0.007
0.083
0.142
0.085
0.019
-0.037
0.045
-0.011
-0.028
0.013
0.143
0.103
-0.032
-0.077
0.015
-0.066
0.113
0.019
-0.026
0.045
0.045
0.005
-0.001
0.024
0.077
-0.025
0.075
0.013
-0.049
0.043
0.083
0.069
-0.020
0.059
-0.017
0.053
0.028
-0.025
0.088
-0.038
-0.018
0.028
0.060
-0.066
0.046
0.064
0.012
0.016
0.114
-0.040
-0.008
0.061
0.049
-0.022
-0.010
-0.074
0.082
0.095
0.000
-0.075
0.036
0.057
-0.012
-0.074
0.039
-0.012
-0.044
0.101
-0.041
0.081
-0.031
0.004
0.009
0.045
0.033
0.033
0.003
0.047
-0.076
-0.028
-0.009
0.008
0.093
-0.061
0.017
0.011
0.012
0.047
-0.011
-0.072
0.064
0.106
-0.105
0.125
0.003
0.009
-0.007
0.041
-0.046
0.080
-0.090
-0.004
0.115
0.057
-0.017
-0.082
0.028
0.074
0.024
-0.005
0.016
-0.002
0.046
-0.018
0.018
0.001
-0.059
0.168
-0.070
0.103
-0.034
0.031
0.016
0.025
-0.082
0.100
0.008
0.074
-0.017
-0.094
0.052
0.102
-0.008
0.076
0.097
0.002
-0.004
-0.019
-0.031
0.102
0.080
0.024
-0.031
-0.096
0.139
0.147
0.029
-0.131
0.018
0.044
0.113
-0.053
0.002
0.034
0.059
0.014
-0.018
0.046
0.040
-0.079
0.025
0.039
0.022
0.070
0.056
0.019
-0.026
-0.033
-0.050
0.140
0.079
-0.045
0.027
0.030
-0.051
0.076
0.023
0.038
0.081
0.022
0.010
-0.026
-0.015
0.041
0.066
0.025
-0.108
0.005
-0.018
0.034
-0.013
0.107
0.023
-0.039
-0.012
0.003
0.049
0.019
-0.025
0.056
-0.008
-0.061
-0.058
-0.023
0.004
0.013
0.009
-0.032
0.045
0.103
-0.053
-0.038
0.039
0.014
0.044
0.056
-0.047
0.015
0.085
-0.033
-0.051
0.008
0.000
0.065
0.078
-0.017
0.068
0.002
0.027
-0.002
-0.009
-0.019
0.084
-0.015
-0.104
-0.019
0.052
0.063
0.026
-0.076
0.069
0.011
-0.088
0.008
0.032
0.054
0.011
-0.029
0.085
-0.005
0.011
-0.032
0.032
0.055
-0.017
0.029
0.148
-0.015
0.056
-0.012
-0.015
0.073
-0.022
-0.080
0.084
-0.024
0.033
0.029
-0.002
-0.018
0.013
-0.001
-0.054
0.016
0.024
0.025
0.070
0.024
0.130
-0.019
-0.105
0.132
0.101
0.034
0.052
0.061
0.002
0.024
-0.044
0.026
0.089
0.063
0.022
-0.024
-0.060
-0.079
0.042
-0.013
0.054
0.045
0.012
0.064
-0.087
0.042
-0.023
0.071
0.052
0.013
0.013
-0.067
0.095
0.019
-0.073
0.145
-0.064
-0.046
-0.007
0.021
0.038
0.064
0.069
0.041
0.010
-0.044
-0.028
0.100
0.016
0.084
0.056
-0.009
0.077
0.022
-0.080
-0.049
0.033
-0.019
0.098
0.023
0.011
0.029
-0.002
0.003
-0.040
0.032
0.062
0.002
-0.091
0.045
-0.056
0.052
0.070
0.010
-0.060
-0.005
0.045
-0.041
0.018
0.033
0.064
-0.059
0.037
0.065
-0.040
0.102
-0.076
0.047
0.004
0.024
-0.004
0.104
0.108
0.056
-0.008
-0.014
0.051
0.043
0.006
0.010
0.043
-0.040
0.059
-0.019
0.062
-0.049
0.080
-0.018
0.048
-0.019
0.022
0.043
0.077
-0.090
-0.026
-0.029
0.027
0.052
0.025
0.040
0.055
-0.030
0.063
0.047
-0.034
0.065
0.060
-0.018
0.070
0.033
0.038
-0.044
0.048
0.143
-0.044
0.052
-0.034
0.158
0.005
0.059
-0.029
0.022
0.060
0.045
0.061
-0.073
0.003
-0.049
0.045
0.163
-0.019
0.005
-0.021
0.056
0.083
-0.032
-0.022
-0.012
0.038
-0.003
-0.047
0.143
0.039
0.007
0.045
-0.034
-0.060
0.032
-0.037
0.043
0.053
-0.026
0.109
0.080
-0.026
-0.021
0.021
0.063
0.055
-0.070
0.005
0.021
0.036
0.102
0.083
0.039
0.017
0.009
0.044
0.019
-0.032
0.006
0.011
-0.029
0.028
0.032
0.027
0.078
-0.047
-0.038
-0.007
-0.045
0.033
0.120
0.050
-0.030
0.014
-0.007
0.037
0.074
-0.028
-0.062
0.012
-0.023
0.058
0.027
0.001
0.024
-0.027
-0.023
0.020
-0.013
0.012
0.066
0.110
0.022
-0.057
-0.017
0.071
-0.014
0.110
0.012
0.013
0.160
-0.003
-0.015
-0.032
0.090
0.014
0.001
0.124
-0.032
0.103
0.029
-0.032
-0.083
0.011
0.021
0.032
0.066
-0.026
-0.028
0.058
0.068
-0.013
-0.015
-0.002
0.007
-0.055
0.038
0.027
0.024
0.016
0.044
-0.035
-0.030
0.043
-0.086
0.084
0.053
0.127
0.050
-0.032
0.005
-0.050
0.105
-0.008
0.044
0.038
0.015
0.028
0.037
0.050
0.009
-0.032
0.175
0.108
-0.051
-0.033
0.105
0.026
-0.021
0.036
0.040
0.024
-0.004
-0.081
0.115
0.021
-0.066
-0.071
0.086
0.134
-0.009
-0.003
-0.005
0.044
0.003
-0.003
-0.021
-0.089
-0.043
0.063
0.106
0.010
-0.041
0.066
-0.072
-0.007
0.025
0.147
0.089
0.008
0.008
0.069
0.115
-0.059
-0.021
0.103
0.082
0.044
0.023
0.029
0.055
0.013
-0.047
0.061
0.097
0.018
0.027
0.056
-0.054
0.079
0.004
0.014
-0.060
0.007
-0.013
-0.037
0.010
-0.008
0.081
-0.021
-0.028
-0.052
0.098
0.037
0.049
0.095
0.097
-0.022
-0.056
-0.006
0.064
-0.003
0.098
-0.008
-0.009
0.054
0.107
0.105
0.016
-0.062
0.049
0.063
-0.038
-0.066
0.046
0.018
0.014
0.100
-0.016
0.009
-0.040
-0.074
-0.032
0.061
0.091
-0.089
0.001
0.087
-0.014
0.001
0.064
-0.039
0.016
0.032
0.066
0.077
-0.016
0.020
0.078
0.065
-0.104
-0.005
-0.056
0.083
0.082
0.028
0.003
-0.063
0.039
-0.066
0.099
0.014
0.047
0.042
-0.020
-0.017
0.026
0.068
0.032
-0.051
0.065
0.003
-0.021
0.004
0.031
0.049
-0.060
0.009
0.009
0.014
-0.035
0.035
0.032
0.033
0.099
-0.061
-0.024
0.090
-0.030
0.108
0.100
-0.126
0.062
-0.008
0.105
-0.006
0.061
-0.067
-0.028
-0.008
-0.055
0.077
0.032
0.023
-0.005
-0.026
-0.001
0.082
0.029
-0.008
-0.024
0.047
0.068
0.118
-0.023
0.034
-0.060
0.054
0.077
-0.036
0.084
-0.005
-0.022
0.054
-0.003
0.030
-0.019
0.026
-0.001
-0.020
-0.060
-0.034
0.081
0.085
0.084
-0.018
0.055
0.001
-0.057
0.030
0.031
-0.030
0.085
0.027
0.052
0.035
0.018
-0.034
0.029
0.048
-0.045
0.023
0.061
0.025
-0.041
0.055
-0.071
0.026
0.009
0.045
-0.094
0.011
-0.028
0.064
0.066
0.135
-0.032
-0.073
0.046
-0.041
0.052
0.039
0.059
-0.093
0.054
0.012
0.036
-0.051
0.025
0.036
-0.070
0.013
0.023
-0.035
0.080
0.122
0.038
0.066
0.068
-0.005
-0.003
0.026
0.099
-0.012
0.001
0.009
0.042
0.074
0.015
-0.061
-0.083
-0.010
0.085
0.162
0.057
-0.088
-0.065
-0.024
-0.002
0.049
-0.036
0.055
0.076
0.006
-0.001
-0.039
0.046
-0.019
0.023
-0.020
0.044
-0.001
-0.107
0.001
0.108
0.051
0.064
0.061
-0.002
0.093
-0.029
-0.003
-0.025
-0.051
0.097
0.001
-0.027
-0.024
0.033
0.059
-0.008
0.003
0.052
0.028
0.112
-0.001
-0.065
0.087
0.047
-0.004
-0.019
-0.080
-0.067
0.057
0.118
0.054
-0.033
-0.052
0.048
-0.029
-0.016
-0.037
-0.047
0.001
-0.065
-0.018
0.032
0.061
-0.006
0.001
0.149
-0.028
-0.076
-0.021
-0.084
-0.024
-0.029
0.060
0.081
0.041
0.025
0.037
0.002
0.156
-0.006
-0.004
-0.030
0.088
0.027
0.022
0.024
0.007
-0.052
0.047
-0.003
-0.013
-0.023
0.029
-0.013
0.085
-0.004
-0.026
-0.015
-0.024
0.106
-0.053
0.021
-0.010
-0.044
0.027
-0.011
-0.054
0.114
0.123
-0.099
0.003
0.012
-0.057
-0.031
0.067
-0.030
0.017
0.037
0.060
-0.070
0.050
-0.089
0.093
0.062
0.035
0.059
0.010
0.008
0.109
0.015
0.072
-0.010
-0.002
0.086
-0.017
-0.029
-0.018
-0.003
0.008
0.114
-0.074
0.038
0.083
0.043
-0.009
-0.069
0.056
-0.041
-0.043
0.020
0.050
0.041
-0.078
-0.037
0.067
0.044
0.027
-0.057
0.076
-0.088
-0.044
-0.047
0.002
0.022
0.032
-0.005
-0.045
0.003
-0.028
0.141
-0.009
-0.031
0.074
0.073
-0.080
-0.038
0.005
0.092
0.028
-0.026
0.005
-0.003
-0.050
0.093
0.079
0.043
0.098
-0.127
0.079
0.098
-0.084
0.009
0.028
0.065
-0.079
0.063
-0.030
0.010
0.028
0.099
-0.020
-0.058
0.103
-0.049
-0.079
0.088
0.068
-0.002
0.057
0.102
0.012
-0.122
0.018
-0.002
-0.022
0.036
0.027
-0.003
0.113
-0.080
0.043
0.049
0.069
0.016
-0.011
0.014
0.055
0.041
0.037
0.064
0.026
-0.021
-0.025
0.041
0.040
-0.009
0.025
-0.009
0.056
-0.008
0.024
0.020
-0.148
0.110
-0.031
-0.029
-0.003
-0.069
0.091
0.077
0.121
0.044
0.015
-0.017
-0.024
0.034
0.100
-0.013
0.032
-0.027
0.031
0.065
-0.008
0.072
-0.003
0.005
-0.023
-0.027
0.074
0.008
-0.011
-0.012
-0.014
0.025
-0.038
-0.002
-0.033
0.073
-0.008
0.026
0.007
-0.008
0.072
0.039
-0.060
0.051
0.002
-0.010
0.130
-0.025
0.001
0.025
-0.019
-0.046
0.070
0.011
-0.056
-0.023
0.066
-0.015
0.029
0.033
0.081
-0.002
0.086
0.029
-0.099
-0.163
0.102
0.016
0.053
0.007
-0.017
0.013
0.041
0.010
-0.038
0.008
0.014
0.021
0.029
0.021
0.032
0.030
-0.003
0.052
0.028
0.039
0.052
-0.005
0.058
-0.029
0.076
0.050
-0.024
-0.003
0.030
0.019
0.071
-0.027
0.096
-0.043
-0.028
0.029
0.024
0.004
0.059
0.026
-0.053
-0.015
0.125
-0.018
0.024
0.062
0.037
-0.106
-0.017
0.062
0.023
0.033
0.064
0.060
0.055
0.032
-0.078
-0.017
0.061
-0.064
-0.005
0.078
0.058
-0.054
-0.037
0.070
0.020
-0.002
0.016
-0.030
0.016
0.020
0.082
0.056
0.030
0.072
0.069
-0.016
0.049
-0.027
0.033
-0.037
0.091
0.068
0.055
-0.024
0.069
-0.027
0.037
-0.008
0.053
0.057
-0.040
-0.020
-0.036
-0.042
0.120
0.112
-0.018
0.019
-0.023
0.027
0.009
0.012
0.045
0.066
-0.014
0.075
0.046
0.017
-0.049
-0.005
-0.039
-0.037
0.094
0.109
0.043
-0.008
0.018
-0.039
-0.022
-0.028
0.004
0.040
0.042
0.022
-0.003
0.068
0.058
0.077
-0.032
-0.008
0.055
-0.021
0.106
0.129
-0.003
-0.067
-0.001
0.027
0.034
0.033
-0.018
0.002
0.057
0.045
-0.022
-0.042
-0.010
0.023
0.071
0.002
0.040
0.081
0.082
0.030
-0.068
0.029
-0.051
0.083
0.082
-0.031
0.023
-0.001
0.055
0.042
0.017
-0.042
0.019
-0.012
0.074
-0.022
-0.082
0.038
0.030
0.070
0.059
0.031
-0.007
-0.010
0.066
-0.037
0.079
0.042
0.053
0.009
0.086
-0.073
0.065
0.075
0.011
-0.035
0.051
-0.077
0.053
0.046
-0.125
0.043
-0.002
0.066
-0.068
0.048
0.059
0.009
0.044
-0.009
-0.075
0.150
0.079
0.070
-0.031
0.131
-0.046
0.003
0.021
-0.102
0.109
-0.091
0.009
-0.046
0.005
0.141
0.058
0.050
0.020
0.044
-0.093
0.087
0.074
0.028
0.017
-0.006
-0.020
0.069
-0.008
0.017
-0.051
0.023
0.044
0.066
-0.097
-0.089
0.064
0.020
0.048
0.060
-0.002
-0.007
-0.039
0.069
-0.042
0.052
0.022
0.012
-0.025
0.036
0.087
0.072
0.009
-0.070
-0.006
-0.031
0.099
-0.028
0.050
0.016
0.072
-0.054
0.059
0.007
-0.127
0.026
0.112
0.067
-0.016
-0.002
-0.013
0.001
0.001
0.097
-0.046
-0.013
-0.007
0.109
0.062
-0.081
-0.026
0.004
0.008
0.057
-0.005
0.071
-0.071
-0.041
0.088
0.056
0.003
0.113
-0.103
0.070
0.034
0.039
0.010
0.007
-0.099
0.034
0.059
0.049
0.048
0.019
-0.004
0.020
0.038
-0.040
0.041
0.024
0.029
0.019
0.071
0.016
0.072
0.098
-0.044
-0.059
0.086
-0.062
0.026
0.073
-0.044
0.016
0.088
0.093
-0.052
0.002
0.068
-0.062
-0.041
0.157
0.177
-0.071
-0.042
-0.051
0.048
0.005
0.033
0.054
0.022
0.025
0.049
-0.029
0.168
0.016
0.008
-0.035
0.144
0.025
-0.035
0.040
-0.009
-0.074
0.049
-0.003
0.064
0.022
0.065
-0.014
0.013
-0.026
-0.040
0.098
-0.026
-0.002
0.033
0.068
0.056
0.011
0.071
-0.059
0.074
-0.032
0.001
0.050
0.052
0.024
0.033
-0.030
0.049
0.016
-0.036
-0.033
0.101
0.074
-0.006
0.014
0.027
-0.011
0.005
0.102
-0.010
0.041
-0.094
0.005
0.018
0.013
-0.020
0.053
0.022
0.125
0.051
-0.006
0.050
-0.049
-0.051
0.074
0.079
-0.082
0.049
-0.035
-0.001
0.018
0.014
-0.026
0.064
0.110
0.079
-0.032
-0.029
0.043
-0.077
0.030
-0.019
0.046
0.082
0.039
0.002
0.028
-0.055
0.084
0.111
-0.010
-0.012
0.011
-0.015
0.081
0.055
-0.054
-0.074
0.057
0.138
0.070
-0.009
0.009
-0.026
-0.021
-0.018
0.098
0.049
-0.086
-0.008
0.044
0.060
-0.062
-0.010
0.061
0.054
0.030
0.024
0.017
0.016
-0.044
0.053
0.066
0.026
-0.077
0.027
-0.006
0.069
0.066
-0.008
-0.042
-0.032
0.077
-0.062
-0.006
-0.009
-0.011
0.036
-0.031
0.002
0.015
0.003
-0.014
-0.035
0.007
0.095
0.004
-0.007
-0.003
0.044
0.004
-0.013
-0.008
-0.005
0.068
0.039
0.084
0.021
-0.007
-0.050
0.053
-0.013
-0.094
0.115
0.077
-0.008
-0.039
-0.135
-0.005
0.013
0.052
0.072
-0.044
-0.011
0.042
0.021
0.022
-0.056
0.111
0.033
0.083
-0.036
-0.029
0.033
-0.006
0.060
-0.043
-0.002
0.062
0.044
0.015
-0.025
0.008
0.040
-0.014
-0.023
-0.022
0.068
0.079
0.024
0.024
0.005
0.060
-0.039
0.050
0.053
0.069
-0.059
-0.034
-0.015
0.002
0.096
-0.031
0.058
-0.007
0.026
-0.005
0.062
0.048
-0.022
-0.097
-0.021
0.084
0.007
0.064
0.014
0.034
0.096
0.053
0.075
-0.079
-0.028
0.099
0.027
-0.009
0.038
0.038
0.034
-0.009
-0.009
0.014
0.064
0.026
0.103
0.048
-0.031
0.058
0.022
0.007
-0.004
-0.027
0.013
0.068
-0.018
-0.033
-0.023
-0.043
0.037
0.081
0.005
-0.040
0.023
0.073
-0.005
0.043
-0.063
0.108
0.058
-0.016
-0.057
0.063
0.076
0.002
0.002
-0.085
0.025
0.054
0.043
0.106
-0.016
-0.073
0.014
0.004
0.007
0.015
0.067
0.032
0.081
-0.017
0.006
-0.008
0.017
-0.037
-0.074
0.074
0.027
-0.046
0.015
0.098
0.076
-0.042
-0.070
0.065
0.074
0.087
-0.102
0.106
-0.046
0.021
-0.006
0.109
-0.000
0.024
-0.007
-0.054
0.004
0.015
0.101
0.071
0.034
-0.023
-0.071
-0.017
0.057
0.014
-0.040
0.081
-0.007
-0.054
0.117
0.015
-0.008
-0.032
-0.018
0.108
-0.063
0.031
0.044
0.022
0.073
-0.049
0.036
-0.080
0.082
0.025
0.063
-0.021
0.074
-0.020
-0.057
0.042
0.037
-0.001
-0.003
0.070
0.027
0.057
0.013
-0.025
0.018
0.048
0.000
0.065
0.044
-0.007
0.044
0.057
-0.066
0.031
0.022
0.004
-0.011
0.102
0.127
-0.126
-0.064
0.028
0.079
0.134
-0.119
0.006
0.078
0.008
0.025
-0.028
0.064
-0.018
0.073
0.160
-0.048
0.026
-0.003
-0.018
0.008
0.032
-0.114
0.093
0.012
-0.000
-0.039
-0.011
0.010
0.017
0.066
0.039
0.014
0.036
-0.007
0.020
0.079
-0.045
0.046
0.062
0.046
-0.018
-0.030
0.096
0.050
0.022
0.024
-0.017
0.049
0.004
0.056
0.072
-0.081
-0.014
-0.013
0.053
0.084
0.004
-0.050
0.031
-0.009
0.053
0.079
-0.054
0.119
-0.062
-0.027
0.068
0.030
0.038
0.018
0.036
0.045
-0.033
0.037
0.093
0.032
0.018
0.008
-0.009
-0.007
0.024
0.048
0.013
-0.002
0.006
-0.003
-0.022
0.033
-0.018
0.109
0.040
0.089
0.031
0.049
0.028
0.055
0.061
-0.048
-0.056
0.031
0.081
0.003
0.035
0.044
0.007
-0.039
0.032
-0.005
0.074
0.018
-0.046
0.038
-0.037
0.003
-0.017
-0.009
0.116
0.023
0.039
-0.005
0.009
-0.013
0.040
-0.047
0.037
0.132
-0.009
-0.073
0.035
0.030
-0.005
-0.020
0.036
0.045
0.074
-0.006
-0.040
0.005
0.066
0.058
-0.074
0.098
0.131
-0.021
0.061
-0.043
-0.065
0.031
-0.032
0.007
-0.031
0.046
-0.045
0.063
-0.083
0.081
-0.031
-0.136
0.033
0.085
-0.013
0.033
0.056
0.013
-0.132
0.125
