0.070
0.072
-0.037
-0.091
0.031
-0.002
0.144
-0.053
0.058
0.031
0.033
0.071
0.011
-0.028
0.074
0.005
-0.104
0.128
0.122
-0.028
-0.113
0.019
-0.092
0.060
0.049
0.013
-0.085
0.090
0.031
0.004
-0.001
-0.019
0.010
0.103
-0.041
0.038
0.058
0.027
-0.006
0.188
0.035
-0.021
-0.010
0.015
-0.013
-0.016
-0.016
-0.000
0.060
0.048
0.003
0.026
-0.006
0.099
-0.001
0.054
0.015
0.034
0.052
0.033
-0.014
0.113
0.025
0.063
0.016
0.099
-0.074
-0.037
-0.045
0.081
0.005
0.145
-0.020
0.023
0.020
0.046
-0.022
0.037
-0.026
0.006
0.019
0.006
0.074
-0.001
-0.039
0.049
-0.002
0.100
-0.066
0.056
0.020
0.060
0.029
-0.057
0.014
0.053
0.008
0.087
0.043
0.089
0.009
-0.142
0.050
0.080
-0.027
0.029
0.014
0.039
0.003
0.084
-0.054
0.058
-0.099
0.037
0.136
-0.116
-0.056
0.026
0.101
0.077
-0.027
0.122
0.003
-0.036
0.027
0.070
-0.011
0.048
-0.083
-0.042
0.031
0.071
0.061
-0.007
0.006
-0.121
0.039
0.028
0.117
-0.065
0.089
0.047
-0.051
-0.054
0.181
0.086
0.089
-0.001
0.019
-0.022
0.056
-0.030
0.073
0.013
0.131
0.044
-0.016
-0.075
0.051
-0.007
0.108
0.060
0.036
0.062
-0.038
-0.002
-0.055
-0.022
0.043
-0.015
-0.044
0.124
0.112
0.014
0.020
0.007
-0.044
-0.004
-0.023
0.031
0.070
0.042
0.114
0.025
-0.031
-0.003
0.062
0.117
0.167
-0.002
-0.022
-0.020
0.071
-0.025
0.101
0.042
-0.065
0.003
0.082
0.097
0.051
-0.018
0.056
-0.008
-0.023
0.062
0.096
0.154
-0.037
-0.080
-0.011
-0.007
0.001
-0.026
0.052
-0.003
0.050
0.109
0.030
-0.081
-0.036
0.081
0.109
0.022
-0.016
-0.013
-0.042
0.120
0.046
0.008
0.070
0.052
-0.013
-0.029
-0.034
-0.008
0.051
0.019
0.107
-0.032
-0.031
0.054
0.067
-0.043
-0.002
0.202
-0.106
0.094
0.006
0.044
0.099
-0.041
0.092
0.075
0.090
0.082
0.101
-0.242
-0.039
0.111
0.058
0.144
0.059
-0.066
-0.041
0.027
-0.060
-0.007
0.118
-0.041
0.040
0.035
0.093
-0.014
-0.142
0.133
0.059
-0.016
-0.040
-0.021
0.015
0.094
0.023
-0.054
0.099
-0.017
0.078
0.101
-0.037
-0.061
-0.038
0.143
0.031
-0.006
0.171
-0.021
0.044
0.114
-0.060
0.000
0.020
0.066
0.068
-0.018
-0.092
-0.006
0.105
0.144
-0.018
-0.088
0.010
0.061
0.087
-0.006
0.086
0.003
-0.170
0.037
0.117
0.097
-0.004
-0.085
0.199
-0.015
-0.083
-0.136
0.068
-0.037
0.108
0.028
0.007
-0.090
-0.025
0.021
0.038
0.043
0.039
0.040
-0.081
-0.013
0.175
0.113
-0.021
0.014
-0.022
0.052
-0.015
0.039
0.047
0.156
-0.036
-0.013
0.034
0.012
0.020
0.068
0.065
-0.045
0.004
0.192
-0.029
0.015
-0.028
-0.010
0.055
-0.040
0.036
0.046
0.070
0.133
0.040
-0.083
0.095
-0.045
-0.063
-0.041
0.075
0.038
-0.084
0.101
0.063
0.018
-0.066
-0.005
0.101
0.103
-0.022
0.138
0.044
-0.079
0.073
0.060
-0.053
0.023
0.061
-0.021
-0.013
-0.003
-0.042
0.020
-0.006
0.017
0.011
0.034
0.116
-0.152
0.046
0.063
-0.045
0.070
-0.057
0.056
-0.045
-0.070
0.010
0.240
-0.077
-0.091
0.037
0.038
0.007
0.021
0.010
0.062
-0.007
-0.087
-0.096
0.131
0.043
0.050
0.026
-0.098
0.010
-0.109
0.045
0.072
-0.057
-0.009
0.066
0.004
-0.054
-0.004
0.041
0.048
-0.071
-0.038
0.169
0.020
-0.020
-0.007
0.019
-0.026
0.128
-0.026
-0.043
-0.148
0.101
-0.048
0.095
0.003
-0.067
0.049
0.018
-0.005
0.110
0.070
0.076
-0.017
-0.138
0.062
0.130
0.095
-0.024
0.062
-0.108
0.057
0.157
-0.090
-0.041
0.018
-0.027
0.050
0.139
0.009
-0.035
0.007
0.032
0.106
-0.002
-0.055
0.135
0.040
-0.093
0.019
0.147
0.057
-0.130
0.057
-0.080
-0.088
0.095
0.250
0.014
0.008
-0.072
0.096
0.072
-0.143
0.077
0.033
0.005
0.039
0.041
-0.023
-0.059
0.078
-0.039
0.022
0.034
-0.019
0.010
-0.048
0.069
0.017
0.060
-0.008
0.015
-0.069
0.068
0.120
-0.035
0.090
-0.001
-0.017
0.095
-0.036
-0.001
0.021
0.057
0.154
-0.074
-0.057
0.036
0.011
-0.098
0.007
0.048
0.079
0.008
0.023
-0.072
0.111
0.047
0.018
-0.112
0.046
0.067
0.035
0.012
-0.026
-0.003
0.040
0.038
-0.032
0.055
0.086
-0.062
0.062
-0.072
0.046
0.062
0.018
0.017
0.024
-0.027
-0.017
0.065
0.096
0.007
0.063
0.021
0.002
0.060
0.021
0.010
0.038
-0.113
0.132
0.072
0.003
0.049
0.028
0.071
0.054
-0.008
-0.023
0.038
-0.032
0.019
0.092
-0.051
0.052
0.012
0.131
-0.036
-0.015
-0.047
0.100
-0.001
0.050
0.002
-0.016
-0.035
0.003
0.070
0.065
0.061
-0.032
0.117
-0.126
-0.045
0.031
-0.051
0.188
-0.050
-0.112
0.032
0.126
-0.047
-0.127
0.100
0.117
-0.106
0.083
0.079
0.044
-0.015
-0.051
0.028
0.014
0.015
0.061
-0.029
0.053
0.058
-0.075
-0.027
0.026
0.151
-0.044
0.004
0.088
0.037
-0.050
0.062
0.010
-0.003
0.136
-0.035
-0.071
-0.031
0.096
0.036
-0.037
0.033
0.121
0.068
0.000
-0.033
-0.036
-0.045
0.005
-0.030
0.064
-0.006
0.092
-0.011
-0.061
-0.052
-0.023
-0.015
0.188
-0.004
-0.092
0.023
0.047
0.060
0.093
0.033
0.047
-0.083
0.160
-0.121
0.028
0.072
0.201
0.123
-0.091
0.022
0.005
-0.001
-0.026
-0.014
0.011
0.062
0.026
0.120
-0.078
-0.098
0.165
0.057
0.062
0.033
0.049
0.024
0.037
-0.067
0.125
0.049
0.081
0.046
-0.045
0.036
-0.039
-0.037
-0.094
0.027
0.011
-0.156
0.070
0.045
0.131
0.004
-0.039
-0.032
0.096
0.019
-0.044
0.018
0.107
-0.034
-0.029
0.118
-0.008
0.083
0.065
-0.009
-0.021
0.006
0.002
-0.037
0.109
-0.006
-0.038
0.088
0.050
0.026
0.118
0.045
0.088
0.013
0.007
0.038
0.021
0.059
0.023
-0.114
0.121
0.062
0.062
-0.051
0.030
0.000
-0.009
-0.061
0.077
0.045
-0.022
0.073
0.099
-0.042
0.055
-0.046
-0.098
-0.020
-0.020
0.065
-0.109
0.006
-0.031
0.063
0.236
-0.037
-0.034
0.056
-0.036
0.090
0.114
0.123
-0.104
0.036
-0.025
0.045
0.011
0.058
0.145
0.012
-0.153
0.059
0.110
-0.004
0.057
-0.004
0.116
-0.008
0.138
0.017
-0.083
0.102
0.102
-0.019
-0.101
0.041
0.005
0.083
0.017
-0.033
-0.031
0.039
0.058
-0.046
-0.124
0.093
0.043
-0.043
0.198
-0.140
-0.148
0.059
0.084
0.082
0.050
-0.074
-0.062
0.145
0.008
0.060
-0.005
0.025
0.031
0.118
0.045
0.048
-0.183
-0.000
0.076
-0.071
0.129
0.032
0.035
-0.019
0.029
0.008
0.117
-0.037
-0.048
0.111
0.039
0.061
-0.082
0.085
0.006
-0.020
0.030
0.070
0.033
-0.034
-0.021
-0.027
-0.019
-0.002
0.137
-0.078
-0.025
0.074
-0.035
-0.039
-0.117
-0.096
0.062
0.087
0.035
-0.038
-0.042
-0.023
-0.065
0.135
0.010
0.033
0.016
-0.030
0.092
-0.026
0.091
-0.065
0.013
-0.037
0.117
-0.056
0.040
-0.001
0.050
0.003
0.091
-0.027
0.114
-0.041
0.135
0.050
-0.053
-0.083
0.105
0.000
0.017
0.073
0.062
0.022
-0.017
0.024
-0.043
-0.073
-0.076
0.140
0.006
0.045
-0.069
0.007
-0.003
-0.048
-0.104
0.122
0.060
-0.052
0.044
-0.013
0.013
0.087
0.014
0.034
0.157
0.025
0.077
-0.069
0.058
0.081
0.022
0.161
0.110
-0.040
-0.006
-0.021
-0.071
-0.023
0.078
0.044
0.103
0.028
-0.055
0.032
0.024
0.024
0.021
0.025
-0.027
0.062
0.066
-0.003
0.030
0.044
0.069
-0.120
0.003
0.108
0.043
0.184
0.106
-0.091
0.043
-0.122
-0.003
0.079
0.027
0.078
0.054
0.012
-0.061
-0.067
0.034
-0.050
0.114
-0.068
-0.061
0.079
-0.054
0.056
0.101
-0.007
-0.003
-0.011
-0.015
0.190
0.073
-0.053
0.044
0.093
-0.055
0.112
0.002
-0.023
-0.054
-0.110
-0.005
0.081
-0.056
0.071
0.008
-0.049
-0.079
-0.002
-0.019
0.134
0.034
0.122
-0.105
-0.070
0.044
0.143
0.103
-0.047
-0.009
0.040
0.004
-0.048
0.047
0.083
-0.009
-0.024
-0.029
0.002
0.036
0.221
-0.067
-0.011
0.027
0.028
-0.032
-0.085
0.006
0.135
-0.076
0.002
0.035
-0.022
0.017
0.087
-0.102
0.051
0.046
0.071
0.039
-0.065
-0.032
0.030
-0.020
0.097
-0.011
0.128
-0.183
0.115
0.168
0.015
-0.013
0.004
-0.057
0.060
-0.045
0.030
0.113
0.016
0.006
-0.011
0.057
0.059
-0.004
0.020
0.064
-0.005
0.041
-0.026
-0.062
0.137
-0.030
-0.070
0.050
0.068
0.065
0.006
-0.029
0.034
-0.115
-0.103
-0.024
0.085
0.090
-0.027
0.033
-0.008
0.149
-0.005
0.042
-0.047
-0.024
0.134
0.009
-0.030
0.211
-0.014
-0.118
-0.005
0.016
0.135
0.051
-0.090
0.028
0.030
-0.023
-0.019
0.043
-0.013
-0.144
0.137
0.082
0.135
0.119
0.045
-0.091
-0.071
0.071
0.034
0.090
-0.047
-0.008
0.013
-0.086
0.110
0.135
-0.020
0.025
0.099
-0.147
-0.054
0.043
0.013
0.163
-0.032
0.002
0.091
0.021
0.128
-0.031
-0.013
0.030
-0.132
0.144
0.030
0.080
0.030
0.031
0.067
0.037
-0.056
0.076
0.011
-0.038
-0.024
0.080
0.023
0.060
0.045
-0.037
-0.010
0.061
-0.017
0.056
0.028
0.017
-0.006
0.111
0.069
0.110
-0.104
0.014
0.084
-0.032
0.013
0.031
-0.047
0.017
0.015
-0.063
0.063
0.114
-0.005
0.079
-0.034
0.005
0.005
0.015
0.133
0.170
-0.014
-0.068
0.062
0.044
0.096
-0.105
0.080
0.038
-0.046
0.030
-0.066
0.022
0.058
-0.044
-0.046
0.009
0.088
0.025
0.099
-0.093
-0.055
0.037
0.032
0.054
-0.012
0.135
0.075
-0.079
0.030
0.020
0.078
-0.083
-0.063
-0.006
-0.023
0.078
0.086
-0.019
0.056
-0.045
-0.066
0.078
0.012
0.025
0.023
0.052
-0.049
-0.015
0.069
0.052
0.057
0.109
0.058
0.034
-0.008
0.080
-0.037
-0.013
-0.091
0.117
0.035
0.073
0.029
-0.015
0.012
0.101
-0.071
-0.052
-0.039
-0.059
0.015
0.132
-0.034
0.010
0.010
0.007
0.069
-0.075
0.164
-0.016
-0.017
-0.069
0.012
-0.002
0.074
-0.091
0.007
0.017
0.149
0.025
-0.050
-0.039
0.049
0.119
-0.011
0.074
0.017
0.054
0.009
-0.104
-0.009
0.064
0.042
0.034
-0.000
0.198
0.059
-0.005
-0.000
-0.073
-0.024
0.015
0.047
0.095
-0.023
-0.007
-0.038
0.085
0.065
0.098
-0.027
-0.005
-0.107
-0.005
-0.055
0.112
0.026
-0.008
-0.095
0.054
-0.016
0.034
0.131
0.106
-0.022
0.012
-0.022
-0.010
0.043
0.017
-0.055
-0.013
0.008
0.104
0.155
-0.041
-0.022
0.015
-0.071
0.113
0.112
0.008
0.003
0.005
0.070
-0.051
-0.010
-0.074
-0.029
-0.000
0.002
0.014
0.021
0.113
0.059
-0.021
0.015
0.014
-0.045
-0.022
0.051
0.129
0.056
0.067
0.073
-0.049
0.016
-0.001
-0.003
-0.124
0.156
0.030
0.128
-0.030
0.121
0.032
-0.010
-0.005
-0.035
-0.008
-0.005
-0.010
-0.068
0.111
0.062
0.025
-0.121
0.029
0.030
-0.024
0.064
0.047
-0.101
-0.011
0.002
-0.019
0.145
0.043
-0.063
0.031
0.003
0.106
0.033
0.013
0.082
-0.070
0.016
-0.087
0.098
0.062
-0.085
0.096
0.005
0.065
-0.016
0.009
-0.000
-0.015
0.026
0.019
0.024
0.012
0.021
0.031
-0.046
-0.080
0.124
0.088
0.057
0.059
-0.096
-0.120
0.126
0.086
-0.019
-0.024
-0.036
0.013
0.192
0.044
-0.112
0.054
-0.060
0.059
0.063
0.011
-0.039
0.022
0.015
-0.005
-0.026
0.101
0.110
0.053
0.027
-0.117
-0.062
-0.069
0.136
0.035
-0.060
0.031
0.032
-0.045
0.150
0.028
-0.085
0.062
0.036
0.072
-0.040
0.052
-0.012
0.024
0.004
0.149
0.019
-0.096
-0.040
0.088
0.060
-0.022
-0.022
-0.040
-0.047
-0.029
0.052
0.142
-0.045
0.095
-0.089
-0.078
0.044
0.131
0.081
0.108
-0.027
-0.020
0.051
0.078
0.013
-0.064
0.095
0.096
0.025
-0.020
-0.018
0.037
0.002
0.061
0.029
-0.086
-0.095
0.126
0.054
-0.084
0.025
0.008
0.062
-0.086
0.032
0.020
0.030
0.053
-0.069
-0.003
0.033
0.042
0.124
-0.044
0.042
0.046
-0.035
0.029
-0.025
-0.026
0.172
-0.069
0.019
-0.014
-0.005
0.001
0.064
-0.029
0.156
-0.027
0.003
-0.038
0.012
-0.008
0.073
0.103
0.094
-0.035
0.065
-0.038
-0.052
0.080
0.017
0.041
-0.058
0.042
0.026
-0.008
0.071
-0.012
-0.083
0.132
0.054
-0.046
0.003
0.070
-0.068
0.117
-0.042
-0.018
0.133
0.000
0.092
0.104
-0.048
-0.018
-0.020
0.034
-0.013
0.029
-0.043
0.146
-0.080
-0.119
0.025
0.116
0.151
-0.065
-0.149
0.049
0.053
0.088
0.002
0.011
0.041
0.052
-0.019
0.014
-0.016
0.090
-0.011
0.049
-0.018
-0.046
0.084
0.001
-0.057
0.091
0.056
0.038
0.029
-0.070
0.094
0.032
0.009
-0.057
-0.039
0.084
0.045
0.027
-0.135
0.077
0.054
0.050
0.053
0.010
0.039
-0.079
-0.095
0.176
0.079
-0.062
-0.090
0.002
0.044
0.083
-0.157
0.158
-0.058
0.016
0.087
-0.019
0.110
0.080
-0.030
0.012
-0.027
0.111
0.078
0.013
0.007
-0.017
0.025
-0.086
0.011
0.077
0.032
0.031
-0.003
0.133
-0.019
0.027
0.062
-0.035
0.038
-0.072
0.077
-0.024
0.075
0.016
-0.054
-0.023
-0.028
-0.020
0.072
-0.040
-0.013
-0.002
0.073
0.044
0.040
0.017
0.114
0.058
-0.111
0.114
0.137
-0.087
0.034
0.028
0.090
-0.091
0.138
0.016
-0.101
0.100
-0.012
0.057
0.042
0.058
0.118
0.059
0.022
0.028
0.087
-0.036
0.003
-0.036
0.045
0.049
0.030
0.004
0.073
0.020
0.011
0.061
-0.048
0.082
-0.032
-0.040
0.023
0.002
-0.081
0.056
0.026
0.055
0.032
0.104
0.009
-0.069
0.065
-0.070
-0.001
0.091
0.024
0.101
0.037
-0.069
-0.002
-0.025
0.021
0.184
0.029
-0.100
0.101
0.125
-0.013
0.025
0.122
0.075
0.016
-0.016
0.035
0.063
0.008
0.048
-0.061
0.108
0.031
0.145
0.042
-0.052
0.026
0.049
-0.024
0.010
0.056
0.128
-0.035
-0.000
-0.092
0.035
0.033
0.032
-0.002
0.062
-0.018
-0.088
0.131
-0.027
0.082
-0.024
0.077
-0.039
0.155
-0.036
-0.035
0.032
0.120
0.076
0.007
-0.043
0.071
0.108
-0.012
0.145
0.003
-0.064
-0.071
0.082
0.064
0.016
-0.063
-0.041
0.042
0.063
-0.025
-0.024
0.169
0.056
0.167
0.033
0.089
-0.051
0.029
-0.078
0.073
0.038
0.058
-0.044
0.055
0.036
0.039
0.096
0.096
0.017
0.037
-0.098
-0.017
0.031
0.053
-0.100
0.035
0.042
0.153
0.025
-0.025
-0.117
-0.063
0.144
0.057
-0.026
0.075
-0.008
0.017
-0.047
0.007
0.045
0.041
-0.045
-0.029
0.078
0.103
0.010
0.009
0.124
-0.034
-0.025
0.088
-0.010
0.064
-0.094
0.042
0.138
-0.083
0.137
0.061
-0.033
-0.002
0.033
0.044
0.112
-0.004
-0.025
0.039
-0.012
0.057
0.037
0.007
-0.022
0.045
0.001
0.011
0.022
0.128
-0.037
-0.098
0.136
0.089
-0.021
0.054
-0.039
-0.050
0.080
0.064
0.091
-0.005
0.003
-0.097
-0.010
0.018
0.117
-0.121
0.094
0.037
0.017
-0.091
0.024
0.070
0.088
-0.028
0.038
0.075
0.015
0.127
0.081
-0.005
0.014
0.070
0.063
0.053
0.142
0.079
-0.041
-0.059
0.066
0.061
0.153
0.019
-0.049
0.069
-0.082
-0.043
0.033
0.150
0.089
-0.118
-0.079
-0.006
0.102
0.165
0.102
-0.159
-0.005
0.017
-0.002
0.013
0.015
0.086
0.188
0.028
-0.039
0.052
-0.036
0.032
0.088
-0.124
0.093
0.047
0.019
-0.024
0.107
0.056
-0.039
0.044
-0.085
0.057
0.167
-0.033
0.010
-0.052
0.045
-0.009
0.103
0.004
0.096
0.001
-0.049
0.105
0.088
0.011
0.119
-0.013
0.049
-0.040
0.071
-0.005
-0.004
0.101
-0.103
0.016
0.004
-0.156
0.159
-0.056
0.042
0.021
0.042
0.066
-0.063
-0.048
-0.021
0.117
-0.032
-0.052
0.096
0.060
0.107
0.036
-0.027
0.056
-0.042
0.156
0.016
-0.049
-0.064
0.078
-0.071
0.003
0.050
0.083
0.039
-0.008
-0.051
0.084
-0.034
0.025
-0.027
0.029
0.018
0.052
0.015
0.010
0.119
-0.027
-0.124
-0.037
0.153
-0.085
0.038
-0.040
0.124
0.056
0.059
-0.027
0.098
0.074
-0.049
0.015
0.096
-0.014
-0.038
0.023
-0.048
-0.036
0.053
0.004
-0.033
0.124
-0.053
0.084
0.026
0.136
0.052
-0.001
-0.115
0.054
0.034
0.040
-0.148
0.035
0.133
0.016
0.021
-0.017
0.033
-0.001
0.029
0.091
0.043
-0.003
0.002
-0.123
0.103
0.081
0.113
-0.025
-0.095
0.062
-0.036
0.047
0.063
-0.013
-0.029
0.078
-0.044
0.060
0.136
0.099
0.027
-0.010
-0.034
0.067
-0.045
0.031
-0.097
0.035
-0.100
0.138
0.044
0.069
0.020
-0.015
0.032
0.044
0.035
-0.008
-0.011
-0.005
0.084
0.004
-0.029
-0.044
-0.080
0.037
0.077
-0.035
0.051
0.077
0.022
-0.010
0.007
0.087
-0.058
-0.014
0.106
0.049
-0.011
-0.025
0.054
-0.097
0.034
0.031
0.101
-0.026
-0.042
0.003
0.036
0.166
0.076
-0.084
-0.021
0.105
0.024
-0.008
-0.088
0.062
-0.041
0.137
-0.036
-0.068
-0.105
0.077
0.144
0.026
-0.067
-0.104
0.023
0.023
0.091
0.044
-0.043
-0.014
0.027
0.013
0.061
0.078
0.009
0.037
0.053
-0.013
-0.087
-0.044
0.098
0.057
0.031
0.035
0.038
0.005
0.001
0.064
0.002
0.079
-0.045
-0.058
-0.026
0.049
0.021
0.136
0.080
-0.045
0.118
0.076
0.130
-0.038
0.010
0.027
0.110
0.051
0.095
-0.070
0.012
0.006
-0.010
-0.112
0.129
0.032
0.017
-0.004
0.020
0.096
0.061
0.097
-0.097
-0.006
0.004
-0.044
-0.062
0.112
0.041
0.039
0.055
0.049
-0.202
0.020
0.196
0.128
0.006
-0.003
0.064
0.017
0.048
-0.016
-0.020
-0.076
0.070
0.132
-0.076
-0.084
0.056
0.060
0.093
-0.004
0.075
0.088
-0.054
-0.035
0.027
0.061
0.031
0.065
-0.077
0.050
0.052
0.022
0.031
-0.019
0.036
0.002
0.107
0.155
0.042
-0.024
-0.033
0.019
0.150
-0.027
0.031
0.046
0.062
-0.042
0.035
0.037
0.017
0.024
-0.010
0.109
0.008
-0.003
0.010
-0.089
0.042
0.050
0.063
0.039
-0.036
-0.022
0.148
-0.057
0.063
0.070
0.009
0.025
-0.036
-0.073
0.202
0.071
-0.007
0.033
-0.023
-0.006
0.017
0.122
0.026
0.028
0.120
0.065
0.049
0.015
-0.030
-0.001
0.047
0.062
0.038
0.116
-0.051
0.095
0.004
-0.035
0.142
-0.072
0.036
0.108
-0.100
0.096
-0.015
0.099
0.121
0.024
-0.031
0.001
0.133
0.056
-0.101
0.047
-0.012
-0.077
0.139
0.057
-0.107
-0.142
0.094
0.034
0.015
0.091
-0.066
-0.029
0.071
-0.008
-0.067
0.019
0.106
-0.019
0.088
-0.018
-0.074
-0.049
0.094
0.006
0.080
-0.016
-0.190
-0.040
0.120
0.081
0.022
-0.056
0.049
0.055
0.038
0.031
-0.028
0.043
0.089
0.043
-0.017
-0.044
0.056
0.007
0.177
-0.039
0.017
-0.044
-0.006
0.090
0.022
0.084
0.072
0.006
-0.095
-0.045
-0.002
0.076
0.017
0.038
0.029
0.112
-0.171
-0.027
-0.038
0.085
0.025
-0.071
-0.019
-0.039
0.051
0.008
0.114
-0.009
0.080
-0.024
-0.087
0.057
0.068
0.035
0.116
0.139
0.025
0.038
-0.006
-0.038
-0.098
0.064
0.050
0.011
0.040
0.071
0.061
0.052
0.088
-0.037
-0.072
0.112
-0.009
-0.025
0.106
0.017
0.068
0.038
0.045
0.003
-0.068
-0.001
-0.007
0.034
0.068
-0.074
0.090
-0.042
0.104
-0.005
-0.124
-0.054
0.068
0.075
0.087
0.104
-0.035
0.033
-0.045
0.020
-0.019
0.086
0.041
-0.049
-0.012
0.051
-0.049
-0.096
0.126
0.034
0.116
0.034
0.080
-0.031
-0.098
-0.034
0.069
0.069
0.079
0.047
-0.014
-0.059
0.091
0.089
-0.110
-0.017
0.035
-0.064
0.085
0.126
0.006
0.035
0.105
0.024
0.002
-0.046
0.010
0.009
-0.001
-0.000
0.018
0.028
-0.133
0.033
-0.052
0.095
0.127
-0.064
0.032
-0.063
0.065
0.057
0.039
-0.052
-0.125
0.174
0.069
0.033
-0.043
0.069
0.016
0.081
-0.000
-0.031
0.031
0.032
0.101
-0.022
-0.010
-0.124
0.092
0.158
0.029
-0.101
0.115
-0.139
-0.024
0.068
0.011
-0.084
-0.068
0.047
0.046
0.027
0.023
0.031
0.045
0.000
0.148
0.015
-0.038
-0.011
0.092
0.027
-0.014
0.164
0.049
0.057
-0.013
-0.030
-0.045
0.024
0.021
0.057
-0.039
-0.072
0.058
0.048
0.053
-0.017
0.128
-0.072
0.001
0.018
-0.037
0.079
-0.068
0.050
-0.024
-0.080
0.093
0.007
0.014
0.010
0.035
0.055
0.021
0.148
0.045
0.005
-0.001
0.008
0.109
-0.106
0.053
0.034
-0.007
-0.074
0.097
0.044
-0.007
0.094
0.046
-0.028
0.081
-0.032
0.013
-0.018
0.046
0.051
0.024
-0.006
0.100
0.093
0.042
0.034
-0.038
0.026
0.080
0.019
-0.067
0.029
0.035
-0.030
0.085
0.113
0.048
-0.014
-0.026
-0.011
-0.018
0.016
-0.106
0.002
-0.020
0.063
0.031
-0.026
0.127
0.017
0.054
0.073
0.082
-0.060
0.023
-0.038
0.025
0.094
0.058
0.037
0.011
0.043
0.052
0.005
0.036
0.071
0.057
0.005
-0.038
0.016
0.033
-0.054
0.100
0.098
0.014
-0.071
0.061
0.002
-0.022
0.064
0.041
-0.007
0.036
0.006
0.010
0.093
0.017
-0.002
0.052
0.072
0.081
-0.043
0.068
-0.119
0.051
0.037
-0.009
0.011
0.127
0.113
-0.037
-0.051
0.042
0.022
-0.056
0.071
0.007
0.090
0.002
0.010
0.035
-0.071
0.094
0.109
-0.009
0.010
-0.028
0.067
-0.005
-0.005
-0.019
0.014
0.134
-0.055
-0.067
-0.014
-0.050
0.074
0.019
-0.001
0.024
0.075
0.008
-0.072
0.021
0.040
-0.012
0.093
-0.020
0.035
0.011
0.056
-0.105
0.042
0.038
-0.018
0.008
-0.135
0.007
0.118
0.057
-0.065
-0.103
-0.003
0.125
-0.006
0.066
0.090
-0.020
-0.175
0.027
-0.057
0.094
0.055
0.032
0.040
0.130
-0.027
-0.038
-0.013
-0.056
0.070
0.031
0.043
0.066
0.085
-0.172
0.101
-0.086
0.058
0.048
0.144
-0.035
0.026
-0.065
0.126
-0.029
0.135
-0.176
0.054
-0.047
-0.053
0.132
0.100
-0.020
-0.037
-0.015
0.054
-0.006
0.078
0.038
0.076
-0.016
0.116
0.151
-0.017
-0.013
-0.016
0.102
-0.008
-0.048
0.101
0.078
-0.023
0.036
0.058
0.033
-0.096
-0.069
0.129
0.139
0.023
0.139
-0.033
-0.110
0.130
0.126
0.072
0.067
-0.045
0.041
0.070
-0.041
-0.038
0.053
0.006
0.056
-0.038
0.022
0.021
-0.055
0.097
0.005
0.039
0.074
-0.118
-0.050
-0.030
-0.002
0.122
0.081
0.083
-0.069
0.028
0.060
0.060
-0.043
0.009
0.084
-0.007
0.008
0.025
0.031
-0.008
0.019
-0.043
-0.015
0.039
-0.034
0.001
0.005
0.086
-0.001
0.091
-0.031
0.042
0.037
-0.026
0.074
0.044
0.029
0.026
0.047
0.049
-0.034
-0.055
0.089
0.015
-0.079
-0.011
0.030
0.154
-0.103
0.026
0.053
0.024
0.050
0.058
-0.006
0.018
-0.017
0.005
0.044
0.060
-0.069
0.090
-0.035
-0.031
0.066
-0.030
0.136
-0.042
0.130
0.014
-0.129
0.036
0.045
0.026
-0.029
0.008
0.056
0.161
-0.074
-0.100
0.132
0.057
0.021
-0.000
-0.027
-0.066
0.002
0.113
0.005
0.115
0.031
0.019
-0.046
0.055
0.020
0.129
0.085
-0.016
0.130
-0.063
0.021
0.145
-0.058
-0.048
-0.036
0.023
-0.017
0.150
0.068
0.052
-0.039
0.003
0.010
0.027
-0.086
0.019
0.020
-0.016
0.026
-0.032
0.101
0.005
0.002
0.015
-0.008
-0.092
0.066
0.092
-0.004
-0.115
-0.001
0.122
0.029
-0.001
0.062
-0.025
0.017
0.012
-0.056
-0.012
0.124
0.074
0.049
-0.021
0.024
0.025
0.148
0.005
-0.048
0.022
-0.003
-0.043
-0.071
0.005
0.014
0.111
0.004
0.004
0.102
0.002
0.023
-0.021
0.054
0.028
0.043
-0.067
-0.074
0.067
0.163
0.153
-0.119
-0.091
-0.054
0.100
0.035
0.057
0.016
-0.060
0.013
0.001
-0.006
0.013
-0.156
0.020
0.157
-0.017
0.035
0.010
-0.053
0.034
0.003
0.092
0.080
0.008
-0.055
0.050
0.008
0.153
-0.124
-0.011
0.039
0.111
0.004
-0.036
0.031
-0.039
0.037
-0.009
-0.098
0.078
0.021
-0.017
-0.017
0.073
0.068
-0.036
0.018
0.038
0.049
0.071
-0.060
0.024
0.033
0.118
-0.140
0.027
-0.032
0.034
0.102
0.141
-0.092
0.046
0.025
0.022
0.058
0.038
0.018
0.038
-0.029
0.024
-0.042
0.084
-0.075
0.051
0.053
-0.040
0.066
0.066
-0.083
0.025
-0.024
0.064
0.058
0.055
0.039
-0.029
0.101
-0.011
-0.003
0.035
0.025
0.143
0.025
-0.019
-0.037
0.005
0.019
0.071
0.029
-0.021
0.178
-0.043
0.061
-0.042
-0.001
0.023
-0.090
0.084
0.074
0.099
0.024
-0.078
-0.014
0.026
0.105
-0.009
0.026
-0.007
0.159
-0.010
-0.008
0.069
0.133
0.069
-0.060
0.134
0.122
0.013
-0.071
-0.044
-0.081
0.149
0.009
0.027
-0.003
-0.004
-0.020
0.084
0.111
-0.088
0.073
0.116
0.007
-0.077
0.047
0.074
0.072
0.071
0.007
-0.028
0.027
0.125
-0.083
-0.064
0.216
0.001
0.017
-0.021
-0.010
-0.044
0.056
0.067
-0.016
-0.028
0.020
-0.009
0.080
-0.006
-0.033
0.060
0.096
-0.041
-0.007
0.106
0.169
-0.050
-0.082
-0.040
0.067
0.119
0.104
0.165
-0.074
0.021
0.023
-0.068
0.102
-0.000
0.103
-0.036
-0.014
0.027
-0.037
0.036
0.091
0.007
0.089
0.016
0.046
-0.059
0.034
-0.033
0.083
0.064
0.036
0.096
-0.087
0.068
-0.032
0.050
0.022
0.078
-0.025
0.113
-0.052
0.065
-0.002
-0.027
0.013
-0.087
-0.054
0.085
0.138
0.051
-0.011
-0.059
-0.085
0.091
0.010
-0.009
0.074
-0.104
0.101
0.068
0.059
0.168
0.215
-0.104
-0.141
0.005
0.125
0.118
-0.003
-0.032
-0.005
-0.015
0.155
0.027
0.011
0.012
0.051
0.064
-0.050
-0.080
0.054
-0.066
0.006
0.024
0.078
0.102
0.022
-0.015
0.060
0.109
0.016
0.061
-0.010
-0.135
0.035
0.077
0.026
-0.061
-0.017
0.036
-0.030
0.101
0.089
-0.042
0.090
-0.005
0.002
0.083
-0.032
0.071
-0.068
0.086
0.053
0.025
0.005
0.004
-0.003
0.075
-0.033
0.024
-0.022
-0.011
0.026
0.110
-0.033
-0.035
0.000
0.124
0.031
-0.001
-0.029
0.056
0.080
0.137
-0.015
-0.076
0.049
-0.013
0.046
-0.046
0.005
-0.055
0.138
0.095
0.051
0.014
0.050
0.032
-0.001
-0.007
0.028
-0.004
0.095
0.006
0.060
-0.055
0.000
0.014
0.023
-0.020
0.035
-0.061
-0.031
0.074
0.057
0.152
0.009
-0.077
0.002
-0.043
0.114
0.032
0.052
0.081
0.057
-0.083
0.012
-0.051
0.009
0.103
-0.003
0.008
0.055
0.078
-0.002
-0.042
-0.022
0.042
-0.041
0.011
0.141
-0.064
-0.101
-0.009
0.091
-0.007
0.057
0.046
-0.030
0.103
0.021
-0.006
0.010
0.173
-0.067
0.042
-0.055
0.156
0.064
0.024
-0.017
-0.082
-0.056
0.056
-0.001
0.079
0.030
0.007
0.062
-0.124
0.051
0.066
0.002
-0.025
-0.059
0.101
-0.059
0.107
0.110
-0.042
0.008
0.128
0.021
-0.161
0.068
0.085
-0.031
-0.017
-0.021
0.066
0.083
0.050
-0.039
0.059
0.088
-0.011
0.010
0.124
-0.048
0.017
-0.005
0.103
-0.096
-0.075
0.096
0.017
0.047
-0.061
0.145
0.020
-0.072
-0.018
-0.022
0.095
0.122
0.037
0.071
0.004
0.023
0.028
0.135
0.005
-0.049
0.086
0.123
-0.031
-0.036
0.008
-0.037
-0.002
0.063
-0.084
0.059
0.023
0.045
0.069
0.042
0.149
0.024
-0.064
-0.133
0.193
0.124
-0.006
0.081
-0.085
0.036
-0.021
0.072
0.026
-0.071
0.106
-0.014
-0.023
-0.089
0.190
-0.066
-0.040
0.078
0.065
0.111
-0.073
-0.010
-0.005
0.010
0.036
0.052
0.074
-0.042
-0.026
0.061
0.047
0.030
-0.015
0.048
-0.007
0.160
-0.068
0.095
0.095
0.058
-0.012
-0.004
0.045
0.044
-0.006
-0.061
-0.011
0.199
-0.085
-0.029
0.098
-0.104
0.067
0.089
0.025
0.038
0.102
0.043
-0.038
-0.024
0.058
-0.015
-0.053
0.197
-0.030
0.032
0.036
0.020
0.098
0.035
-0.070
0.004
0.077
-0.028
0.095
-0.013
0.109
0.058
0.030
-0.040
0.079
-0.021
-0.081
-0.053
0.159
0.072
0.017
0.038
0.048
-0.009
-0.010
0.093
0.005
0.035
0.030
0.019
-0.000
0.017
0.038
0.116
0.018
-0.014
-0.140
0.045
0.131
0.023
0.028
-0.113
0.199
0.129
-0.129
-0.101
0.016
0.073
-0.034
0.061
-0.024
-0.039
0.042
0.127
0.024
0.026
-0.145
-0.052
0.064
0.047
0.059
0.017
-0.000
0.057
0.034
0.079
-0.032
0.007
0.004
0.057
0.006
-0.054
-0.006
0.074
-0.051
0.051
0.143
-0.023
-0.081
-0.051
0.063
0.036
0.128
0.120
0.023
-0.103
0.118
0.033
-0.022
0.026
0.051
0.070
-0.044
0.003
-0.063
0.094
0.095
-0.064
-0.037
0.040
0.044
0.102
-0.097
-0.134
0.007
0.135
0.057
0.022
0.005
-0.034
0.036
0.051
0.069
-0.134
-0.069
0.160
0.081
0.150
0.004
0.030
0.065
0.037
-0.097
0.045
0.050
0.124
0.008
0.033
-0.008
0.001
0.100
0.080
0.065
0.010
-0.013
0.011
-0.053
0.124
0.064
0.108
0.006
0.020
-0.010
0.013
0.068
0.080
-0.015
0.035
-0.055
0.076
0.185
0.008
-0.084
-0.099
0.032
0.000
0.012
-0.004
0.019
0.007
0.144
-0.123
0.004
0.070
0.114
-0.027
0.005
0.069
0.065
-0.231
0.082
-0.014
0.159
0.021
-0.015
0.009
-0.110
0.034
0.080
0.179
-0.023
-0.077
0.100
-0.016
0.088
0.015
0.036
0.163
-0.056
0.003
0.120
0.085
-0.041
-0.044
0.039
-0.036
0.045
0.031
-0.033
0.181
-0.084
-0.016
-0.036
-0.013
-0.149
0.057
0.080
0.117
0.021
-0.067
0.013
-0.048
0.049
-0.001
0.039
0.018
0.029
-0.014
-0.003
-0.058
0.084
0.083
0.056
-0.015
-0.011
0.021
0.012
-0.032
0.078
-0.023
-0.050
0.004
-0.003
-0.020
0.148
-0.027
0.086
-0.072
0.142
0.007
0.027
0.036
0.109
-0.037
-0.069
0.015
0.033
0.084
0.100
-0.042
-0.020
-0.021
-0.144
0.099
0.010
0.087
0.072
0.048
-0.148
0.083
0.029
0.037
0.078
-0.065
-0.007
0.132
0.091
-0.055
-0.077
0.113
0.043
-0.070
0.057
0.042
0.092
0.104
0.023
-0.078
0.081
0.049
0.002
0.132
0.064
0.001
0.078
-0.049
-0.089
0.015
0.097
0.025
0.048
0.123
0.149
-0.075
-0.021
-0.018
0.047
0.059
0.076
-0.051
0.054
0.071
0.022
0.065
0.121
-0.094
0.014
0.079
0.030
-0.108
0.100
0.015
0.088
-0.047
0.086
0.125
0.126
0.058
-0.070
-0.052
-0.020
0.070
0.014
0.048
0.150
0.051
-0.019
-0.060
0.015
0.045
0.101
-0.055
0.111
0.006
0.023
-0.017
0.106
0.012
-0.052
-0.080
0.127
0.040
0.070
0.022
0.044
-0.101
-0.016
0.147
-0.019
0.029
0.083
-0.023
-0.029
-0.021
0.088
-0.031
0.044
0.067
-0.107
-0.075
0.033
0.064
0.084
-0.067
-0.020
-0.077
0.020
0.016
-0.016
0.037
0.052
0.087
0.015
-0.049
-0.089
0.085
0.077
0.105
-0.032
-0.042
-0.066
0.049
0.082
0.135
-0.010
0.033
-0.055
0.019
-0.026
-0.084
-0.015
0.057
0.039
0.090
0.073
-0.051
-0.076
-0.068
-0.113
0.151
0.006
0.132
-0.018
-0.047
0.072
0.060
0.027
-0.038
-0.022
-0.034
0.157
-0.017
-0.005
-0.045
0.169
-0.121
-0.137
-0.020
0.099
0.069
0.061
0.090
0.066
0.077
0.034
-0.070
-0.024
-0.042
0.035
0.105
0.162
-0.081
0.040
0.068
-0.016
0.082
-0.023
-0.024
-0.042
0.102
0.112
0.018
-0.182
0.027
0.139
0.196
-0.062
-0.050
-0.008
0.064
0.058
-0.041
0.109
-0.035
0.084
-0.035
0.116
-0.009
0.054
-0.019
-0.108
0.103
0.093
0.056
-0.035
-0.138
-0.070
0.195
-0.029
0.058
0.106
-0.004
-0.070
-0.127
0.043
-0.005
0.127
0.131
0.104
0.045
-0.106
0.092
0.040
0.090
-0.009
-0.053
0.073
0.158
0.125
-0.037
-0.155
0.051
-0.070
0.063
0.101
0.078
-0.035
0.092
0.009
-0.100
0.049
0.133
-0.008
0.113
0.007
0.018
-0.052
0.059
0.111
-0.063
0.070
-0.043
0.006
0.039
-0.007
0.036
0.086
0.005
0.117
-0.041
-0.034
-0.069
0.049
0.074
-0.043
0.067
0.042
0.031
-0.111
0.071
0.081
-0.010
0.147
-0.097
0.025
-0.070
-0.057
0.057
0.067
0.088
0.018
0.089
0.011
0.103
0.009
0.082
0.050
0.053
0.002
0.053
0.020
0.058
-0.042
0.107
0.064
-0.096
-0.011
0.006
0.057
0.038
-0.043
0.060
-0.016
0.035
0.111
-0.033
0.010
-0.042
-0.094
0.138
0.071
-0.002
-0.091
0.001
0.095
0.087
0.149
-0.039
0.040
0.083
-0.030
0.014
-0.039
0.002
0.087
0.022
-0.057
0.025
0.081
0.122
-0.022
-0.011
0.025
0.031
-0.005
0.092
0.013
-0.078
0.149
0.003
-0.000
-0.003
0.102
0.018
0.013
-0.052
-0.066
0.076
0.023
0.062
-0.031
0.007
-0.011
0.160
0.000
-0.123
0.017
0.064
0.148
0.058
0.092
-0.057
-0.080
0.077
0.009
0.041
0.076
-0.016
-0.021
-0.117
0.198
0.033
0.097
0.044
-0.119
0.076
0.111
-0.050
-0.029
0.076
0.007
0.032
0.081
0.005
0.022
-0.101
0.033
0.063
0.046
-0.076
0.048
-0.024
0.040
0.085
-0.092
0.066
-0.052
-0.036
0.094
0.098
0.009
0.037
-0.029
-0.005
-0.003
0.046
0.086
-0.003
0.007
-0.017
0.048
0.062
0.004
0.011
0.030
0.026
-0.003
0.080
-0.013
0.030
0.009
-0.019
0.205
0.089
-0.060
0.089
0.043
-0.028
-0.036
0.057
0.089
0.101
-0.076
-0.048
0.086
0.108
-0.076
0.014
0.019
0.070
0.053
0.025
-0.045
0.174
-0.002
-0.006
0.028
-0.060
-0.024
0.035
0.100
0.058
0.095
-0.009
0.012
0.007
0.107
0.004
-0.055
-0.080
0.094
0.085
-0.015
0.017
0.041
-0.023
0.027
0.100
-0.043
-0.086
-0.025
0.096
0.073
-0.005
0.020
-0.083
-0.002
0.057
0.065
0.083
0.101
0.019
-0.054
-0.001
-0.005
0.051
0.071
-0.012
0.068
0.105
-0.089
-0.016
0.096
0.031
-0.064
0.107
-0.037
0.040
-0.043
0.017
0.006
0.052
0.001
-0.061
0.102
0.014
-0.041
0.072
-0.068
-0.017
0.054
-0.016
0.060
-0.023
-0.016
0.052
0.055
-0.017
0.010
0.071
-0.073
-0.063
0.149
0.058
-0.003
0.014
0.073
0.034
0.009
0.065
0.066
-0.012
0.055
-0.051
0.030
0.038
0.075
0.130
-0.017
-0.027
-0.002
0.004
0.085
0.090
-0.005
0.045
0.086
-0.036
0.051
0.071
0.008
0.126
-0.074
-0.042
0.087
0.002
-0.007
-0.075
0.093
0.012
-0.098
0.034
0.094
-0.010
0.030
-0.054
-0.003
0.132
-0.008
0.087
0.043
-0.015
0.023
0.059
0.091
0.063
0.058
0.060
0.078
-0.031
-0.014
0.011
-0.020
0.070
0.134
0.000
-0.015
-0.011
0.175
-0.061
-0.019
-0.046
-0.018
0.072
0.052
0.077
-0.029
0.005
0.033
0.016
-0.045
-0.100
-0.013
0.046
0.074
-0.025
-0.060
-0.050
-0.090
0.082
0.159
0.104
0.034
0.003
-0.040
-0.087
-0.040
0.144
-0.026
0.096
0.081
-0.063
0.007
0.073
0.030
0.045
0.063
0.033
-0.032
0.013
0.000
-0.027
0.056
-0.016
-0.008
-0.030
0.274
0.151
-0.136
-0.081
0.102
-0.069
0.016
0.091
-0.004
0.030
0.013
0.004
-0.045
0.039
0.088
-0.055
-0.032
0.094
0.092
-0.076
0.034
-0.016
0.054
-0.037
0.102
0.045
-0.006
0.060
0.146
-0.005
0.056
0.002
0.100
-0.032
0.029
0.068
-0.002
-0.083
-0.078
0.039
-0.092
0.078
0.125
0.124
-0.126
-0.045
-0.003
0.128
0.125
0.035
0.077
-0.035
0.008
0.043
0.137
-0.150
-0.057
-0.024
0.142
0.145
0.021
0.032
-0.042
-0.019
0.105
-0.015
0.099
0.012
-0.010
-0.019
0.042
-0.051
-0.000
0.034
-0.007
0.068
-0.005
0.030
-0.061
0.046
-0.030
-0.004
-0.020
0.204
0.065
-0.029
0.012
0.112
0.072
-0.041
-0.108
0.088
0.079
-0.016
0.035
0.029
0.005
0.036
0.062
0.052
-0.017
-0.125
0.021
0.043
0.004
0.070
-0.006
0.030
0.063
-0.047
0.025
0.087
0.020
0.038
0.007
0.003
-0.110
-0.002
0.110
0.020
0.062
-0.015
-0.012
-0.006
0.030
0.145
-0.055
0.118
-0.022
0.122
0.074
-0.036
-0.036
-0.012
0.018
0.009
-0.057
-0.001
0.065
0.029
0.119
-0.034
-0.001
-0.050
0.080
-0.090
-0.068
0.103
0.109
-0.026
0.053
0.035
0.031
-0.027
0.137
0.020
-0.061
-0.086
0.100
0.128
0.026
-0.017
0.012
-0.064
-0.040
0.068
0.001
0.012
-0.078
0.146
0.132
-0.043
-0.018
-0.042
-0.027
0.063
0.129
-0.052
0.010
-0.056
-0.001
-0.009
-0.061
0.125
-0.016
0.140
-0.075
0.032
0.081
0.072
0.114
-0.117
0.042
0.050
0.029
-0.035
0.094
0.008
-0.041
-0.065
0.085
0.100
0.024
-0.038
0.021
0.001
0.087
0.045
-0.009
-0.093
0.153
0.108
-0.088
-0.053
0.046
0.004
0.023
-0.003
0.044
-0.008
0.015
0.140
0.052
0.050
0.063
0.054
-0.026
0.100
0.090
-0.001
-0.060
0.013
0.023
-0.029
0.002
-0.001
-0.015
0.007
0.121
0.017
0.034
0.053
0.037
-0.136
0.048
0.055
0.107
-0.038
-0.003
0.109
0.059
0.108
-0.012
-0.029
0.057
-0.093
-0.085
0.041
0.037
0.128
0.055
0.010
0.094
0.028
-0.075
0.009
-0.004
0.041
0.082
0.059
-0.032
0.093
-0.066
-0.008
0.063
0.036
0.105
-0.005
-0.049
0.085
0.081
0.008
0.053
0.043
0.009
-0.052
0.041
-0.044
0.070
0.005
0.006
-0.057
0.117
-0.009
0.020
0.099
0.012
-0.009
0.022
0.055
-0.025
0.030
-0.010
0.043
-0.018
0.287
-0.007
0.005
0.078
-0.034
0.038
-0.029
-0.011
0.083
0.115
-0.051
-0.090
0.033
0.018
0.032
0.019
-0.033
0.002
0.011
0.047
-0.029
0.070
0.049
-0.008
0.031
0.039
-0.057
-0.048
0.099
0.132
0.075
-0.060
-0.061
0.072
0.071
0.059
-0.005
0.111
0.046
0.061
-0.077
0.050
-0.009
0.093
-0.048
0.100
0.142
0.048
-0.027
-0.046
-0.032
-0.058
0.129
0.131
0.033
-0.029
-0.082
0.081
-0.129
0.008
0.055
-0.023
0.028
0.059
0.046
-0.053
-0.105
0.132
-0.097
-0.009
0.054
0.027
0.034
0.103
-0.061
0.074
0.072
0.027
-0.017
0.009
-0.108
0.060
0.107
-0.000
0.019
0.048
0.066
0.069
0.011
0.093
-0.024
-0.102
0.237
0.106
-0.083
-0.172
0.061
0.050
0.119
0.071
-0.005
0.075
-0.062
0.001
0.029
-0.084
0.035
0.077
0.010
-0.049
-0.044
0.025
0.087
0.041
0.125
0.015
-0.117
0.043
0.038
-0.055
0.134
0.075
-0.005
0.105
-0.021
0.090
-0.113
-0.000
0.052
0.053
-0.020
-0.024
0.112
0.000
0.000
-0.020
-0.003
0.083
0.126
-0.059
-0.065
-0.040
0.111
-0.005
0.060
0.019
-0.021
0.088
0.083
-0.018
-0.067
0.010
0.070
-0.007
0.093
0.014
-0.017
0.138
0.058
-0.030
-0.018
0.030
-0.002
0.042
0.028
0.064
0.007
0.033
0.021
-0.032
-0.006
0.119
-0.012
-0.082
0.021
0.121
-0.090
-0.046
0.114
-0.024
-0.073
0.068
0.041
0.049
-0.012
0.154
-0.036
-0.001
-0.008
-0.007
0.056
-0.034
0.157
0.000
-0.081
-0.080
0.158
-0.018
0.006
-0.010
-0.042
0.028
0.158
-0.014
0.111
0.020
-0.078
0.011
-0.028
0.096
0.041
-0.076
0.140
-0.003
-0.046
-0.044
-0.067
0.026
0.072
0.153
-0.130
-0.019
0.043
0.046
0.035
0.007
0.033
0.017
-0.007
-0.113
-0.024
0.128
0.035
0.029
0.141
-0.028
-0.072
0.108
0.108
0.032
-0.002
0.065
0.045
-0.055
0.077
0.070
-0.014
-0.021
-0.003
0.144
0.087
-0.038
-0.058
-0.043
0.041
0.026
0.055
0.091
0.094
-0.149
-0.064
0.007
0.027
0.006
0.029
0.096
-0.019
-0.010
0.124
0.068
0.104
0.056
0.076
-0.092
-0.101
0.081
-0.009
0.054
0.080
0.022
-0.039
0.082
0.062
0.030
0.077
0.032
-0.048
0.103
0.009
0.008
0.074
-0.004
0.080
0.185
0.024
0.014
0.040
-0.026
0.120
0.054
-0.013
0.056
0.021
0.073
-0.002
0.013
0.023
0.023
-0.011
0.100
-0.011
-0.002
-0.035
0.183
0.020
0.063
-0.128
0.026
0.130
0.033
0.046
-0.051
-0.003
0.077
0.068
0.035
0.096
-0.011
-0.037
-0.028
-0.023
0.146
0.053
0.051
0.054
-0.035
-0.078
0.054
0.130
0.005
-0.011
0.042
0.050
0.014
0.045
0.114
0.021
-0.021
0.056
0.059
0.051
0.021
0.111
0.044
-0.019
-0.095
0.043
0.048
0.014
-0.071
0.070
0.001
0.012
0.040
-0.008
0.027
0.067
0.007
0.015
-0.072
-0.019
0.140
0.014
0.014
0.083
-0.036
0.078
0.005
0.072
-0.106
-0.028
-0.007
0.107
0.022
0.143
0.059
-0.110
-0.076
-0.120
0.116
0.088
0.064
0.112
-0.013
-0.062
-0.036
-0.005
0.071
0.006
0.038
0.010
0.015
-0.126
-0.032
0.123
0.074
0.068
0.043
0.003
0.003
0.093
0.063
0.006
0.009
-0.097
0.091
0.051
-0.072
0.092
-0.066
-0.002
0.033
-0.063
-0.021
-0.054
0.177
0.017
-0.050
-0.050
0.066
0.059
0.059
-0.064
-0.033
0.073
0.005
-0.001
-0.015
0.000
0.117
-0.023
0.114
-0.012
0.012
-0.123
-0.008
0.170
0.125
0.018
-0.070
0.083
0.056
0.113
0.017
-0.068
0.087
0.029
-0.103
-0.029
0.169
0.017
0.069
0.055
0.124
0.052
-0.073
0.016
-0.033
-0.083
-0.077
0.109
0.025
-0.049
0.142
0.047
0.015
0.028
0.059
-0.049
0.012
0.006
0.064
-0.044
0.059
0.013
0.102
-0.027
-0.001
0.036
-0.051
0.071
0.040
-0.029
0.084
0.052
-0.024
0.008
-0.001
0.063
0.098
-0.036
0.018
0.037
-0.004
-0.073
0.035
0.020
-0.039
0.026
-0.023
0.115
0.071
-0.099
-0.020
0.126
-0.064
0.093
0.051
0.012
0.007
0.003
0.083
0.048
-0.046
-0.030
0.052
-0.011
0.030
0.182
-0.040
0.076
-0.079
0.016
-0.130
0.074
0.009
-0.043
0.048
-0.016
0.006
0.048
0.054
-0.068
-0.023
-0.009
-0.044
0.004
-0.062
0.046
0.081
0.075
0.068
-0.084
-0.074
0.139
0.091
0.010
-0.024
0.042
0.046
0.093
0.075
-0.182
-0.055
-0.024
0.022
-0.017
0.082
0.054
-0.031
0.111
0.117
0.064
-0.024
0.150
-0.104
-0.008
0.024
0.044
0.036
0.051
0.122
-0.098
0.011
0.082
-0.007
0.040
0.035
0.011
-0.001
-0.049
0.071
-0.046
0.038
0.070
-0.060
-0.030
0.106
0.043
-0.047
0.078
0.026
-0.136
0.034
0.033
0.128
0.052
-0.036
0.015
-0.010
0.110
-0.017
-0.016
0.039
0.038
0.125
-0.064
0.008
-0.020
0.067
0.071
0.005
-0.128
0.076
0.105
-0.011
0.060
-0.067
-0.043
0.142
0.026
-0.053
0.062
0.149
-0.026
-0.042
0.049
-0.013
0.029
0.029
-0.058
-0.019
0.134
0.088
0.102
-0.118
-0.021
0.136
0.116
-0.038
-0.097
0.029
0.012
0.039
-0.008
0.117
-0.046
-0.080
0.074
-0.060
0.074
0.106
-0.066
0.133
0.047
0.013
-0.043
0.089
-0.002
0.106
-0.105
0.080
0.222
0.011
-0.051
0.002
-0.007
-0.010
-0.010
0.031
0.086
0.084
0.074
-0.015
0.131
-0.040
-0.031
-0.088
0.166
0.011
-0.098
0.066
-0.001
0.064
0.001
-0.072
0.029
0.068
0.036
0.010
0.077
0.112
0.058
0.102
0.004
-0.046
0.071
0.115
0.150
-0.101
0.052
0.135
-0.003
0.037
-0.045
-0.059
-0.060
0.085
0.154
0.021
-0.092
0.102
0.010
-0.077
0.008
0.096
0.019
-0.055
-0.033
0.067
0.003
0.065
-0.046
0.010
0.108
-0.012
0.031
0.008
0.092
0.047
0.074
0.021
-0.028
-0.049
0.066
0.149
-0.124
-0.094
-0.023
-0.021
0.067
0.175
-0.131
0.015
0.042
0.081
0.168
0.042
-0.085
0.062
0.058
0.007
-0.133
0.078
0.043
0.107
-0.017
0.001
0.071
0.031
0.043
-0.074
-0.053
0.020
0.063
-0.035
0.057
0.043
-0.019
-0.062
-0.059
0.027
-0.052
0.105
0.040
-0.058
0.049
0.042
-0.006
-0.007
0.109
0.043
-0.037
-0.049
0.119
0.063
-0.002
0.077
-0.064
0.095
0.022
0.008
0.084
0.015
-0.009
0.035
-0.049
0.132
-0.020
-0.020
-0.060
0.072
0.050
0.054
-0.018
0.029
-0.031
0.044
-0.088
0.073
0.116
0.019
-0.007
0.042
0.058
-0.079
0.030
0.128
-0.031
0.119
-0.104
0.200
-0.008
0.004
-0.033
-0.110
0.063
0.046
-0.019
0.085
0.119
0.069
0.013
-0.008
-0.027
0.027
0.009
0.157
0.090
-0.031
0.025
-0.037
-0.039
0.076
0.266
-0.063
-0.096
0.006
-0.042
0.039
0.106
0.085
-0.003
0.043
0.001
-0.063
0.074
-0.009
-0.046
-0.040
0.139
-0.133
0.121
-0.005
-0.038
-0.031
0.014
0.050
0.042
0.085
0.019
-0.008
0.010
0.068
-0.054
0.090
-0.045
0.086
0.090
0.002
-0.069
0.056
-0.003
-0.005
0.023
-0.005
0.035
0.047
0.175
-0.015
-0.014
0.104
-0.009
-0.013
-0.013
-0.052
0.116
0.091
-0.048
-0.016
-0.020
0.011
-0.031
-0.117
-0.127
0.035
0.083
0.045
0.074
-0.118
0.027
0.103
0.015
-0.014
0.048
0.063
0.009
0.046
0.040
0.068
0.092
-0.136
0.031
0.152
0.118
0.054
-0.020
-0.033
0.127
0.087
-0.011
0.056
-0.095
0.056
0.026
0.026
0.063
0.081
-0.079
0.125
0.009
-0.003
-0.023
0.005
-0.029
0.080
-0.079
-0.002
0.051
-0.035
0.118
0.055
-0.009
0.026
0.069
-0.078
-0.035
-0.058
0.147
0.128
0.021
-0.004
0.094
0.007
-0.021
-0.090
0.120
0.110
-0.057
0.032
0.109
0.036
-0.062
0.085
0.183
0.116
-0.076
-0.074
0.051
0.001
0.044
0.037
-0.051
0.034
-0.081
-0.092
-0.036
0.144
0.107
0.005
-0.051
-0.025
0.098
-0.009
-0.056
0.011
0.121
0.149
-0.011
0.039
-0.002
0.061
0.067
-0.003
0.006
-0.036
0.051
-0.072
0.064
0.043
0.023
-0.037
-0.017
-0.137
0.227
-0.004
0.067
-0.033
-0.101
-0.049
0.073
0.099
-0.009
0.032
0.142
-0.030
0.091
-0.001
0.032
-0.005
-0.053
0.051
0.096
0.023
0.022
0.017
-0.037
0.038
0.125
0.127
0.056
-0.033
0.125
-0.009
-0.067
-0.006
0.009
-0.041
0.121
0.024
0.084
-0.003
-0.015
0.077
-0.028
0.036
0.051
0.065
-0.030
0.011
0.039
-0.008
-0.084
-0.058
-0.007
0.175
0.035
0.031
0.055
-0.080
0.036
0.041
0.138
-0.032
0.065
0.056
0.017
-0.020
-0.035
0.070
0.005
0.032
-0.036
-0.061
0.034
0.053
-0.061
0.109
0.050
-0.068
-0.011
-0.025
0.094
0.051
-0.106
0.058
0.029
0.045
0.103
0.052
-0.152
-0.061
0.005
0.131
0.113
0.036
0.030
-0.070
0.036
-0.038
0.033
0.117
0.048
0.050
-0.012
-0.079
-0.019
-0.099
0.111
0.111
-0.032
-0.070
-0.005
0.027
-0.020
0.024
-0.031
0.222
0.037
0.053
-0.149
0.042
0.134
-0.068
0.042
0.004
-0.021
0.041
0.095
0.044
-0.069
0.117
0.063
-0.031
-0.113
0.000
0.035
0.123
-0.009
0.005
0.023
-0.062
0.082
0.130
0.009
-0.022
0.051
0.098
0.012
0.066
0.003
-0.019
-0.007
0.082
0.093
0.117
-0.121
-0.015
0.112
-0.030
0.057
0.033
0.054
-0.086
-0.002
-0.022
0.053
0.090
0.047
-0.073
-0.041
0.104
-0.016
0.075
0.018
0.094
0.005
0.010
0.097
0.019
0.022
0.063
0.051
0.007
0.069
0.014
0.085
-0.079
0.078
0.037
0.091
0.050
-0.026
0.069
-0.099
0.001
-0.013
0.023
0.075
0.035
-0.031
0.100
0.089
-0.045
0.114
0.037
-0.031
0.069
-0.056
0.064
0.030
0.171
0.035
-0.030
-0.081
-0.008
0.092
0.083
0.074
0.080
-0.078
0.087
0.048
0.126
0.018
0.000
0.003
0.042
-0.019
-0.010
-0.025
0.043
0.004
0.135
0.005
-0.087
0.017
0.053
0.059
0.036
-0.049
0.163
0.005
0.017
0.001
0.045
0.061
-0.111
0.034
0.069
-0.020
-0.040
0.081
0.001
0.023
0.059
0.023
0.143
-0.029
0.020
0.001
0.002
0.131
-0.127
0.087
0.082
0.045
-0.098
0.049
0.111
-0.005
0.083
-0.095
0.155
0.040
0.008
-0.049
0.015
-0.052
0.002
-0.006
0.034
0.065
-0.083
0.090
-0.018
-0.103
-0.063
0.023
0.037
-0.001
0.168
-0.035
0.004
-0.073
-0.050
0.024
0.059
0.000
0.002
0.141
-0.001
0.046
-0.110
0.033
0.043
-0.126
0.121
0.105
-0.005
0.138
-0.004
-0.045
0.000
0.076
-0.026
0.040
0.041
0.017
0.095
0.089
-0.025
-0.037
0.071
-0.009
-0.075
0.074
0.019
0.074
0.093
-0.101
0.080
-0.053
0.049
-0.035
-0.020
0.036
0.047
-0.024
0.007
0.047
-0.137
0.025
0.110
0.114
-0.054
-0.070
-0.022
0.138
0.001
-0.003
0.083
-0.010
0.085
0.001
0.005
-0.058
0.109
-0.005
0.087
0.006
-0.050
0.099
0.061
0.018
0.038
-0.044
0.088
-0.001
0.043
0.037
0.107
0.002
-0.003
-0.104
0.104
-0.052
-0.020
0.055
0.026
0.042
0.053
0.051
-0.018
-0.067
0.020
0.014
0.031
0.040
-0.017
0.043
0.185
0.089
-0.026
0.052
0.077
0.033
-0.006
-0.004
0.002
-0.005
0.061
-0.087
-0.043
0.033
0.010
0.067
0.067
-0.004
0.036
0.044
-0.056
0.084
0.036
-0.000
-0.114
0.055
0.023
0.023
0.019
0.100
-0.028
0.141
-0.036
0.101
-0.064
-0.008
-0.031
0.128
0.070
-0.007
-0.052
0.236
0.152
-0.016
-0.044
-0.062
0.021
0.016
-0.049
0.041
0.101
0.095
0.010
0.043
0.071
-0.108
0.005
0.036
-0.055
0.037
0.034
0.029
0.062
0.090
-0.003
-0.098
0.067
-0.042
0.041
0.054
0.059
0.032
0.013
-0.015
0.048
0.064
-0.016
0.003
0.018
0.041
0.122
0.015
-0.039
0.054
-0.100
-0.034
-0.007
0.092
0.098
0.130
-0.005
-0.037
0.021
-0.094
0.163
0.125
-0.090
0.008
-0.102
0.051
-0.036
0.190
-0.069
-0.051
0.010
0.038
0.067
-0.008
0.000
-0.003
-0.029
0.108
-0.089
-0.044
0.056
0.086
0.034
0.145
0.104
-0.086
-0.137
0.112
-0.072
0.113
0.073
0.059
-0.094
0.037
0.019
-0.078
0.015
0.098
0.090
0.001
0.001
0.039
-0.023
0.089
-0.020
-0.044
-0.028
0.050
0.120
0.069
-0.098
0.025
0.004
0.060
-0.039
-0.081
0.109
0.011
-0.075
0.048
0.126
0.113
-0.059
-0.123
0.089
-0.044
0.112
0.038
-0.014
-0.025
0.034
0.165
0.087
0.077
-0.041
-0.082
0.037
0.227
0.000
0.057
-0.005
-0.004
-0.062
0.096
0.067
0.045
0.056
0.020
0.113
-0.011
-0.017
0.037
-0.083
0.074
0.087
-0.060
0.069
-0.029
-0.025
0.127
0.083
0.050
0.084
-0.004
-0.124
0.064
-0.062
0.035
0.045
0.008
-0.020
-0.068
0.031
0.059
-0.002
0.018
-0.091
0.115
0.153
0.050
-0.056
0.058
0.158
-0.041
-0.024
0.105
0.039
0.021
-0.053
0.118
0.102
-0.017
-0.044
0.095
-0.045
-0.081
0.143
0.066
-0.077
-0.028
-0.043
0.018
0.058
0.081
0.034
-0.011
0.011
-0.086
0.088
0.117
-0.045
-0.043
0.019
0.147
0.059
-0.025
0.000
0.063
0.075
-0.152
0.045
-0.045
0.036
0.021
-0.028
-0.023
0.108
0.026
-0.068
0.056
0.075
-0.048
-0.011
0.122
0.011
-0.072
-0.028
0.137
0.004
-0.058
-0.043
0.047
0.230
0.085
-0.021
-0.091
-0.008
0.064
0.095
-0.003
-0.018
0.125
-0.044
0.071
0.020
0.078
0.060
0.063
0.026
-0.051
0.008
0.099
0.050
-0.003
-0.045
0.065
-0.041
0.106
-0.090
0.020
0.080
0.025
-0.062
0.009
-0.071
-0.014
0.003
0.088
0.020
-0.018
-0.074
-0.025
-0.058
0.100
0.078
-0.095
0.077
0.021
0.082
0.065
0.029
-0.060
0.052
-0.000
0.058
0.053
0.042
0.006
0.077
-0.135
0.077
0.003
-0.130
0.094
0.062
-0.041
-0.095
0.034
0.047
0.018
0.021
-0.007
-0.152
0.095
0.128
0.110
0.012
-0.004
-0.063
-0.121
0.082
0.066
0.148
-0.043
0.037
-0.009
0.030
-0.044
0.034
0.097
-0.072
-0.025
0.138
-0.123
0.003
0.001
0.070
-0.151
0.057
0.092
0.116
-0.086
0.074
0.063
0.032
0.056
0.052
-0.035
0.007
-0.001
0.103
0.008
-0.026
0.032
-0.017
-0.053
0.034
0.042
-0.000
0.054
-0.083
0.113
0.034
0.062
-0.032
-0.020
0.035
0.123
0.052
-0.021
-0.030
0.116
0.029
-0.014
0.063
-0.064
0.055
0.087
0.047
-0.036
0.079
0.077
0.020
0.028
0.066
-0.024
0.027
-0.014
0.009
0.015
0.003
-0.090
0.133
-0.034
0.026
0.079
0.040
-0.021
0.021
0.001
-0.136
0.067
-0.022
0.035
-0.001
0.022
0.013
0.002
0.103
0.083
0.036
-0.017
-0.053
0.044
-0.026
-0.094
0.060
-0.024
-0.018
0.089
0.144
0.032
0.036
-0.123
0.078
0.085
-0.110
0.096
-0.046
-0.009
-0.015
0.146
0.067
0.024
-0.059
-0.019
0.099
0.037
0.142
-0.041
0.013
-0.038
0.032
0.018
-0.011
0.002
-0.036
0.140
0.052
-0.102
-0.017
0.006
0.049
0.035
0.050
0.022
0.050
-0.008
0.028
0.003
0.088
-0.049
0.123
0.040
-0.007
0.068
-0.031
0.007
0.004
0.096
-0.005
0.032
0.063
0.077
-0.005
0.023
-0.079
0.013
-0.082
0.057
0.024
0.007
-0.037
-0.002
0.074
0.073
0.045
0.063
-0.074
-0.086
0.194
0.080
-0.004
-0.036
0.027
0.057
0.091
-0.067
0.116
0.031
0.065
-0.116
0.030
0.024
-0.019
0.042
0.035
-0.042
0.087
0.023
-0.039
0.103
-0.043
-0.009
-0.060
0.064
0.179
-0.027
-0.091
0.074
-0.059
-0.003
0.008
0.038
-0.006
0.065
-0.055
-0.010
0.180
0.068
-0.033
0.086
-0.036
0.059
-0.028
0.054
0.034
-0.048
0.033
0.025
-0.082
0.069
0.015
0.046
0.009
-0.049
0.072
-0.002
0.000
0.061
0.145
0.044
-0.014
0.001
0.039
-0.070
0.005
0.080
0.004
0.045
0.073
0.032
-0.040
0.024
0.007
0.009
0.172
0.068
0.041
-0.021
-0.032
0.119
0.117
-0.024
-0.053
-0.020
0.080
0.050
0.062
-0.003
-0.002
-0.052
-0.023
0.076
0.108
0.006
0.182
0.099
0.025
-0.087
-0.119
0.062
0.030
-0.051
0.000
0.065
0.074
-0.026
0.132
0.115
0.011
-0.146
0.048
0.088
0.055
0.030
-0.032
-0.035
0.074
0.045
-0.050
0.136
0.032
-0.011
0.058
0.028
-0.069
-0.055
0.080
0.012
-0.001
-0.030
0.057
0.017
0.089
0.042
0.048
-0.005
-0.039
0.005
0.021
0.041
0.027
-0.039
-0.041
0.074
0.141
-0.045
-0.056
0.131
0.050
0.001
0.054
-0.017
0.047
-0.078
0.065
0.061
-0.024
0.009
0.034
0.050
-0.018
-0.160
-0.045
0.025
0.108
0.051
-0.008
-0.010
0.010
0.022
-0.033
-0.029
0.002
0.106
0.015
0.098
0.057
-0.028
-0.007
0.074
0.077
0.077
-0.036
0.152
0.162
0.016
-0.097
-0.040
0.062
0.050
0.115
0.021
0.075
0.070
0.051
-0.008
-0.113
-0.032
0.130
-0.087
0.082
0.080
-0.074
-0.084
0.063
-0.008
-0.018
0.188
0.067
0.053
0.083
-0.041
0.048
0.013
-0.114
0.218
0.086
-0.025
0.095
-0.104
0.007
0.055
0.007
0.024
0.078
0.152
0.014
-0.037
-0.061
0.076
0.127
-0.037
0.158
-0.031
0.019
-0.003
0.091
0.090
-0.034
-0.072
-0.016
0.096
0.067
-0.099
0.042
-0.058
0.059
0.108
0.041
0.037
0.077
-0.002
0.043
-0.054
0.022
0.014
0.191
0.035
-0.053
-0.037
-0.034
0.035
-0.033
0.002
-0.105
0.012
-0.021
0.022
0.068
0.117
-0.019
-0.029
0.033
-0.014
0.069
-0.076
0.064
-0.072
0.120
0.036
-0.019
0.027
0.053
0.073
-0.076
0.108
0.073
-0.147
0.118
0.051
-0.086
-0.052
0.067
0.163
0.020
0.038
-0.002
-0.041
0.075
0.017
-0.040
0.081
-0.083
0.021
0.147
0.034
-0.021
0.059
0.041
-0.073
0.019
0.042
0.113
0.028
-0.052
-0.024
0.082
-0.018
0.073
-0.074
0.126
-0.028
0.046
-0.033
0.053
0.045
0.013
0.030
0.034
0.054
0.119
-0.105
0.047
0.087
0.121
0.067
-0.070
0.067
-0.005
-0.129
0.065
0.096
0.006
0.060
0.039
-0.077
0.091
0.019
0.031
-0.012
0.086
0.099
-0.074
0.062
0.214
0.043
-0.079
-0.140
0.048
0.010
0.122
-0.028
0.123
-0.011
-0.135
-0.047
0.078
0.020
-0.015
0.110
0.136
-0.025
-0.019
-0.114
0.083
0.042
-0.020
-0.091
0.072
0.113
0.050
-0.051
-0.002
0.010
0.046
0.055
0.013
-0.008
0.092
0.151
0.043
-0.027
-0.099
-0.009
0.087
0.113
-0.143
0.082
0.013
0.076
-0.158
0.078
0.160
-0.049
-0.063
-0.101
0.083
0.043
-0.066
0.001
0.147
0.189
0.120
-0.128
0.007
0.070
0.015
-0.055
-0.008
0.020
0.026
-0.005
-0.058
0.030
-0.030
0.055
0.015
0.070
0.095
-0.172
0.074
0.020
0.040
0.006
0.101
0.088
0.073
-0.058
-0.042
-0.058
-0.030
0.050
0.051
-0.037
-0.000
0.164
-0.006
0.010
0.029
0.013
-0.066
-0.008
-0.015
0.027
0.114
-0.094
0.001
0.050
0.008
0.000
-0.047
-0.108
0.044
0.125
0.091
-0.038
-0.018
0.101
-0.033
0.015
0.017
0.104
0.032
0.077
0.037
0.037
-0.009
-0.136
-0.060
-0.064
0.076
-0.064
0.081
0.094
-0.052
-0.019
0.108
0.050
-0.094
0.020
0.010
0.158
0.012
-0.089
-0.099
-0.008
0.019
0.061
0.039
0.078
0.055
-0.082
-0.035
-0.005
0.036
-0.027
0.021
0.056
-0.020
0.073
0.049
-0.035
-0.008
0.098
-0.003
-0.025
0.002
0.050
0.020
0.073
0.110
0.043
0.013
0.024
-0.023
0.054
0.034
0.139
0.081
-0.026
-0.047
-0.031
0.125
0.024
0.112
-0.048
-0.039
0.036
-0.065
0.054
-0.023
0.024
-0.018
-0.020
0.086
0.012
-0.052
0.094
0.102
0.043
-0.048
0.041
-0.034
0.087
-0.114
0.018
0.087
0.124
0.018
0.004
0.050
0.108
-0.082
0.061
-0.005
-0.079
-0.021
0.060
0.128
-0.009
0.007
-0.005
0.097
0.072
-0.057
0.038
0.182
-0.022
0.076
0.009
0.003
-0.045
-0.049
0.066
0.007
0.090
0.013
0.050
0.065
-0.056
-0.113
0.189
0.099
-0.023
-0.127
-0.055
0.156
0.109
-0.031
-0.030
0.087
-0.038
-0.164
0.135
0.104
-0.073
-0.038
-0.059
0.120
0.051
-0.027
0.041
-0.051
0.088
-0.034
-0.009
0.035
0.078
-0.129
0.067
-0.040
0.069
0.004
0.046
0.001
-0.097
0.092
-0.034
-0.079
-0.018
0.164
0.056
0.010
0.088
0.042
0.008
-0.075
-0.019
0.079
-0.129
-0.001
0.010
-0.036
-0.038
0.052
-0.010
0.031
-0.026
-0.041
0.005
0.004
0.116
-0.209
0.042
0.017
-0.013
-0.057
0.003
-0.134
0.029
0.190
0.059
-0.077
0.062
-0.021
-0.012
-0.010
-0.046
0.021
0.092
0.048
-0.039
0.063
0.034
0.057
-0.057
-0.111
0.043
-0.101
0.007
0.128
0.014
0.047
-0.012
-0.025
-0.025
-0.058
-0.082
0.034
0.055
0.103
0.015
0.053
-0.010
0.020
-0.036
0.064
0.007
0.099
0.115
0.014
-0.091
0.012
0.045
0.121
-0.001
-0.066
-0.010
0.170
-0.084
-0.041
0.082
-0.012
0.057
-0.032
0.085
0.105
0.066
-0.121
0.004
0.013
0.118
0.055
-0.018
0.047
0.075
0.022
0.059
0.021
-0.039
0.071
0.069
0.075
0.137
-0.074
-0.132
-0.042
0.098
0.047
-0.095
0.102
0.056
0.072
0.026
0.032
-0.099
0.041
0.155
-0.010
0.096
0.072
-0.002
0.090
-0.012
0.211
-0.013
-0.087
0.088
0.120
-0.007
0.052
-0.051
0.072
-0.115
0.029
0.023
0.022
0.055
-0.062
0.069
0.033
-0.038
-0.014
0.170
-0.083
0.068
-0.093
0.010
0.065
-0.075
0.055
0.181
0.043
0.024
-0.015
0.032
0.064
-0.105
0.090
0.061
0.139
-0.014
-0.104
-0.022
0.136
0.006
-0.097
0.068
0.089
0.028
-0.009
-0.030
-0.048
0.040
0.095
-0.011
0.083
0.075
-0.009
0.073
-0.089
-0.004
0.064
0.005
0.090
-0.059
0.131
-0.069
-0.009
-0.009
0.012
-0.058
0.115
-0.022
0.038
0.043
-0.017
0.004
0.007
0.017
0.064
0.140
-0.105
0.039
0.150
-0.134
0.008
-0.029
0.115
0.010
0.080
0.043
-0.105
-0.008
0.034
0.007
0.103
0.003
0.023
0.008
0.008
0.090
-0.039
-0.080
0.013
0.134
-0.009
-0.012
-0.101
-0.064
0.090
0.124
0.123
0.040
-0.150
-0.053
0.023
0.048
0.077
-0.066
0.113
-0.070
-0.043
-0.011
0.054
-0.017
0.130
0.036
0.017
0.005
-0.038
-0.164
0.060
0.111
0.081
0.069
-0.075
-0.051
0.031
0.060
-0.006
0.134
-0.004
-0.056
-0.024
-0.008
0.021
0.018
-0.014
-0.070
-0.024
0.025
-0.003
-0.021
0.022
0.018
-0.083
0.033
0.163
-0.011
0.047
-0.035
-0.094
-0.089
0.123
0.013
0.052
0.132
-0.046
0.016
-0.106
0.028
0.108
0.186
-0.079
0.032
0.086
0.066
0.068
0.024
-0.029
-0.089
0.101
-0.056
0.002
0.073
0.044
0.030
0.032
-0.016
-0.107
0.007
0.018
0.047
0.163
0.026
-0.119
0.051
0.069
0.017
0.014
0.035
0.100
0.046
-0.039
-0.066
0.076
0.045
-0.157
0.019
0.104
0.072
-0.077
0.092
0.148
-0.003
-0.046
0.149
0.077
-0.085
-0.012
0.101
0.076
0.005
-0.004
0.053
-0.035
0.141
0.132
-0.058
-0.048
-0.029
0.028
0.100
0.015
0.089
0.055
-0.112
0.047
-0.021
0.038
-0.053
0.194
0.033
-0.082
-0.017
0.078
0.034
-0.043
0.062
0.067
0.014
-0.097
0.057
0.008
0.028
-0.039
0.087
0.041
-0.039
0.022
-0.045
0.133
0.027
-0.054
0.002
0.004
0.043
0.056
-0.034
0.059
-0.016
0.018
0.126
-0.019
0.060
0.168
0.052
0.032
-0.017
-0.047
0.004
-0.093
0.095
0.131
-0.013
0.041
-0.045
-0.038
0.065
-0.006
0.076
0.101
0.045
0.018
0.026
-0.106
-0.069
0.061
0.009
0.031
0.018
0.086
0.117
-0.038
0.045
0.139
0.061
-0.071
-0.004
0.063
0.025
0.037
0.028
-0.046
0.159
0.020
0.027
0.047
0.046
0.005
-0.010
0.032
-0.038
0.069
0.085
-0.015
0.114
-0.044
0.028
0.078
0.029
0.003
0.025
0.059
0.038
0.061
-0.029
-0.047
0.153
-0.093
0.082
-0.002
-0.020
0.039
-0.074
0.057
0.054
0.099
0.068
0.052
0.000
0.044
0.034
-0.128
0.055
0.096
0.097
0.024
-0.110
-0.092
-0.008
0.083
0.130
-0.071
-0.040
0.001
0.079
0.034
0.139
-0.064
0.014
-0.037
0.135
-0.062
0.043
0.019
0.057
0.093
-0.066
0.048
0.022
0.082
0.028
-0.077
-0.009
0.081
0.048
0.002
-0.043
0.005
-0.061
-0.021
0.094
0.102
-0.011
-0.015
-0.007
-0.064
0.142
0.069
0.028
0.032
-0.103
0.039
-0.049
0.069
-0.040
-0.002
0.030
0.071
0.069
-0.026
0.058
0.050
0.077
-0.068
0.025
0.016
0.076
-0.024
0.100
-0.089
0.060
-0.002
0.055
0.038
-0.002
-0.047
-0.008
0.049
-0.050
0.083
0.132
-0.004
-0.056
-0.052
0.002
0.047
0.019
0.066
0.117
-0.001
-0.019
-0.055
-0.013
0.078
-0.014
0.075
0.014
0.021
-0.015
0.099
-0.002
0.002
0.030
0.001
0.079
0.046
-0.026
0.024
-0.081
0.175
0.045
0.083
-0.020
-0.077
-0.030
0.049
0.047
0.007
0.114
0.024
0.086
-0.121
0.138
0.034
-0.048
0.068
0.041
-0.060
0.066
-0.022
0.051
-0.019
-0.055
0.043
0.003
0.079
0.112
0.146
-0.092
0.031
0.093
0.014
0.109
0.127
-0.027
-0.017
0.085
0.015
-0.015
-0.033
0.052
-0.030
-0.033
-0.028
0.053
0.101
0.093
0.006
0.024
0.016
-0.018
-0.073
0.162
0.114
0.034
-0.038
0.157
0.103
-0.057
0.040
-0.089
0.193
0.010
-0.008
0.010
0.023
-0.019
0.061
0.051
0.018
-0.077
0.068
0.138
0.071
0.077
-0.114
0.025
0.033
-0.023
0.052
-0.016
0.057
0.033
0.007
0.052
0.022
-0.007
-0.023
0.068
-0.010
0.016
-0.051
0.011
0.042
0.144
0.119
0.044
-0.020
-0.012
-0.037
0.054
0.093
0.006
-0.112
0.062
0.064
0.054
-0.006
-0.061
0.003
0.041
0.124
-0.127
-0.056
0.001
0.101
0.005
0.053
-0.005
0.130
0.008
0.039
0.006
0.048
-0.028
-0.015
0.096
-0.013
-0.028
-0.036
0.062
0.036
-0.046
0.033
0.083
0.016
-0.033
0.027
-0.003
0.013
0.095
-0.002
0.082
0.125
0.066
-0.072
-0.039
-0.051
-0.003
0.126
0.051
0.079
-0.025
-0.160
0.126
-0.030
0.048
0.017
0.032
-0.005
0.027
0.053
0.027
-0.037
-0.069
0.080
-0.006
-0.018
0.019
0.146
-0.016
-0.116
-0.009
0.087
0.078
0.129
0.001
-0.076
0.027
-0.009
-0.050
0.120
0.117
-0.024
-0.037
0.068
-0.084
0.089
0.034
0.126
0.002
-0.023
0.114
0.039
-0.056
-0.059
0.084
0.033
-0.084
0.030
0.083
-0.019
-0.016
0.056
0.035
-0.027
0.022
0.024
-0.001
-0.059
0.006
0.132
-0.013
-0.102
0.043
0.037
-0.029
-0.024
0.065
0.097
0.002
-0.109
0.111
-0.161
-0.033
0.085
0.135
0.137
-0.067
0.036
-0.041
0.029
-0.037
-0.016
0.021
-0.014
0.101
0.009
-0.006
-0.019
-0.066
0.104
0.001
-0.070
-0.021
0.173
-0.015
0.086
0.058
-0.143
0.082
0.096
0.183
-0.093
-0.142
-0.020
0.123
0.137
0.046
-0.059
-0.013
-0.055
0.084
0.042
-0.002
-0.053
0.020
-0.102
0.103
0.124
0.043
0.006
-0.044
-0.024
-0.045
-0.006
0.059
0.073
0.002
-0.019
-0.133
0.109
0.069
0.054
0.018
-0.005
-0.032
0.052
0.034
0.110
-0.024
0.118
-0.054
-0.034
-0.003
0.035
0.022
-0.061
0.045
0.059
0.140
-0.093
0.008
-0.011
0.011
0.108
-0.111
0.066
0.018
0.116
0.057
0.074
0.067
0.107
0.063
0.144
-0.043
-0.073
0.011
0.033
0.109
0.030
-0.008
0.015
-0.036
0.064
-0.095
0.026
0.130
-0.014
0.012
-0.059
0.061
0.055
-0.006
0.004
-0.085
0.024
0.064
-0.027
0.005
0.096
-0.076
0.105
-0.017
0.215
-0.008
-0.079
0.138
0.078
-0.014
-0.087
0.089
0.061
0.053
0.064
-0.027
-0.046
0.007
-0.033
0.089
0.003
0.036
-0.010
0.073
0.043
-0.102
0.139
0.019
0.087
0.024
0.007
-0.070
0.077
0.062
0.048
-0.035
0.103
0.030
-0.008
0.051
0.037
-0.022
0.053
0.070
0.050
-0.045
0.021
-0.019
0.004
-0.059
0.028
-0.040
-0.043
0.099
0.029
0.031
-0.015
0.024
0.087
-0.053
-0.026
0.001
0.112
0.077
0.025
0.054
-0.053
0.089
0.007
-0.005
0.151
-0.111
0.041
0.055
0.054
-0.007
0.068
0.007
-0.108
0.046
0.022
-0.049
0.088
0.034
0.042
0.003
0.087
-0.088
0.144
0.009
0.136
-0.065
-0.051
0.143
0.139
0.012
0.032
0.071
-0.075
-0.012
0.086
0.103
0.012
-0.021
-0.018
0.025
0.037
0.070
-0.045
0.078
0.042
-0.003
0.111
0.067
0.065
0.021
-0.033
0.025
0.006
-0.001
0.015
0.020
-0.039
0.066
0.037
0.047
0.038
0.122
-0.016
0.064
0.040
-0.049
-0.041
-0.026
0.046
0.062
0.007
0.233
0.091
-0.047
-0.031
-0.024
0.114
-0.018
0.011
0.092
0.114
0.172
-0.076
0.055
0.130
-0.048
-0.076
0.167
0.008
-0.022
-0.052
0.016
0.130
-0.065
-0.065
0.031
0.020
0.128
0.062
0.143
0.132
-0.046
-0.080
0.033
0.104
0.056
-0.003
-0.036
0.143
-0.015
-0.003
-0.010
-0.030
0.085
0.037
-0.088
0.021
-0.029
0.100
0.050
0.132
0.022
0.083
0.037
0.027
0.108
0.094
-0.082
-0.093
0.153
-0.040
-0.017
0.109
0.095
-0.005
0.058
-0.101
0.080
0.084
-0.035
0.055
0.035
0.124
0.044
0.121
-0.043
0.125
-0.056
-0.018
-0.073
0.066
0.068
0.062
0.073
-0.050
0.080
0.016
0.106
0.092
-0.069
-0.068
0.080
-0.011
0.057
0.038
0.090
0.053
0.097
0.029
0.060
-0.078
-0.096
0.101
0.110
0.008
0.012
0.044
-0.021
0.013
-0.070
0.072
-0.052
0.014
0.085
0.009
-0.004
-0.044
-0.017
-0.048
0.095
0.079
0.101
-0.051
-0.019
0.009
0.034
0.011
0.009
0.092
0.097
-0.028
0.031
0.029
-0.031
-0.065
0.171
-0.032
-0.025
0.126
-0.080
0.018
0.058
0.040
-0.023
0.057
0.028
-0.067
0.102
0.016
-0.082
-0.061
0.003
0.094
0.074
-0.098
0.143
0.033
0.036
-0.062
-0.072
0.011
-0.073
0.015
0.017
0.073
-0.024
0.006
0.037
-0.017
0.055
0.078
0.073
0.090
-0.072
0.039
0.006
0.076
-0.010
0.048
0.085
-0.056
0.021
-0.033
0.080
-0.005
0.119
0.064
-0.146
-0.033
0.143
0.061
-0.006
0.041
-0.044
0.097
0.035
-0.001
-0.019
-0.004
0.089
0.132
0.005
-0.068
-0.013
-0.008
-0.013
0.038
0.134
-0.024
-0.082
0.066
0.044
0.042
0.018
-0.094
0.146
-0.050
-0.002
0.076
0.105
0.002
-0.035
0.037
-0.028
0.082
0.016
0.078
-0.027
0.023
0.030
0.095
-0.049
0.119
0.020
-0.054
0.002
0.058
0.006
0.063
-0.023
-0.032
0.040
-0.098
0.041
0.023
0.068
-0.023
0.005
-0.037
-0.018
-0.068
0.068
0.079
0.037
-0.090
-0.054
0.057
0.101
-0.043
0.036
-0.036
-0.093
0.074
0.053
0.014
0.068
0.127
0.020
-0.031
-0.022
-0.042
-0.072
0.103
0.053
0.037
0.047
-0.007
0.066
0.000
-0.083
0.066
0.048
-0.035
-0.029
-0.090
0.111
0.093
0.080
0.107
-0.092
-0.013
0.013
-0.041
0.035
-0.019
0.020
-0.016
0.041
0.027
0.014
0.008
0.031
0.022
0.051
0.054
0.012
-0.037
0.025
0.146
-0.007
-0.085
-0.046
-0.032
0.078
0.128
0.082
-0.060
0.035
0.160
-0.091
0.123
0.012
0.023
0.082
0.144
-0.045
0.025
0.014
0.069
-0.029
0.075
0.017
0.013
-0.111
0.001
0.018
0.052
-0.001
-0.026
0.014
0.007
0.045
0.031
0.139
0.015
-0.030
0.014
-0.021
-0.064
0.119
0.046
0.020
0.034
0.029
0.019
-0.028
-0.037
0.256
0.088
-0.193
-0.077
-0.013
0.069
0.110
-0.010
0.014
0.101
-0.105
0.071
0.071
0.029
0.028
0.044
0.045
-0.013
-0.066
-0.010
-0.043
-0.023
0.186
0.032
0.016
-0.081
0.010
0.006
0.013
0.084
-0.128
0.040
0.084
0.108
-0.039
-0.012
-0.019
0.087
-0.059
0.125
0.027
-0.001
-0.039
0.018
-0.031
-0.070
0.032
0.032
-0.053
0.037
0.070
0.030
0.037
0.024
0.063
0.170
-0.106
0.045
-0.064
-0.191
0.028
0.049
0.034
0.142
0.068
-0.070
0.046
-0.000
-0.005
0.038
0.061
0.160
-0.036
0.024
-0.060
0.096
0.018
-0.022
0.049
0.120
0.013
-0.070
0.099
0.002
0.002
0.153
-0.068
0.127
-0.040
0.041
0.027
0.151
-0.016
0.028
-0.012
-0.085
0.112
0.074
0.037
-0.082
-0.100
0.097
0.107
-0.033
0.106
0.023
0.000
0.142
-0.039
0.061
-0.060
0.100
0.100
-0.008
0.036
-0.021
0.116
0.031
-0.009
0.076
0.045
-0.049
0.078
-0.076
0.018
0.094
-0.121
0.056
-0.061
0.122
0.066
0.068
0.046
0.002
-0.012
-0.048
0.063
0.073
0.113
0.113
0.006
0.031
-0.012
-0.030
0.073
0.028
0.075
0.033
0.110
0.019
-0.091
0.074
-0.125
-0.039
0.066
-0.019
0.131
-0.055
0.037
0.121
0.034
-0.037
-0.017
-0.013
-0.047
0.157
0.114
0.041
-0.148
0.010
0.047
0.010
0.103
0.069
0.020
-0.088
-0.028
-0.000
-0.036
-0.001
0.085
0.141
0.016
-0.175
0.005
0.046
-0.019
0.097
0.030
0.135
-0.007
-0.029
-0.004
0.009
0.084
0.026
0.036
-0.057
-0.051
0.060
0.071
0.065
-0.062
-0.022
0.059
0.066
0.068
-0.042
-0.045
0.006
0.051
-0.091
0.009
-0.016
0.061
0.055
0.032
-0.040
-0.056
0.102
0.053
-0.024
0.069
0.021
-0.008
-0.029
-0.051
0.051
0.070
-0.066
0.029
0.108
-0.028
-0.040
0.087
0.013
0.058
0.002
0.004
-0.042
0.015
0.049
-0.039
-0.127
0.089
0.072
0.034
0.036
-0.003
0.093
-0.072
0.107
-0.029
-0.015
0.022
0.003
0.026
0.045
0.069
-0.079
-0.047
-0.102
0.037
0.078
0.016
0.062
0.004
-0.010
0.085
0.018
0.106
-0.004
0.040
0.076
-0.027
0.001
0.055
-0.021
0.005
0.002
0.028
-0.027
0.109
0.041
-0.103
0.010
-0.063
0.197
-0.012
-0.084
-0.068
0.062
0.075
0.027
0.097
-0.032
0.004
-0.034
-0.005
-0.045
0.034
0.038
0.047
0.040
0.101
-0.021
-0.034
0.096
-0.005
-0.002
0.080
0.034
-0.017
0.096
-0.029
0.014
-0.033
-0.063
0.081
0.050
0.063
-0.018
-0.070
0.043
0.070
0.075
0.045
0.059
-0.098
0.025
-0.037
0.152
0.012
-0.052
-0.101
0.003
0.076
-0.011
0.079
-0.027
0.027
-0.028
0.028
0.076
0.069
0.065
0.034
-0.088
0.073
-0.007
-0.017
-0.042
0.081
0.070
0.021
0.032
0.017
-0.058
-0.001
-0.023
-0.004
0.147
0.102
-0.007
0.001
-0.017
0.111
0.050
0.029
-0.017
-0.041
0.076
0.124
0.069
-0.010
0.013
-0.009
0.065
-0.004
0.077
0.025
0.032
0.043
0.031
0.060
-0.045
-0.012
0.055
0.161
0.031
0.053
-0.134
0.068
0.012
-0.061
0.001
0.012
0.019
-0.058
-0.012
0.015
0.180
0.009
-0.033
0.148
-0.018
-0.002
0.087
-0.109
0.081
-0.110
0.147
0.074
-0.003
-0.043
0.085
0.041
0.050
0.038
-0.032
0.018
0.029
0.024
0.018
-0.001
-0.043
0.009
0.174
-0.013
-0.002
-0.059
0.126
-0.040
-0.021
0.122
0.039
-0.012
-0.022
0.121
-0.010
-0.024
0.040
-0.029
0.009
0.135
-0.023
-0.120
-0.009
-0.055
0.011
0.021
0.071
0.041
-0.011
0.016
-0.011
0.091
-0.056
-0.034
0.035
-0.020
0.123
0.075
-0.009
0.055
-0.090
0.063
0.057
0.101
0.101
-0.011
-0.055
-0.063
0.021
0.100
0.034
0.050
0.020
0.025
0.061
-0.101
0.039
-0.087
-0.019
0.119
0.116
0.079
-0.017
0.002
0.009
0.051
0.023
0.061
0.079
-0.005
0.097
-0.018
-0.006
-0.077
0.102
0.050
0.018
0.006
-0.035
-0.028
0.104
0.095
-0.049
-0.047
0.108
0.038
0.057
0.014
-0.000
-0.025
0.144
-0.105
-0.052
-0.042
0.030
0.059
0.076
0.090
0.006
-0.080
0.033
0.094
0.205
-0.092
0.016
0.105
0.050
0.033
-0.138
0.098
0.012
-0.064
0.067
0.107
0.045
-0.024
0.062
0.145
-0.009
0.029
0.018
-0.098
0.068
-0.010
0.131
-0.010
-0.022
0.032
0.092
0.092
0.033
-0.030
-0.015
0.059
0.095
0.061
-0.011
0.203
-0.005
0.020
-0.115
0.091
0.009
0.100
0.100
0.086
-0.085
-0.012
0.086
0.027
0.092
0.110
-0.033
-0.057
-0.113
-0.036
0.141
0.081
0.045
-0.020
0.046
0.087
0.025
0.056
-0.056
0.103
-0.056
-0.042
0.074
0.039
0.018
0.042
0.122
-0.011
-0.042
-0.011
0.086
-0.041
0.075
0.145
-0.018
-0.007
0.056
0.061
0.045
0.039
-0.045
0.045
0.104
-0.124
0.168
0.192
-0.053
-0.082
-0.028
0.044
-0.003
0.149
-0.018
0.001
0.023
-0.045
-0.078
0.092
0.005
0.003
-0.062
0.071
-0.134
0.022
0.035
0.050
0.016
0.013
-0.172
0.008
0.017
-0.011
0.065
-0.052
0.061
-0.003
-0.042
0.047
0.028
-0.007
0.010
0.004
0.015
0.004
-0.007
0.021
0.078
0.114
0.057
0.043
0.049
-0.049
0.014
-0.013
0.035
-0.047
0.167
0.141
0.046
-0.034
0.029
-0.135
0.001
-0.054
0.021
0.149
-0.056
-0.070
0.073
0.034
-0.045
0.115
-0.038
0.014
0.036
0.070
-0.033
-0.006
-0.025
0.073
0.062
0.065
0.062
-0.029
-0.022
0.068
0.172
-0.124
-0.072
0.092
-0.144
0.110
0.026
0.111
-0.025
-0.022
-0.133
-0.012
0.041
0.164
0.040
-0.007
-0.035
-0.025
0.078
-0.020
-0.036
0.146
0.076
-0.005
0.005
0.029
0.017
0.047
-0.046
0.074
0.004
0.005
0.091
0.159
-0.163
0.204
0.014
0.012
0.016
-0.016
0.063
0.060
-0.094
-0.000
0.114
-0.081
-0.013
0.040
-0.020
0.089
-0.008
-0.012
-0.017
-0.052
0.088
0.000
0.104
-0.041
-0.042
-0.098
0.133
0.015
-0.023
-0.008
0.049
-0.024
0.101
-0.014
0.128
-0.009
0.030
-0.012
0.166
-0.009
-0.072
0.106
0.019
0.168
-0.074
-0.084
0.009
0.066
0.033
0.047
-0.026
0.019
0.051
0.032
0.018
-0.061
0.173
0.046
-0.001
-0.075
-0.041
-0.050
0.114
0.040
0.077
-0.101
0.025
0.047
0.051
0.043
0.019
0.022
0.070
0.034
0.040
-0.078
-0.062
0.019
0.009
0.012
0.013
-0.085
-0.004
0.165
-0.072
-0.031
0.054
0.030
-0.023
0.057
0.102
0.017
0.017
-0.078
-0.010
0.152
-0.003
-0.060
0.106
-0.021
0.090
0.103
0.042
-0.093
-0.073
0.052
0.036
-0.010
-0.092
0.088
0.124
0.065
-0.049
-0.045
0.091
-0.136
0.057
0.085
0.027
-0.026
-0.048
0.081
0.015
0.007
0.034
0.033
0.090
0.032
0.101
0.024
0.034
-0.020
-0.059
-0.000
0.145
-0.122
-0.061
0.053
0.070
0.035
-0.045
0.044
0.019
0.033
-0.107
0.055
0.099
0.040
0.060
0.092
0.079
-0.068
-0.033
-0.009
0.084
0.110
0.007
0.047
-0.044
0.046
0.087
-0.058
0.038
-0.002
-0.032
0.090
-0.005
0.043
-0.065
-0.012
-0.039
0.030
0.038
-0.006
-0.025
0.116
0.008
0.011
-0.160
0.142
0.075
-0.030
0.053
0.064
0.010
-0.132
-0.060
-0.087
0.104
0.187
-0.036
0.022
-0.011
0.104
-0.104
-0.018
0.037
-0.046
-0.012
0.066
0.015
0.032
0.035
-0.018
0.007
-0.070
0.076
0.068
-0.007
0.016
-0.057
0.045
-0.011
0.122
0.026
-0.034
-0.104
0.002
0.058
0.037
0.138
-0.097
0.098
0.027
0.048
-0.083
0.050
-0.012
0.084
-0.076
-0.099
0.017
0.058
0.002
0.088
0.105
0.058
0.033
-0.122
-0.044
0.029
0.008
0.013
0.008
0.105
0.044
0.080
-0.009
0.076
-0.014
0.052
-0.007
0.061
-0.056
0.107
0.002
-0.000
-0.022
-0.031
0.037
-0.072
0.073
-0.007
0.061
0.050
0.007
-0.000
0.015
0.069
0.069
0.042
-0.004
0.096
0.011
-0.035
0.068
-0.051
0.072
0.065
0.016
-0.001
0.048
0.024
-0.072
-0.062
0.035
0.024
0.056
-0.052
0.003
0.032
0.151
-0.082
-0.006
0.007
-0.034
0.163
-0.021
-0.094
0.064
0.074
0.030
-0.080
-0.016
-0.008
0.222
-0.072
-0.044
0.056
0.016
0.090
0.044
-0.029
-0.036
0.024
0.021
0.113
0.005
-0.062
0.048
-0.054
0.119
0.024
0.060
0.031
0.035
0.072
-0.061
0.058
0.029
0.030
-0.010
0.015
0.012
0.018
0.063
-0.074
0.062
-0.036
0.073
0.001
0.011
-0.009
0.089
0.130
0.091
-0.004
0.015
0.022
-0.070
-0.013
-0.050
0.090
0.035
0.032
0.125
0.041
-0.006
-0.009
0.113
0.128
-0.035
0.016
0.025
0.013
0.019
-0.009
0.109
-0.075
-0.004
-0.005
0.051
-0.026
-0.065
0.030
-0.002
-0.023
0.097
-0.000
0.045
-0.043
0.008
0.069
0.033
0.047
0.100
-0.077
0.020
0.025
0.117
-0.097
0.055
-0.086
0.008
0.130
0.078
-0.025
-0.018
0.063
0.058
0.053
0.028
0.068
0.041
-0.079
-0.021
0.043
-0.031
-0.168
0.108
0.004
-0.026
0.062
0.125
-0.034
-0.095
0.036
0.117
0.041
-0.026
0.089
-0.003
-0.078
-0.044
0.029
0.085
0.025
0.077
-0.016
-0.059
0.122
-0.052
0.071
0.147
-0.059
-0.009
-0.004
-0.004
0.037
0.166
-0.101
-0.050
-0.064
0.108
0.020
0.070
-0.020
0.073
0.037
0.092
0.018
-0.027
0.086
0.049
-0.016
0.025
0.148
0.003
-0.052
0.123
0.040
-0.046
-0.013
0.051
0.051
-0.005
-0.045
0.136
-0.052
0.103
0.007
-0.094
0.051
0.059
-0.016
0.053
-0.011
0.043
0.083
0.060
0.003
0.020
-0.132
0.169
-0.076
-0.034
-0.002
0.166
-0.040
-0.003
-0.003
0.019
0.106
0.023
0.024
0.070
-0.006
-0.085
0.157
-0.039
-0.044
0.094
-0.009
0.023
0.032
0.092
0.000
-0.029
-0.137
0.019
0.011
0.080
-0.022
0.009
0.058
0.095
-0.039
0.148
-0.066
0.003
0.002
-0.032
-0.045
0.027
-0.057
0.141
0.060
-0.111
-0.000
0.078
-0.015
-0.026
-0.007
0.069
-0.064
0.093
0.080
-0.035
0.013
0.041
-0.067
-0.063
0.072
0.004
0.052
0.053
-0.031
0.050
0.034
-0.048
0.036
0.000
0.011
-0.038
0.016
0.124
0.038
0.037
0.022
-0.027
0.001
-0.038
0.202
-0.050
-0.155
0.109
0.141
-0.039
0.096
0.063
0.063
0.063
-0.125
0.103
-0.118
0.026
0.004
0.038
-0.015
0.014
0.049
-0.058
0.040
0.034
-0.056
0.062
0.065
0.046
-0.035
0.055
-0.108
0.118
0.028
0.045
-0.033
-0.031
0.142
0.068
-0.024
-0.042
0.032
0.044
0.047
0.024
0.004
0.013
0.033
0.147
-0.028
0.066
-0.103
0.021
0.058
0.086
0.101
-0.073
0.074
0.007
0.023
0.042
0.024
0.054
-0.019
-0.047
0.011
0.084
-0.011
0.025
-0.025
0.048
0.040
0.039
0.001
0.063
-0.075
0.031
-0.068
0.150
-0.032
-0.008
0.052
0.173
0.028
0.032
0.007
0.004
0.016
0.080
0.067
0.058
-0.075
0.020
-0.014
0.003
0.139
-0.009
-0.103
0.068
0.135
-0.010
-0.016
-0.031
0.080
0.030
0.131
0.006
0.049
-0.016
-0.059
0.074
0.027
0.115
0.030
0.122
0.005
0.032
-0.032
-0.015
0.060
0.117
-0.143
0.115
-0.008
0.050
0.029
0.095
0.011
-0.037
0.027
0.088
0.005
0.016
-0.121
-0.001
0.045
0.034
0.051
-0.013
-0.036
0.070
0.046
0.043
-0.069
0.112
0.042
0.104
0.050
-0.115
0.089
0.039
0.009
-0.037
-0.089
0.157
0.083
-0.013
0.045
-0.138
-0.038
-0.024
0.059
-0.030
0.004
0.098
-0.115
0.023
0.011
0.043
-0.002
-0.016
0.138
-0.074
0.057
0.094
-0.064
-0.060
0.086
0.063
0.082
-0.084
-0.205
0.009
0.052
0.089
0.094
0.028
-0.060
0.009
-0.002
0.066
-0.006
0.029
-0.040
0.027
0.087
0.099
-0.003
-0.024
0.044
0.023
-0.020
-0.042
0.080
0.061
0.002
0.049
0.021
-0.014
-0.100
0.102
0.066
0.095
0.017
0.062
-0.053
-0.003
-0.010
-0.011
0.149
-0.002
0.023
0.031
-0.037
-0.029
0.059
0.072
0.027
0.047
0.095
0.029
0.101
-0.098
0.055
0.120
0.128
0.016
-0.082
-0.031
0.063
0.095
0.019
-0.016
0.061
0.065
0.087
-0.026
0.045
0.042
0.039
-0.105
-0.004
0.053
0.012
-0.051
0.017
0.109
-0.007
0.168
-0.017
-0.023
0.095
0.081
0.002
0.039
0.010
0.106
0.026
-0.080
-0.007
0.067
0.046
0.005
0.021
-0.001
0.083
-0.040
-0.035
0.061
-0.011
0.011
-0.075
-0.015
0.042
0.125
-0.083
0.013
0.011
0.006
0.033
-0.087
-0.056
0.034
0.079
0.164
0.059
-0.053
-0.034
-0.038
0.002
0.058
-0.041
0.053
0.051
-0.053
0.132
0.119
-0.038
0.010
0.013
-0.043
0.080
0.025
0.037
0.021
0.076
0.037
0.006
0.082
0.046
0.046
-0.042
-0.005
-0.027
0.029
-0.006
0.074
-0.045
-0.145
0.023
0.071
0.020
0.106
-0.001
0.008
0.090
0.014
-0.059
-0.026
0.029
-0.029
0.066
0.066
0.063
0.043
-0.021
0.043
-0.030
0.008
0.069
0.082
0.041
-0.024
0.018
-0.078
-0.052
0.020
0.117
-0.078
0.091
0.068
0.017
-0.030
-0.063
0.059
-0.055
0.085
0.044
0.066
0.042
-0.079
0.061
-0.020
0.003
0.100
0.011
-0.145
-0.027
0.117
0.018
-0.055
-0.012
0.044
0.100
0.036
-0.018
0.080
0.037
-0.074
-0.056
-0.042
0.004
0.008
0.026
0.043
0.039
-0.069
0.062
0.007
0.107
-0.088
0.003
0.020
0.030
0.043
-0.159
0.110
0.056
0.012
0.004
-0.014
0.026
-0.094
0.051
0.102
0.048
0.026
-0.032
0.025
0.041
0.073
-0.078
0.019
0.055
-0.006
0.236
0.022
-0.044
-0.083
0.008
-0.153
0.068
0.049
0.119
0.086
0.057
0.041
0.025
0.063
-0.075
0.031
-0.036
0.104
0.022
-0.077
0.021
-0.073
0.003
0.082
0.091
0.075
0.102
-0.039
-0.041
0.041
-0.021
0.013
0.033
0.117
0.016
0.065
-0.020
-0.021
-0.005
0.018
0.046
-0.072
0.076
-0.040
-0.013
0.116
-0.016
0.007
-0.006
0.050
-0.037
0.027
-0.020
0.015
-0.004
0.034
0.084
-0.008
-0.058
0.064
0.072
-0.056
-0.015
-0.034
-0.018
-0.017
0.029
0.138
0.013
-0.007
0.060
0.001
-0.080
0.006
-0.010
-0.007
0.134
0.018
-0.060
0.111
-0.058
0.048
-0.005
0.052
-0.007
0.030
-0.026
0.061
0.046
0.034
0.089
0.083
-0.003
0.043
0.016
-0.057
-0.010
0.021
0.023
0.053
-0.100
-0.083
0.100
0.128
0.123
-0.020
-0.003
-0.010
-0.005
0.091
0.073
0.087
-0.116
-0.025
0.007
-0.031
0.098
0.081
-0.074
0.055
-0.069
0.097
-0.074
0.066
0.129
0.114
0.002
0.005
-0.002
0.041
0.054
0.067
0.091
0.029
0.002
-0.046
0.033
0.067
-0.016
0.030
-0.014
0.003
0.075
0.126
0.003
-0.045
0.066
0.081
0.035
-0.029
0.070
-0.090
0.069
0.023
-0.063
-0.023
0.111
0.022
0.136
-0.014
-0.074
-0.090
0.028
0.131
0.027
-0.015
0.058
0.043
0.098
0.026
-0.057
0.020
0.186
-0.026
-0.042
-0.061
0.091
-0.022
0.052
0.037
0.069
0.022
-0.024
-0.065
0.096
-0.003
-0.079
-0.032
0.044
-0.066
0.010
0.202
0.067
-0.127
0.031
0.090
0.111
0.073
0.057
-0.123
0.042
0.006
0.124
0.106
0.028
0.047
0.054
-0.051
-0.070
0.160
0.041
0.139
-0.127
0.166
-0.052
-0.058
0.040
0.080
0.011
0.107
0.028
-0.036
0.007
-0.011
0.084
0.056
0.000
0.002
0.071
-0.034
0.064
0.105
-0.033
0.007
0.111
0.000
0.075
0.008
0.065
-0.004
-0.103
0.134
0.080
-0.060
0.000
0.039
0.081
0.085
-0.076
-0.064
0.024
0.067
-0.031
0.069
0.106
0.017
0.128
0.096
-0.025
-0.042
0.030
-0.051
0.172
-0.074
-0.035
0.042
0.012
0.209
0.016
-0.087
-0.063
0.078
0.010
0.043
-0.011
-0.016
-0.017
0.082
-0.048
-0.008
-0.076
0.057
-0.005
0.088
-0.052
0.041
0.066
-0.009
-0.057
0.030
0.038
0.087
0.197
-0.072
-0.041
0.027
0.052
-0.031
-0.026
-0.015
0.087
0.087
0.061
-0.076
0.148
-0.028
-0.075
-0.110
0.094
0.078
-0.046
-0.010
0.018
0.110
0.100
-0.078
0.006
0.004
-0.055
-0.005
0.054
-0.021
0.039
0.074
-0.028
0.038
0.038
0.002
0.008
0.085
0.017
-0.019
0.011
0.060
-0.037
0.186
-0.048
0.112
-0.115
0.102
0.143
0.135
0.020
-0.099
-0.079
0.098
0.090
-0.060
-0.118
0.040
0.131
-0.007
-0.007
0.022
0.129
-0.091
0.058
0.013
-0.039
0.031
-0.008
0.014
0.046
0.036
0.113
0.006
-0.041
0.023
0.001
0.129
0.066
0.112
-0.043
0.078
-0.023
-0.010
0.066
0.030
-0.033
0.126
0.058
0.010
-0.037
-0.122
0.097
0.009
0.031
0.094
0.077
-0.051
0.012
0.003
-0.026
0.139
-0.016
-0.045
-0.052
-0.027
0.138
-0.055
0.019
-0.056
0.093
-0.013
0.062
0.098
-0.027
-0.010
-0.020
0.008
0.112
0.056
0.096
-0.084
-0.012
0.022
0.080
0.019
0.009
0.025
0.086
-0.024
0.024
0.041
0.041
0.012
0.001
0.080
0.086
0.054
-0.113
0.047
0.105
0.094
0.000
-0.013
-0.095
0.039
0.020
0.023
0.018
0.106
0.052
0.007
-0.031
-0.046
0.193
0.097
-0.144
-0.006
0.032
0.007
-0.074
-0.026
-0.009
0.098
0.140
0.060
-0.141
-0.046
0.005
0.099
-0.033
-0.037
0.050
0.125
0.070
0.086
0.039
-0.025
-0.047
0.038
-0.041
0.039
0.161
0.080
-0.050
-0.088
0.000
0.091
0.062
-0.073
0.007
0.067
-0.072
0.034
0.141
0.043
-0.049
0.005
0.010
0.011
0.015
0.087
-0.032
-0.056
0.051
-0.033
-0.042
0.090
-0.045
0.030
0.049
-0.090
0.021
0.056
-0.066
0.030
0.099
-0.011
0.032
-0.016
-0.013
-0.020
0.036
-0.029
-0.022
0.056
0.091
0.047
-0.053
-0.058
-0.044
-0.097
0.037
0.033
0.001
0.056
-0.018
-0.056
0.021
0.148
-0.007
0.022
-0.184
0.157
0.061
0.019
0.088
0.010
-0.018
0.028
-0.022
0.061
0.091
-0.038
-0.114
0.058
0.031
0.106
0.035
0.002
0.061
-0.064
0.034
-0.014
0.027
-0.002
0.050
0.122
0.050
-0.083
-0.082
0.039
0.085
0.004
-0.021
0.078
-0.003
-0.044
0.006
0.004
0.092
-0.074
-0.024
-0.060
0.108
0.118
-0.028
-0.100
0.037
0.087
0.031
0.080
-0.088
-0.033
0.029
-0.073
0.109
0.028
0.043
0.095
-0.048
0.023
-0.012
0.015
0.029
-0.083
-0.023
0.099
0.124
0.103
0.121
-0.013
-0.039
0.044
0.065
0.030
0.015
0.119
0.098
-0.047
-0.039
-0.016
0.028
-0.013
0.091
-0.029
0.069
-0.122
0.064
0.098
0.076
-0.047
0.011
-0.072
-0.077
0.091
-0.022
0.039
-0.017
0.023
-0.014
-0.039
-0.121
0.093
0.097
0.015
0.066
0.003
-0.084
0.064
0.034
0.050
0.055
0.058
0.051
0.047
0.118
0.006
0.057
0.084
0.098
-0.025
0.117
0.024
-0.018
-0.029
0.020
-0.025
0.082
0.176
-0.014
0.108
-0.103
-0.182
0.117
0.152
0.055
-0.064
0.023
-0.042
0.025
0.019
-0.067
0.112
0.133
-0.083
0.044
0.055
-0.002
0.149
-0.106
-0.054
0.137
-0.061
0.150
0.147
0.045
-0.029
-0.032
0.046
-0.030
-0.114
0.045
0.110
0.012
0.050
-0.041
0.008
0.033
0.004
0.070
0.002
-0.041
0.027
0.072
0.052
0.022
-0.004
-0.008
0.045
0.038
0.088
-0.025
0.014
0.014
-0.068
0.036
0.022
0.022
0.051
-0.084
0.074
0.054
-0.067
0.039
0.069
-0.097
0.033
0.054
-0.077
0.070
0.081
0.031
-0.087
-0.014
0.019
0.093
0.043
-0.050
-0.032
0.069
-0.074
0.177
-0.056
-0.092
0.001
0.050
0.026
0.043
-0.008
-0.086
0.020
0.053
0.017
-0.022
0.016
0.104
0.063
-0.042
0.020
0.017
-0.064
0.012
0.084
0.071
-0.015
-0.076
0.068
0.121
0.008
-0.018
0.064
0.033
0.030
0.070
0.053
0.058
-0.040
-0.038
-0.051
-0.005
-0.057
-0.031
0.129
0.122
0.011
0.068
-0.022
-0.016
-0.017
-0.033
0.124
0.048
-0.033
0.069
0.036
0.129
-0.044
0.069
-0.018
-0.070
0.103
0.131
0.018
-0.034
0.150
0.027
-0.056
0.130
-0.095
-0.032
0.043
-0.068
0.048
0.157
0.137
0.067
-0.018
-0.059
0.085
0.086
0.012
0.037
-0.040
0.110
0.017
0.060
0.017
0.006
-0.002
-0.028
0.108
-0.065
0.081
-0.081
0.057
0.081
0.020
0.086
0.001
0.032
0.020
0.014
0.104
-0.077
0.070
0.024
0.042
0.037
0.061
0.099
0.028
-0.026
-0.052
-0.041
0.023
0.028
0.104
-0.012
0.101
0.110
0.001
0.036
-0.045
0.000
0.134
-0.036
0.051
0.080
0.042
-0.084
-0.067
0.053
0.018
0.027
-0.002
-0.015
0.002
0.015
0.012
-0.137
-0.031
0.095
0.182
-0.006
-0.087
0.059
-0.128
0.084
0.101
0.076
0.079
-0.004
-0.118
0.042
0.115
0.003
0.054
-0.033
0.026
0.082
-0.096
0.057
0.112
-0.005
0.002
0.100
0.024
-0.039
0.017
-0.027
-0.019
-0.065
0.118
0.017
0.036
0.068
0.103
-0.138
-0.065
-0.043
0.010
0.138
0.051
0.051
-0.027
-0.036
0.033
0.068
0.092
-0.035
-0.029
0.129
-0.101
0.139
0.138
-0.028
-0.069
0.077
-0.040
-0.057
0.025
0.069
0.090
0.057
0.007
-0.016
-0.085
0.149
0.111
0.015
-0.001
-0.002
0.061
0.198
0.062
0.020
-0.003
0.006
-0.041
-0.110
0.015
-0.008
0.051
0.054
-0.026
-0.027
0.098
0.023
0.030
-0.031
-0.039
0.065
0.119
-0.027
-0.022
0.056
-0.063
0.040
0.035
0.126
0.105
0.043
-0.089
-0.061
0.162
0.052
-0.023
0.009
-0.127
0.061
0.010
0.030
0.017
0.077
-0.058
0.056
0.164
0.099
-0.033
-0.000
-0.053
0.013
-0.005
0.136
0.003
-0.075
0.018
0.036
0.033
-0.056
0.126
-0.043
0.114
-0.083
-0.029
0.100
0.003
0.020
0.056
0.038
0.031
-0.038
0.028
0.056
0.090
0.055
-0.037
0.029
0.001
0.013
0.010
0.153
-0.039
0.042
0.067
-0.065
0.035
0.013
0.192
0.040
-0.046
-0.058
0.035
-0.029
0.054
0.045
0.026
0.063
-0.025
0.045
0.052
-0.047
0.130
0.064
0.021
-0.158
-0.042
0.015
0.240
0.113
-0.024
-0.037
-0.089
0.006
0.094
-0.032
0.094
-0.034
0.019
-0.024
0.040
0.031
-0.049
0.058
-0.085
0.099
0.086
0.089
-0.008
0.005
0.027
0.143
0.011
-0.048
-0.085
0.046
0.015
-0.000
-0.007
-0.078
0.012
0.083
0.022
-0.010
-0.096
0.032
-0.119
0.119
0.036
0.025
-0.001
-0.023
0.085
0.033
-0.059
0.017
-0.181
0.019
0.166
0.045
0.062
-0.029
0.071
0.020
-0.043
0.106
-0.038
-0.069
0.172
-0.019
-0.090
0.081
0.094
0.095
-0.085
0.042
0.027
0.057
0.024
0.025
-0.015
-0.025
0.023
0.035
0.007
-0.111
0.129
-0.005
0.091
0.045
0.076
-0.025
0.054
0.032
0.013
0.009
-0.063
0.047
0.054
0.002
0.069
-0.037
-0.002
-0.029
0.084
0.006
0.096
0.066
0.059
-0.037
-0.015
-0.097
0.046
-0.056
0.057
0.010
0.009
0.110
0.082
-0.034
-0.146
0.109
0.129
-0.069
0.046
-0.058
0.097
0.078
0.120
-0.204
-0.023
0.023
0.096
0.110
0.013
-0.070
-0.005
0.039
0.059
0.027
-0.017
0.027
-0.070
0.001
0.087
0.129
-0.041
0.108
-0.123
0.019
0.009
0.116
-0.007
0.098
0.056
-0.020
0.026
-0.076
0.059
-0.109
0.043
0.073
0.043
-0.007
0.033
0.040
0.102
0.088
-0.044
-0.010
0.002
0.006
-0.018
0.005
0.077
-0.024
0.020
-0.017
-0.040
0.057
0.049
-0.020
-0.054
0.098
-0.041
-0.019
0.081
0.080
0.028
0.011
0.168
0.057
0.062
0.082
-0.065
0.025
-0.096
0.061
0.115
0.101
0.059
-0.067
0.031
0.048
0.175
0.031
-0.074
0.049
-0.024
0.111
0.138
-0.018
0.059
-0.034
0.030
-0.036
0.044
0.009
0.122
-0.007
0.078
-0.076
-0.021
0.044
0.116
-0.010
-0.070
-0.035
0.025
0.012
0.036
0.059
0.064
0.065
-0.016
0.013
-0.046
0.000
0.042
0.081
-0.082
0.011
-0.030
0.074
-0.030
-0.033
-0.039
0.115
0.123
-0.057
0.033
-0.019
-0.047
0.197
0.111
-0.030
-0.026
-0.082
0.087
-0.030
0.046
0.020
-0.039
0.061
0.069
-0.068
0.064
0.018
-0.008
0.061
0.045
-0.018
0.125
0.018
0.071
0.061
-0.019
-0.044
0.046
0.226
-0.049
0.071
0.053
-0.029
-0.151
-0.062
0.146
0.041
0.060
-0.041
-0.061
0.062
-0.081
0.013
0.017
-0.010
0.103
-0.063
0.089
0.066
0.066
-0.027
-0.062
0.060
0.024
0.025
-0.057
-0.065
0.120
-0.008
-0.028
0.049
0.051
-0.073
0.086
-0.031
0.119
-0.049
0.035
-0.035
-0.029
0.070
0.049
0.150
0.041
-0.073
0.079
0.049
-0.067
-0.113
0.075
0.114
0.094
0.080
0.002
0.043
-0.081
0.039
0.026
0.071
-0.083
0.036
0.056
-0.009
0.046
0.027
-0.043
0.029
-0.054
0.030
-0.020
-0.027
0.035
0.040
0.027
0.080
-0.054
0.083
-0.000
-0.023
-0.031
0.092
0.085
-0.042
-0.128
0.097
0.060
-0.122
-0.036
0.122
0.085
0.059
-0.003
-0.052
0.093
0.073
-0.058
-0.050
0.040
0.101
-0.023
-0.066
-0.033
0.028
0.114
0.103
0.083
-0.081
0.013
-0.061
0.130
0.013
-0.030
0.050
0.064
0.013
-0.029
0.142
0.113
-0.054
0.003
0.120
0.068
-0.140
0.018
0.054
0.066
-0.010
0.027
0.070
0.004
0.037
0.089
0.020
-0.071
0.030
-0.026
0.037
0.191
-0.017
0.007
-0.060
-0.041
0.101
0.055
-0.137
0.058
0.109
0.034
0.037
-0.028
-0.003
0.033
0.010
-0.038
0.033
0.082
-0.022
-0.029
0.045
0.063
-0.045
-0.057
0.116
0.008
0.101
0.013
-0.006
-0.017
0.044
-0.006
0.042
0.086
-0.009
0.100
0.031
-0.009
0.034
-0.037
-0.174
0.025
-0.020
0.038
0.243
0.079
-0.012
-0.094
0.054
0.102
-0.036
0.048
0.004
0.043
-0.007
-0.014
-0.036
0.135
0.017
0.034
-0.003
0.042
-0.062
-0.004
0.026
0.059
0.045
0.017
-0.115
0.082
-0.099
0.036
0.097
0.122
0.044
-0.078
-0.089
-0.057
0.250
0.032
0.025
-0.035
0.018
0.086
-0.009
0.025
-0.007
0.008
0.191
0.032
-0.018
-0.012
0.053
0.105
-0.018
0.054
0.016
0.000
-0.067
0.067
0.110
0.051
-0.032
0.027
0.066
-0.086
0.037
0.040
0.014
0.058
-0.002
-0.017
-0.011
-0.029
0.089
0.011
-0.001
-0.026
0.085
0.087
0.011
0.017
0.067
0.063
0.103
-0.051
0.010
0.116
0.006
0.004
0.022
0.023
-0.012
-0.012
-0.008
-0.016
0.082
0.038
-0.041
-0.059
-0.012
-0.017
0.030
-0.020
0.103
-0.124
0.130
0.031
-0.029
-0.006
0.011
0.068
0.081
0.099
-0.013
0.070
-0.080
-0.028
-0.035
0.075
0.002
0.103
-0.111
0.054
-0.021
0.005
-0.057
0.031
-0.019
-0.019
0.103
0.091
-0.008
0.017
-0.075
-0.050
0.101
0.050
-0.062
0.053
-0.023
-0.114
0.121
-0.060
0.028
-0.027
0.082
0.097
0.004
0.019
-0.124
0.011
-0.026
0.129
0.004
0.017
-0.008
0.024
0.057
-0.002
0.063
-0.114
-0.032
0.016
0.051
0.004
0.082
0.058
-0.040
0.169
0.070
0.054
-0.014
-0.020
-0.040
-0.001
0.007
0.093
-0.025
0.061
0.002
0.152
0.012
-0.105
0.058
0.013
0.049
0.052
0.018
0.005
-0.070
-0.091
0.087
0.185
0.008
0.052
-0.041
0.031
-0.016
-0.019
0.000
-0.012
0.062
0.135
-0.056
0.095
-0.128
0.093
0.201
-0.030
-0.089
0.107
0.095
-0.114
0.003
0.085
0.118
-0.069
0.094
-0.015
-0.064
0.111
0.003
-0.043
-0.079
-0.021
0.059
-0.053
0.323
-0.076
-0.047
0.058
0.114
0.078
0.008
0.079
0.036
0.029
0.101
0.025
0.088
-0.048
0.038
-0.000
0.007
0.068
-0.016
-0.046
-0.012
0.047
0.104
-0.076
0.068
0.021
-0.032
0.039
0.070
-0.103
0.043
0.110
-0.043
-0.010
0.023
-0.031
0.094
0.001
-0.056
0.020
0.010
0.059
-0.043
0.100
0.116
0.029
0.060
0.040
-0.053
-0.066
0.075
0.131
-0.018
0.099
0.146
-0.067
-0.051
0.038
-0.004
-0.044
0.005
0.046
-0.064
-0.039
0.128
-0.104
0.025
0.033
0.030
0.038
0.101
0.082
-0.015
0.042
-0.018
0.017
0.040
0.026
0.046
-0.106
0.109
0.127
0.091
-0.042
0.039
-0.020
-0.052
0.043
-0.075
0.109
0.078
-0.069
0.008
0.039
-0.022
0.066
-0.049
0.087
-0.100
-0.027
0.044
0.047
0.021
0.052
0.044
-0.072
-0.079
0.054
0.009
0.080
0.017
0.055
0.134
-0.065
0.073
-0.009
0.131
-0.016
0.047
-0.072
0.037
0.126
0.055
0.002
0.051
-0.074
0.076
-0.036
0.033
-0.050
0.120
0.026
0.081
0.086
-0.003
-0.026
0.063
0.094
-0.051
0.012
-0.063
0.115
-0.014
0.022
-0.095
0.116
0.021
0.085
-0.048
0.119
0.174
-0.044
-0.090
0.018
0.090
0.068
0.083
-0.095
0.001
0.073
0.061
0.039
-0.026
-0.051
0.063
-0.063
0.062
-0.003
0.052
0.071
0.099
0.181
-0.010
-0.018
0.011
-0.017
-0.002
-0.033
-0.081
0.042
0.049
0.176
0.018
0.057
0.050
-0.005
-0.021
-0.046
0.007
-0.023
0.111
0.194
-0.037
-0.081
0.069
0.029
-0.006
0.145
-0.097
0.035
0.059
-0.004
0.073
0.094
0.040
-0.019
-0.035
-0.056
0.032
-0.029
0.185
0.050
-0.141
-0.035
0.074
0.102
0.083
0.055
-0.062
0.053
-0.017
0.017
0.070
-0.010
0.069
-0.037
-0.007
0.001
-0.086
0.043
0.133
-0.109
-0.029
0.082
-0.008
-0.002
-0.007
-0.071
0.094
0.044
0.121
0.017
0.037
-0.091
0.090
-0.009
0.066
0.062
0.034
-0.048
-0.059
0.086
0.106
0.099
0.003
0.097
0.054
-0.065
0.020
-0.103
0.111
-0.141
0.062
0.013
-0.098
0.104
0.059
-0.087
0.020
0.076
-0.008
0.005
0.040
0.027
0.080
-0.104
-0.019
0.148
0.076
0.025
-0.005
0.068
-0.058
-0.036
0.123
-0.018
-0.013
0.013
-0.046
0.067
0.047
-0.044
0.012
0.078
0.046
-0.181
0.128
0.071
-0.001
0.033
-0.013
0.084
0.052
-0.117
0.012
0.128
0.121
-0.062
0.017
-0.064
-0.045
0.094
0.113
-0.003
-0.030
-0.067
0.044
0.150
-0.028
-0.043
-0.021
-0.021
-0.047
0.029
-0.043
0.109
0.083
-0.118
-0.039
0.015
-0.035
0.028
0.170
0.020
-0.031
0.028
0.061
0.009
0.012
0.065
0.031
0.085
-0.091
0.128
0.067
0.011
-0.042
-0.003
-0.057
-0.038
0.084
-0.039
0.020
-0.043
-0.003
0.174
-0.081
0.045
-0.024
0.047
0.027
-0.077
-0.015
-0.028
0.024
0.132
0.001
0.028
-0.023
-0.105
0.066
-0.009
0.114
-0.025
0.067
-0.038
0.014
0.042
0.015
0.023
-0.029
0.038
0.059
0.128
0.009
-0.045
-0.001
0.029
0.003
-0.130
0.051
0.078
0.096
0.005
-0.017
-0.015
-0.008
0.064
-0.036
0.031
0.017
0.122
0.051
0.116
-0.031
-0.049
-0.047
0.124
0.065
-0.015
0.001
0.072
0.035
0.044
0.032
-0.092
-0.069
-0.035
0.066
0.071
0.052
-0.085
0.053
0.039
0.017
0.008
0.002
0.063
0.145
-0.090
0.075
0.114
0.048
0.009
0.014
0.053
0.001
-0.020
-0.093
0.014
0.166
-0.015
-0.060
0.059
0.022
0.055
-0.015
0.128
-0.026
0.092
-0.029
0.063
0.002
0.120
0.030
0.027
-0.001
0.100
-0.070
0.064
-0.033
0.053
0.100
0.004
-0.060
0.110
0.047
0.013
0.022
0.009
0.073
0.071
0.007
0.068
0.084
-0.078
0.032
-0.016
0.079
-0.045
-0.019
0.057
0.010
0.007
0.064
0.059
0.017
0.035
0.016
-0.040
0.080
-0.006
0.006
-0.009
0.047
-0.024
0.074
0.022
-0.016
-0.028
-0.101
0.237
0.013
0.016
-0.020
0.043
-0.013
0.151
0.068
0.080
0.051
-0.051
0.004
-0.085
0.084
-0.023
0.074
-0.054
0.101
0.010
0.056
-0.081
-0.049
0.135
0.035
-0.043
0.034
0.053
-0.096
-0.082
-0.014
0.011
0.135
0.091
0.093
0.001
-0.051
0.043
-0.068
0.031
0.050
0.004
-0.002
-0.006
0.008
-0.033
0.086
-0.153
0.155
0.030
-0.083
0.064
-0.080
0.081
-0.066
0.099
-0.000
-0.035
0.057
-0.041
-0.054
0.123
0.078
0.026
-0.017
0.122
-0.066
-0.028
0.027
0.037
0.123
0.077
-0.163
-0.039
0.028
0.086
0.009
-0.033
-0.006
0.048
-0.007
0.060
0.061
-0.116
0.055
-0.020
-0.002
-0.013
0.057
-0.014
0.020
0.021
0.100
0.069
-0.102
-0.038
-0.003
0.079
0.071
-0.017
-0.037
0.044
-0.029
-0.007
0.020
0.117
0.044
0.151
0.056
-0.058
-0.074
0.054
0.031
0.000
-0.005
0.011
-0.035
-0.025
-0.004
0.118
0.069
0.015
-0.086
0.062
-0.007
-0.013
-0.004
0.001
0.039
-0.044
0.142
-0.024
-0.001
0.018
0.213
-0.017
-0.050
-0.001
0.061
0.010
0.066
-0.052
0.032
-0.023
0.015
-0.042
0.118
0.069
0.052
-0.099
0.045
-0.101
0.057
0.094
0.008
0.018
0.117
-0.044
0.058
0.139
-0.006
-0.025
0.016
0.050
0.090
0.043
0.008
0.040
0.046
-0.026
-0.032
-0.068
-0.016
0.086
-0.112
0.041
-0.005
0.034
0.078
-0.020
0.003
0.003
-0.074
0.136
-0.080
0.111
-0.073
0.025
-0.067
0.093
0.007
-0.085
0.119
0.106
0.129
-0.077
-0.031
0.007
0.113
0.033
-0.018
-0.004
0.029
0.082
-0.009
-0.032
0.070
-0.024
-0.006
-0.004
0.156
0.016
-0.032
0.007
0.034
0.020
0.077
-0.093
0.002
-0.031
0.062
-0.041
0.087
-0.024
-0.021
0.056
0.122
0.084
0.006
-0.018
-0.063
-0.017
0.078
0.032
0.037
0.054
-0.034
-0.032
0.018
0.039
-0.013
0.082
0.047
-0.087
0.006
-0.002
-0.062
0.021
0.121
0.123
0.080
-0.053
-0.067
-0.019
0.038
0.082
-0.027
-0.012
0.019
0.019
-0.001
0.034
0.069
0.108
0.080
0.031
-0.077
-0.021
-0.040
0.119
0.154
-0.104
0.056
0.024
0.127
0.103
-0.043
-0.008
-0.070
-0.026
-0.030
0.017
0.019
0.053
0.024
0.019
0.005
0.022
-0.002
-0.045
0.165
-0.053
0.142
0.009
0.148
-0.091
0.100
0.001
-0.057
0.046
-0.043
0.022
-0.001
-0.032
0.004
0.026
0.089
-0.024
0.086
0.064
0.049
-0.003
-0.023
-0.002
0.036
-0.040
0.140
0.146
0.091
0.000
-0.069
0.017
0.109
0.034
-0.022
0.035
-0.111
0.060
0.007
0.046
0.008
0.092
0.010
0.026
0.104
-0.135
-0.010
0.037
0.042
0.185
0.046
-0.105
-0.012
0.037
0.021
0.122
0.018
0.066
0.019
-0.009
-0.062
0.127
0.033
-0.022
0.071
0.087
-0.019
0.090
-0.093
-0.026
0.041
-0.050
0.065
0.041
-0.046
-0.006
0.070
0.086
-0.007
-0.014
0.005
-0.005
-0.028
0.151
0.016
0.088
-0.057
-0.081
0.020
-0.106
0.026
-0.046
0.129
0.173
-0.037
-0.007
-0.071
-0.141
0.068
0.076
0.029
-0.032
0.092
-0.060
-0.033
-0.022
-0.018
0.055
-0.004
0.059
-0.008
-0.001
0.086
-0.054
-0.029
0.119
0.047
0.051
0.110
-0.023
0.071
-0.071
0.062
0.072
-0.009
-0.009
0.015
0.013
-0.016
0.034
-0.041
0.036
-0.056
0.011
0.097
0.017
-0.038
-0.040
0.048
-0.058
0.087
0.074
-0.084
0.038
0.063
-0.034
0.016
0.046
0.135
-0.020
-0.040
0.036
0.083
0.035
0.126
0.046
0.033
0.053
0.055
0.104
-0.072
-0.008
0.009
-0.045
-0.014
0.151
-0.021
-0.047
0.028
-0.016
0.136
-0.055
0.073
0.059
0.008
0.039
0.035
0.113
0.094
-0.002
0.060
-0.074
0.006
-0.006
0.051
0.027
0.202
0.037
0.024
-0.012
-0.068
-0.040
0.081
0.014
0.004
0.040
0.033
-0.026
0.130
0.025
-0.048
0.047
0.133
0.006
0.020
-0.053
0.117
-0.022
0.051
0.092
0.092
-0.007
0.009
0.029
-0.105
-0.005
-0.125
0.090
0.007
0.025
0.037
0.091
0.040
0.003
-0.023
0.099
-0.083
0.087
0.044
0.104
0.032
0.008
0.075
0.121
-0.132
0.053
-0.003
0.039
-0.044
0.103
-0.029
-0.058
0.063
0.111
0.054
-0.012
0.006
0.055
0.060
0.033
0.065
-0.081
0.153
0.053
0.029
0.008
-0.048
-0.060
0.161
0.116
-0.044
0.066
-0.126
0.016
0.086
0.030
0.068
-0.015
-0.016
0.107
-0.072
0.058
-0.012
-0.019
0.060
-0.035
0.133
0.010
0.179
-0.059
0.039
-0.002
0.047
-0.019
-0.019
0.089
0.085
-0.022
0.018
0.014
0.019
0.026
0.095
-0.091
0.137
0.025
0.071
0.064
0.086
-0.043
-0.026
0.095
-0.004
-0.020
-0.003
0.029
0.014
0.084
0.053
-0.013
0.033
0.031
0.082
0.024
0.019
0.072
0.038
-0.023
-0.005
-0.077
-0.000
0.148
0.088
0.049
0.106
-0.148
-0.019
0.051
0.022
-0.004
0.011
0.006
-0.059
0.114
0.002
0.134
0.084
0.046
0.116
0.010
-0.017
-0.107
0.089
0.077
0.054
0.082
0.045
-0.018
-0.030
0.044
-0.078
0.006
-0.089
-0.029
0.123
0.067
0.054
0.044
0.014
0.046
-0.029
-0.002
0.056
0.021
0.071
-0.014
0.052
-0.054
-0.016
0.042
0.026
-0.006
-0.004
0.035
0.140
0.065
-0.098
0.006
0.042
0.063
0.060
0.021
-0.006
0.079
-0.051
0.062
0.076
0.049
0.021
-0.053
0.050
0.065
0.028
0.019
0.102
-0.039
-0.027
0.047
0.070
-0.017
0.054
-0.009
-0.057
0.106
-0.030
0.087
0.036
-0.035
0.155
0.029
-0.011
-0.082
0.044
0.102
0.035
0.008
0.006
0.011
-0.033
0.081
0.097
0.041
-0.015
0.059
0.137
0.038
-0.029
-0.051
0.079
0.043
-0.019
-0.040
0.128
0.067
0.032
0.111
0.002
-0.060
-0.001
-0.004
-0.021
0.104
0.011
0.047
0.096
-0.036
-0.098
0.060
0.053
-0.028
0.094
0.106
-0.016
-0.037
0.000
0.043
0.106
0.018
-0.066
-0.007
-0.011
-0.041
0.105
0.036
0.026
-0.020
0.019
0.059
0.094
0.041
-0.067
-0.069
0.085
-0.082
0.007
0.079
0.043
0.108
-0.069
0.007
-0.034
0.112
0.117
-0.100
-0.036
0.044
0.089
0.007
0.046
-0.108
0.086
-0.023
-0.092
0.096
-0.112
0.008
0.021
0.026
-0.074
0.055
0.038
0.094
0.104
-0.053
0.030
0.092
-0.074
0.027
-0.021
-0.062
0.026
0.089
0.026
0.147
-0.045
0.068
-0.057
0.092
0.076
-0.024
0.067
-0.029
0.005
0.046
0.063
0.054
0.134
0.040
-0.017
0.048
0.015
0.067
-0.089
-0.046
0.034
0.147
0.037
-0.003
-0.001
0.040
-0.109
0.033
0.082
-0.051
0.051
0.026
0.106
-0.019
-0.018
0.016
-0.009
0.063
0.180
0.022
0.032
0.042
-0.001
0.003
-0.061
0.105
-0.038
0.171
-0.021
-0.054
-0.170
0.071
0.082
0.136
0.053
-0.054
-0.022
0.097
0.006
0.044
0.012
0.004
-0.014
0.035
0.104
-0.049
-0.033
0.040
-0.046
0.012
0.026
0.067
-0.033
0.090
-0.087
0.008
0.080
-0.031
0.031
0.041
0.040
0.054
0.046
-0.187
-0.045
-0.076
0.081
0.165
0.029
-0.067
0.131
-0.005
-0.046
-0.057
-0.117
0.197
0.090
0.034
0.029
-0.035
-0.022
-0.086
0.127
0.090
0.001
0.101
-0.027
0.003
0.096
-0.057
-0.035
-0.071
-0.019
0.099
0.068
0.057
0.021
-0.117
0.007
-0.016
0.003
0.082
0.035
0.126
-0.115
-0.047
0.069
0.030
-0.089
0.094
0.009
0.053
-0.014
-0.051
0.117
0.031
-0.001
0.049
0.108
0.096
0.033
0.009
-0.023
-0.076
0.032
0.107
-0.019
-0.017
0.077
0.126
-0.097
0.038
-0.024
0.004
0.073
0.109
-0.033
0.042
-0.049
0.083
-0.021
-0.047
0.066
0.032
0.074
-0.001
-0.133
0.099
0.098
0.080
-0.134
-0.018
-0.088
0.142
0.100
-0.060
0.006
0.097
0.076
-0.013
-0.045
0.018
-0.040
0.126
-0.154
0.078
-0.001
0.106
0.032
-0.118
0.199
-0.005
0.040
-0.030
-0.058
-0.073
0.090
0.130
-0.114
0.014
0.048
0.078
0.031
0.039
0.026
0.065
-0.086
-0.036
0.058
0.060
-0.046
-0.005
0.095
0.122
-0.093
-0.023
0.042
-0.045
0.016
0.171
0.039
0.053
0.062
-0.003
-0.041
-0.072
0.064
0.127
-0.024
-0.051
0.061
0.007
-0.012
0.082
-0.009
-0.089
0.013
0.055
0.033
0.043
0.187
0.102
0.014
-0.146
0.065
0.055
0.013
0.080
-0.063
0.016
0.039
0.122
0.044
-0.193
0.039
0.030
-0.032
0.047
0.006
0.048
0.074
0.000
0.000
0.049
0.026
0.008
0.077
0.064
0.047
0.006
0.059
0.016
-0.042
0.092
0.083
-0.043
0.010
0.046
0.125
-0.026
-0.057
0.015
-0.102
0.042
0.016
0.005
0.092
0.133
0.019
0.057
-0.029
0.013
0.035
0.149
0.048
-0.048
-0.062
0.107
0.093
-0.030
-0.040
-0.004
0.057
0.055
0.023
0.147
-0.062
0.072
-0.007
-0.056
0.044
-0.027
0.059
0.008
0.030
0.074
0.045
-0.004
0.073
-0.001
-0.104
0.124
0.049
0.015
-0.054
-0.045
0.079
0.152
0.015
0.029
0.084
0.023
0.056
-0.004
0.007
0.013
-0.025
-0.104
0.169
0.099
0.060
0.152
-0.036
-0.030
-0.048
0.041
0.020
0.150
0.096
-0.075
0.012
0.093
-0.047
-0.009
-0.026
0.011
0.143
-0.035
-0.099
0.098
0.020
0.113
0.110
0.069
-0.077
0.053
0.063
0.066
-0.000
-0.012
-0.064
-0.005
0.026
0.098
-0.045
0.083
-0.070
0.071
-0.018
0.072
0.022
-0.042
-0.017
-0.021
0.117
0.038
0.073
0.008
-0.013
0.100
-0.112
0.036
0.028
0.083
0.026
0.114
-0.018
0.009
-0.014
0.068
-0.014
-0.050
0.072
-0.052
-0.038
0.057
0.111
0.080
-0.031
0.062
0.015
0.100
0.108
-0.042
0.007
-0.033
-0.021
0.083
0.007
0.013
0.062
0.126
-0.020
-0.031
0.041
0.011
0.015
-0.004
0.012
-0.023
-0.045
0.006
0.001
0.054
0.038
0.087
0.054
0.038
-0.081
0.005
0.085
0.185
0.057
-0.001
-0.050
0.004
0.044
-0.088
-0.008
0.044
-0.059
0.087
0.010
0.114
0.092
-0.048
0.029
-0.018
0.112
-0.119
0.095
0.061
-0.056
-0.023
0.065
0.046
-0.083
0.071
0.007
0.038
0.058
-0.008
0.018
-0.018
0.033
0.017
0.119
-0.124
0.018
0.087
-0.052
0.011
0.031
0.149
-0.022
-0.058
-0.052
-0.008
0.051
-0.006
0.065
0.152
0.016
0.011
0.062
0.092
-0.141
-0.001
-0.031
0.008
-0.048
0.022
0.004
0.071
-0.004
0.076
-0.046
0.017
0.031
0.094
-0.048
0.013
-0.127
-0.067
0.088
-0.022
0.031
0.070
-0.057
0.114
0.040
-0.004
0.054
0.039
0.049
-0.024
0.068
0.061
0.076
-0.024
-0.021
0.043
0.216
-0.020
-0.063
-0.002
-0.028
0.015
0.008
0.054
0.106
0.074
-0.015
0.046
0.040
-0.024
0.009
-0.013
-0.014
-0.106
-0.018
0.120
0.059
0.009
0.096
0.056
-0.079
0.025
0.055
-0.090
0.003
0.181
-0.023
-0.045
0.097
0.048
-0.004
-0.054
-0.036
0.135
0.106
-0.064
-0.044
0.093
0.004
-0.060
0.038
-0.077
0.107
0.068
0.031
-0.017
0.068
0.077
-0.087
-0.074
0.133
0.030
-0.041
-0.006
0.102
-0.035
0.039
0.066
0.054
0.006
0.017
0.016
-0.026
0.132
0.060
0.014
0.056
0.001
-0.088
0.046
-0.043
0.180
0.091
-0.096
-0.012
0.042
-0.084
0.010
0.072
-0.004
0.023
0.113
-0.020
0.021
0.020
-0.010
0.018
0.027
-0.019
-0.030
0.042
0.018
0.019
0.136
0.051
-0.045
-0.006
0.067
0.008
0.117
-0.021
-0.028
0.088
0.191
-0.026
-0.059
0.059
-0.107
0.166
-0.006
0.092
-0.025
0.067
-0.076
0.074
-0.001
0.035
0.048
-0.021
-0.048
0.131
-0.032
0.010
0.149
-0.009
0.039
-0.095
0.155
0.150
0.138
-0.050
-0.077
-0.055
0.010
0.126
-0.147
0.134
0.081
0.118
-0.139
0.135
0.002
0.038
-0.020
-0.106
-0.010
0.079
0.140
0.041
0.069
0.040
-0.160
0.086
0.021
0.112
-0.049
0.014
0.004
-0.007
0.022
0.072
0.097
-0.007
0.016
-0.077
0.027
0.001
0.149
0.081
0.046
0.061
-0.055
0.006
0.059
0.043
-0.133
0.066
0.061
0.136
-0.034
-0.102
0.106
0.160
-0.011
0.010
0.073
-0.037
-0.021
0.057
-0.046
0.099
-0.058
0.068
0.126
-0.011
0.078
-0.043
-0.104
0.023
0.025
-0.045
0.044
-0.018
0.017
-0.026
0.142
0.008
-0.032
0.050
0.000
0.071
-0.005
0.006
-0.015
0.048
0.072
0.021
0.089
-0.038
0.012
0.124
0.005
0.009
-0.016
0.063
0.010
0.070
-0.015
-0.133
-0.005
-0.041
0.126
0.011
0.084
0.083
-0.085
-0.030
0.044
0.167
-0.014
-0.075
-0.020
0.175
-0.113
-0.012
-0.024
0.100
-0.079
0.062
0.203
-0.014
0.052
-0.122
0.053
-0.018
0.017
-0.083
0.181
0.060
-0.060
-0.029
0.064
0.070
0.014
-0.032
0.041
-0.100
-0.061
0.126
0.186
-0.015
-0.089
0.046
0.057
0.067
-0.127
-0.022
0.050
0.084
-0.005
-0.022
0.051
-0.010
-0.091
0.113
-0.041
0.066
0.009
0.041
0.109
0.009
0.008
0.000
-0.023
0.102
0.000
0.079
-0.041
-0.034
0.023
0.113
-0.016
0.113
0.081
-0.004
-0.031
-0.001
-0.036
0.044
-0.029
-0.019
-0.181
0.104
0.213
0.098
-0.003
-0.070
0.047
-0.036
0.167
-0.030
-0.046
0.079
0.058
0.021
-0.012
0.114
0.001
0.004
-0.072
-0.129
0.092
0.126
0.015
0.067
0.028
-0.073
0.095
0.115
-0.086
0.074
0.010
-0.059
0.084
0.045
0.077
-0.010
0.033
0.044
0.031
-0.036
-0.080
0.150
-0.014
-0.032
0.007
0.039
0.037
0.053
0.029
0.044
-0.043
0.239
0.097
-0.100
-0.003
0.070
0.105
0.042
-0.038
-0.005
-0.014
0.026
0.176
-0.044
-0.158
0.059
0.096
0.090
0.061
-0.020
0.018
0.022
0.008
0.001
0.068
0.074
0.058
-0.022
-0.025
0.081
0.086
-0.053
0.106
-0.099
0.069
0.013
0.053
-0.086
-0.033
-0.067
0.033
-0.019
0.002
0.140
-0.059
0.002
-0.012
0.172
-0.040
-0.008
-0.033
0.164
-0.091
0.148
0.035
-0.090
0.044
-0.018
-0.007
-0.002
0.170
-0.034
-0.007
0.003
-0.019
0.015
-0.011
-0.023
0.077
0.094
0.031
-0.034
0.090
0.033
-0.060
-0.104
0.033
0.155
0.077
-0.015
0.082
0.003
0.012
0.010
0.113
-0.018
0.085
-0.018
0.106
-0.004
-0.068
-0.060
-0.075
0.088
0.044
-0.059
-0.054
0.050
0.044
0.050
-0.017
0.002
0.119
-0.004
-0.060
0.095
0.148
0.001
0.059
-0.003
0.004
0.010
0.034
0.054
-0.061
0.015
0.051
-0.095
0.059
0.055
0.068
0.124
-0.129
-0.070
0.014
0.022
-0.011
-0.009
0.085
0.073
0.062
-0.016
0.042
0.014
0.076
0.019
0.152
0.016
-0.013
-0.044
0.014
0.096
0.028
-0.013
0.175
0.014
-0.113
-0.018
0.046
0.161
0.108
-0.095
-0.097
0.110
0.047
-0.031
0.063
0.043
0.009
0.019
-0.010
-0.039
0.057
0.048
-0.040
-0.001
-0.051
0.159
0.071
-0.057
0.090
-0.071
0.092
0.015
0.016
0.033
0.025
0.053
0.045
-0.005
0.103
-0.046
-0.053
-0.004
0.078
-0.006
0.099
0.039
-0.023
-0.050
0.014
-0.057
0.055
0.211
0.084
-0.140
-0.032
0.110
0.171
0.043
0.039
-0.044
0.024
0.044
0.135
0.020
0.017
-0.016
0.008
-0.029
0.102
-0.099
0.068
0.016
-0.117
-0.029
0.195
0.117
-0.060
-0.078
0.036
0.057
0.061
0.018
0.104
-0.062
-0.083
-0.098
0.069
0.099
-0.118
-0.003
0.061
0.068
-0.035
0.054
0.022
-0.065
0.079
0.052
-0.033
0.001
-0.024
0.048
-0.025
-0.009
0.176
-0.004
-0.016
-0.090
0.095
0.014
-0.009
0.041
0.076
-0.027
0.127
0.043
0.093
0.031
-0.121
-0.048
0.030
-0.004
-0.006
-0.022
-0.069
0.077
0.144
0.016
-0.072
-0.010
0.055
0.006
-0.104
0.014
-0.007
0.133
-0.008
0.002
0.072
0.022
0.001
-0.070
0.083
0.080
0.054
-0.058
0.039
-0.010
-0.011
0.017
0.068
-0.010
0.003
0.022
0.125
0.016
-0.032
0.134
-0.010
0.082
-0.006
-0.096
0.021
0.164
0.014
0.039
0.030
0.027
-0.031
-0.190
0.086
0.061
-0.026
0.012
0.030
0.093
0.002
-0.049
-0.046
0.027
-0.026
0.087
0.157
0.071
-0.048
-0.045
0.031
0.021
0.024
-0.055
0.048
0.064
0.106
0.048
0.118
-0.096
-0.072
0.017
0.036
0.009
0.026
0.125
-0.006
-0.015
0.013
0.022
0.028
-0.054
0.064
-0.008
0.019
-0.029
0.059
-0.046
0.042
-0.009
-0.045
0.062
0.087
0.008
-0.043
-0.110
0.043
0.074
0.064
0.011
-0.016
0.011
0.048
-0.095
0.074
-0.032
-0.026
0.069
0.012
0.292
-0.047
-0.145
0.017
0.090
0.006
0.036
-0.010
-0.066
0.086
-0.031
0.072
0.093
0.030
0.065
0.006
-0.155
-0.068
0.017
0.021
0.038
0.061
-0.143
0.099
0.027
0.086
-0.117
0.065
0.086
-0.089
-0.070
0.083
0.005
0.084
0.078
-0.068
-0.080
-0.007
0.135
0.043
0.102
-0.056
-0.069
0.124
0.093
-0.124
0.090
0.106
-0.054
-0.023
0.031
-0.032
0.010
-0.069
0.049
-0.062
0.103
0.058
0.019
0.014
0.029
-0.029
0.052
0.196
0.070
-0.083
-0.035
-0.036
0.085
0.037
-0.014
0.002
0.046
-0.105
-0.011
-0.028
-0.034
0.177
0.052
0.094
-0.005
0.005
0.029
-0.023
-0.032
0.055
0.102
0.081
0.039
-0.070
0.049
-0.023
0.021
0.043
0.018
-0.061
-0.010
0.031
0.093
0.004
0.065
-0.019
-0.057
0.070
0.130
-0.003
0.004
-0.046
-0.067
0.215
0.057
-0.025
0.044
-0.010
0.073
-0.073
-0.018
0.129
0.004
-0.093
-0.002
0.065
0.049
-0.007
0.031
0.031
0.120
0.009
0.094
-0.053
0.088
-0.026
-0.029
0.046
-0.029
-0.108
-0.037
0.104
0.038
0.004
0.014
0.061
0.060
0.018
-0.009
-0.032
0.057
-0.071
0.009
0.078
0.035
0.016
0.033
0.092
0.055
-0.029
-0.018
0.031
0.070
0.095
-0.021
-0.108
0.058
0.010
-0.073
0.139
0.016
0.189
-0.034
-0.069
-0.101
-0.025
0.115
-0.033
0.060
0.041
0.063
0.044
-0.064
-0.076
0.019
0.121
0.065
-0.096
0.094
0.039
0.012
-0.016
-0.041
0.020
-0.034
0.073
0.102
0.038
0.006
0.150
-0.102
-0.019
-0.080
0.111
0.084
-0.074
-0.077
-0.049
0.062
0.057
-0.032
-0.066
0.037
0.032
0.003
0.047
0.046
-0.022
-0.052
0.020
0.064
0.051
0.126
-0.003
0.031
-0.005
-0.044
0.042
0.015
0.119
0.090
-0.008
0.051
0.058
-0.093
-0.017
0.077
0.031
-0.043
0.065
-0.079
0.046
0.063
-0.059
0.101
-0.094
-0.077
0.133
-0.042
-0.045
-0.025
0.014
-0.032
0.096
0.122
0.046
0.037
-0.073
-0.099
0.082
0.129
0.159
-0.099
-0.125
0.065
0.102
0.100
0.038
-0.025
-0.056
0.043
-0.006
-0.041
0.071
-0.045
0.059
0.092
-0.036
0.052
0.158
-0.082
-0.055
0.078
-0.096
0.128
0.089
0.027
-0.012
0.073
-0.019
0.088
-0.015
-0.043
-0.009
-0.008
0.074
-0.041
-0.077
0.144
0.040
0.013
0.032
0.100
-0.037
0.068
-0.056
0.028
-0.045
0.023
0.035
0.112
0.084
0.068
-0.053
0.018
-0.060
-0.006
-0.085
-0.019
-0.009
0.086
0.063
-0.107
0.017
0.008
0.002
0.077
0.101
0.089
-0.012
0.050
0.005
-0.008
0.018
0.009
0.109
-0.017
-0.060
0.018
0.065
0.068
0.012
0.122
0.039
0.015
-0.120
0.059
0.071
0.068
-0.054
0.002
0.119
-0.054
-0.091
0.088
0.051
-0.035
0.019
0.046
-0.004
0.026
0.147
0.025
-0.019
0.009
-0.103
-0.012
0.074
-0.029
0.062
0.013
0.143
0.074
0.114
-0.018
-0.006
-0.012
0.036
0.028
0.041
0.022
-0.028
-0.054
0.011
0.181
-0.060
-0.031
-0.079
0.144
-0.008
0.085
0.050
0.092
0.138
-0.019
-0.008
-0.026
0.009
0.072
0.099
0.080
-0.007
-0.007
-0.070
0.023
0.066
-0.062
0.064
0.085
-0.029
-0.004
0.137
-0.129
-0.025
-0.010
0.066
0.070
-0.022
0.002
0.076
0.142
-0.054
0.003
0.113
0.274
-0.045
-0.095
-0.088
0.053
0.076
-0.103
0.094
0.050
0.002
0.053
-0.096
0.001
-0.024
0.120
0.070
-0.028
0.021
0.069
-0.030
0.010
0.005
0.064
-0.044
-0.007
0.047
-0.058
0.045
0.085
0.020
-0.009
-0.069
0.026
0.062
-0.054
0.040
-0.005
0.065
-0.005
0.027
0.069
0.008
-0.012
0.017
0.016
0.129
-0.014
0.124
-0.082
0.035
-0.001
-0.041
0.132
0.055
-0.011
-0.059
0.053
-0.039
0.077
0.038
0.081
-0.069
0.090
-0.093
0.013
0.060
0.134
-0.030
0.055
-0.068
-0.057
0.066
0.123
-0.001
-0.079
0.053
0.029
-0.078
0.009
0.096
0.000
0.076
-0.125
0.022
-0.029
0.032
0.049
-0.001
0.020
0.024
0.042
0.024
-0.009
-0.023
0.111
-0.063
0.015
-0.019
0.005
0.166
0.152
-0.045
0.065
0.032
-0.076
0.076
-0.079
0.152
0.040
0.056
0.072
0.020
0.000
-0.044
-0.031
-0.008
-0.003
-0.068
0.096
0.142
-0.017
-0.046
-0.067
0.016
0.043
-0.001
0.006
-0.085
0.068
-0.054
0.059
0.112
0.058
-0.042
-0.055
0.102
0.013
-0.035
0.047
0.021
0.016
0.127
0.060
-0.055
-0.098
0.098
0.017
0.083
-0.013
-0.026
0.028
0.012
-0.051
0.134
-0.052
-0.110
0.108
0.054
0.000
0.081
-0.094
-0.011
0.103
0.112
0.018
-0.041
-0.087
0.027
-0.009
0.054
0.028
0.081
0.034
-0.008
-0.020
-0.030
0.030
0.099
0.149
0.018
0.115
-0.036
0.004
-0.021
0.067
-0.017
0.094
0.021
0.024
0.093
-0.041
-0.106
0.087
0.028
-0.045
-0.110
0.085
0.134
-0.016
0.059
-0.116
-0.089
0.075
0.098
0.082
-0.001
0.056
-0.050
-0.076
0.180
0.065
0.008
0.050
0.012
0.008
0.043
0.023
-0.072
-0.012
-0.022
0.006
0.041
-0.020
-0.120
-0.013
-0.084
0.166
0.060
0.009
0.094
0.168
-0.052
-0.036
-0.032
0.046
0.095
-0.013
0.016
0.063
0.064
0.029
-0.056
0.030
-0.155
-0.028
0.100
0.289
-0.083
-0.046
-0.001
0.021
-0.157
0.064
0.034
0.038
-0.008
0.048
-0.028
0.067
0.056
-0.091
0.081
-0.018
0.042
-0.071
0.088
-0.040
0.074
0.086
-0.028
0.040
-0.011
0.005
-0.013
0.175
-0.017
-0.000
0.058
0.010
0.011
-0.068
-0.032
0.019
0.209
0.004
-0.025
-0.013
-0.077
-0.086
0.154
-0.003
0.068
-0.006
0.045
-0.041
-0.012
0.074
0.067
0.054
-0.061
-0.048
0.092
-0.008
0.037
0.103
0.128
-0.011
-0.100
0.025
0.116
0.010
0.039
-0.011
0.042
-0.035
0.115
0.053
0.027
0.065
0.043
0.060
-0.060
0.003
0.073
0.058
0.088
0.038
-0.086
0.026
0.011
0.040
-0.081
0.009
0.065
0.053
-0.032
-0.015
0.009
-0.048
0.067
-0.009
-0.055
0.116
-0.068
-0.026
-0.000
0.107
0.026
0.051
0.054
0.066
0.065
0.073
0.046
-0.093
0.019
0.110
0.002
-0.090
0.171
0.073
-0.015
0.002
0.038
-0.019
0.051
-0.025
0.018
-0.123
0.013
-0.029
0.007
0.167
0.091
0.023
-0.008
0.065
0.059
-0.003
0.037
-0.071
0.055
-0.024
0.008
-0.053
0.055
0.062
0.066
-0.133
0.012
0.007
0.127
0.060
0.080
-0.038
-0.093
-0.002
-0.004
0.015
0.082
0.068
-0.054
0.065
0.011
0.124
-0.025
0.079
0.145
-0.130
0.076
0.128
-0.007
-0.075
-0.031
-0.024
0.022
-0.056
0.035
0.045
0.009
0.124
-0.005
-0.030
0.047
-0.089
0.084
-0.010
-0.011
0.006
0.067
0.059
0.066
0.079
0.042
-0.032
-0.046
-0.012
0.139
-0.073
0.012
-0.075
-0.001
0.017
0.159
0.091
0.079
0.052
0.088
0.043
-0.168
-0.023
0.087
0.161
-0.046
0.049
0.103
0.055
-0.044
-0.056
0.097
0.032
0.053
-0.027
0.002
0.118
-0.018
-0.020
-0.042
-0.082
-0.014
-0.039
0.109
0.053
0.130
0.011
-0.091
0.081
0.078
-0.019
-0.142
0.144
0.007
0.047
0.027
-0.046
0.038
0.010
-0.004
0.063
-0.007
-0.030
0.027
0.106
0.043
-0.049
-0.074
0.088
-0.014
-0.045
0.056
0.045
0.136
-0.051
0.024
0.121
-0.041
0.135
0.078
-0.003
0.006
0.042
0.065
0.045
-0.052
0.020
0.049
0.046
-0.107
0.064
-0.007
0.092
-0.105
0.034
-0.067
-0.074
0.115
0.079
-0.026
-0.066
-0.014
0.135
0.104
0.110
-0.034
0.039
0.004
0.019
-0.007
-0.035
0.058
0.039
-0.001
0.099
0.083
-0.006
0.018
0.067
-0.084
0.029
0.045
-0.090
0.000
0.194
0.152
0.086
-0.080
0.051
0.129
0.101
0.021
-0.038
0.077
0.069
0.051
0.065
-0.008
0.079
-0.001
-0.041
0.047
0.010
0.006
0.018
0.096
0.038
-0.025
-0.112
-0.046
0.174
-0.014
0.008
0.052
-0.002
0.074
0.110
0.028
0.069
0.011
0.018
0.042
0.019
0.036
-0.025
0.103
0.005
0.045
0.055
-0.077
-0.012
0.088
0.171
-0.173
-0.006
-0.039
0.111
0.102
-0.074
0.200
0.163
-0.158
0.030
0.042
-0.009
0.055
0.044
0.031
-0.119
-0.042
0.014
0.131
0.045
-0.023
-0.046
-0.070
0.060
0.114
0.031
-0.018
0.096
-0.043
0.002
-0.037
0.098
-0.061
0.121
0.027
-0.029
0.052
0.033
0.025
0.015
-0.041
0.017
-0.019
0.152
0.097
-0.024
0.016
0.056
0.046
-0.041
0.060
0.053
0.052
0.048
-0.052
0.077
0.029
-0.004
-0.068
0.004
0.053
0.068
0.068
0.042
-0.078
0.093
0.049
-0.016
0.093
0.050
-0.013
-0.008
-0.104
0.046
0.061
0.051
-0.064
0.042
0.062
0.063
-0.056
-0.009
0.146
0.061
0.074
-0.091
-0.013
-0.085
0.026
0.103
0.090
0.040
0.033
0.023
0.038
-0.036
0.026
-0.060
-0.014
0.088
0.031
-0.002
0.003
0.109
0.064
-0.005
-0.069
0.001
0.110
0.055
0.226
0.056
-0.032
-0.020
-0.013
-0.010
0.059
0.026
0.013
0.025
0.010
0.066
0.072
-0.105
-0.061
-0.011
0.141
0.041
-0.018
0.064
0.091
0.040
-0.023
-0.040
0.010
-0.156
0.060
0.172
-0.009
0.063
0.036
-0.081
0.107
-0.068
0.022
0.037
0.013
0.011
0.083
0.022
-0.059
0.035
0.125
0.109
-0.059
0.014
0.030
-0.004
0.114
0.016
0.051
0.056
0.003
0.053
0.074
-0.035
0.025
0.030
-0.024
0.109
-0.055
-0.053
-0.052
0.005
0.023
-0.034
0.148
-0.101
0.159
0.079
-0.022
-0.022
-0.017
0.137
0.063
0.096
-0.002
-0.122
0.102
0.100
-0.047
-0.011
0.089
-0.007
0.049
-0.111
0.059
0.043
0.071
-0.010
0.020
0.039
0.042
0.053
-0.003
-0.076
0.017
0.062
0.051
0.073
0.080
-0.049
-0.014
-0.017
-0.073
-0.093
-0.060
0.076
0.017
-0.032
0.074
0.067
0.122
-0.043
-0.050
0.014
-0.022
-0.021
0.075
0.105
0.082
0.001
0.050
0.134
-0.071
0.008
-0.015
-0.110
0.109
0.136
0.134
0.004
-0.108
-0.026
-0.054
0.147
0.066
0.026
-0.009
0.031
0.011
-0.015
0.038
0.027
0.002
-0.052
-0.037
-0.091
0.178
-0.018
0.195
-0.027
-0.112
0.084
0.132
0.020
-0.015
0.106
0.014
-0.024
0.039
-0.048
-0.064
-0.066
0.120
0.111
-0.009
-0.149
-0.019
-0.018
0.136
0.055
0.016
-0.046
-0.080
0.048
0.028
0.069
0.037
-0.031
0.016
0.024
0.041
0.085
-0.046
0.082
-0.058
0.001
-0.073
0.184
0.013
-0.027
0.040
0.072
0.038
-0.061
0.107
0.201
-0.038
-0.076
-0.076
0.127
0.069
0.027
0.022
-0.044
0.006
-0.045
0.239
0.050
-0.151
-0.036
0.103
-0.113
0.018
0.021
-0.027
0.030
0.055
-0.003
0.017
0.056
-0.009
0.042
0.029
0.051
0.047
0.058
-0.093
0.022
0.038
-0.122
0.115
-0.018
0.041
-0.008
0.073
0.029
0.141
0.135
-0.041
0.016
0.033
-0.011
0.039
-0.058
0.126
0.102
0.189
-0.048
0.004
-0.082
0.025
-0.063
0.003
0.030
-0.027
0.115
-0.003
-0.039
-0.012
0.128
0.062
0.116
-0.023
-0.018
0.003
-0.087
0.037
0.115
0.018
0.004
-0.000
-0.006
0.039
-0.072
0.008
0.133
0.014
0.089
0.050
0.054
0.005
-0.151
0.151
0.013
0.051
0.035
0.001
0.009
0.023
0.020
-0.021
0.029
0.078
0.078
0.054
0.064
-0.108
-0.172
0.093
0.034
0.071
0.042
0.044
-0.155
0.139
-0.031
-0.066
0.118
0.075
-0.024
-0.052
-0.007
-0.011
-0.004
0.070
-0.007
0.098
0.010
-0.055
0.045
0.062
-0.058
0.045
0.057
0.048
0.037
-0.040
0.071
0.001
0.010
0.018
0.039
-0.030
0.134
-0.066
-0.048
0.073
0.042
-0.014
-0.068
0.099
0.013
0.037
0.033
-0.148
0.018
-0.042
0.152
-0.039
-0.121
-0.062
0.141
0.081
0.048
-0.055
-0.047
0.095
-0.038
0.060
-0.051
0.054
0.030
-0.061
0.015
0.153
0.068
0.057
-0.086
-0.125
0.131
0.104
0.048
-0.183
0.004
0.060
0.115
-0.086
-0.080
0.108
-0.004
0.082
-0.027
0.124
-0.040
-0.026
0.027
-0.055
0.030
0.029
0.127
0.051
-0.062
-0.112
-0.014
0.055
0.040
-0.128
0.002
0.045
-0.014
0.000
-0.006
0.007
-0.103
0.126
0.027
0.043
0.099
-0.005
0.015
0.142
-0.058
-0.042
0.201
-0.077
0.134
-0.016
0.102
-0.046
-0.068
-0.094
0.054
0.029
0.121
-0.021
-0.034
-0.020
-0.035
0.002
0.177
0.041
-0.008
0.027
0.005
0.180
0.079
0.002
-0.120
0.023
0.141
0.082
-0.051
0.027
-0.075
-0.079
0.063
0.003
0.213
-0.064
-0.034
-0.073
0.062
0.040
-0.035
-0.024
0.037
0.094
-0.003
0.058
0.064
0.067
-0.026
0.026
0.059
0.065
0.019
0.015
0.011
0.104
0.056
-0.085
0.151
0.003
0.006
0.044
0.018
0.051
0.055
-0.002
0.045
-0.096
-0.003
0.041
0.016
-0.012
-0.021
0.036
0.001
-0.024
-0.160
0.220
0.052
-0.051
0.025
0.066
0.001
0.068
0.014
0.080
0.080
-0.009
0.089
-0.066
0.023
-0.015
0.096
0.059
-0.071
0.096
-0.239
0.073
0.015
-0.055
0.091
-0.003
-0.062
0.056
0.186
0.106
0.072
-0.060
-0.084
0.013
0.027
0.086
-0.066
0.059
0.084
0.190
0.036
-0.036
0.010
-0.019
-0.026
0.048
0.136
-0.010
-0.032
-0.002
0.023
-0.029
-0.034
-0.029
0.050
0.112
0.023
-0.030
0.019
0.008
0.073
0.014
-0.016
0.026
-0.002
0.088
0.048
-0.002
0.054
-0.022
-0.090
0.071
0.123
0.093
-0.066
0.012
-0.022
0.107
0.063
0.014
0.123
-0.099
0.022
0.078
-0.001
0.070
0.011
0.051
0.004
0.053
0.131
-0.121
0.138
0.028
0.129
-0.027
0.040
-0.005
-0.028
0.067
0.019
-0.097
-0.001
0.003
-0.133
0.088
0.044
-0.037
-0.012
0.020
0.109
0.026
0.108
-0.043
-0.027
0.080
-0.007
0.127
0.093
-0.048
0.137
-0.027
0.001
-0.037
-0.047
-0.001
0.043
0.125
0.067
-0.175
-0.029
-0.007
0.118
0.043
0.049
-0.146
-0.119
0.047
0.072
0.080
0.029
0.168
-0.031
-0.086
0.089
-0.031
0.076
0.121
-0.041
0.099
0.076
-0.055
0.006
0.037
0.032
-0.017
0.097
-0.023
0.002
0.053
0.081
-0.061
0.054
0.084
-0.015
0.014
0.048
0.095
-0.016
-0.022
0.053
-0.055
-0.168
0.002
-0.018
0.039
-0.005
0.031
0.097
0.052
-0.031
-0.053
0.036
0.124
-0.030
0.043
0.050
0.131
0.063
0.065
0.021
-0.058
0.130
0.038
-0.092
0.046
0.057
0.081
0.099
-0.032
-0.044
0.004
0.013
-0.053
0.056
-0.019
0.031
0.019
0.114
-0.013
-0.113
0.126
0.075
-0.020
-0.108
0.054
0.039
-0.017
0.043
0.105
-0.005
0.128
0.006
-0.001
0.026
0.033
-0.006
-0.126
0.044
-0.017
0.086
0.099
0.127
0.024
-0.035
-0.009
0.141
-0.007
0.013
0.043
-0.009
-0.119
0.071
0.045
0.054
0.094
-0.008
0.048
-0.088
0.083
0.041
-0.010
0.007
-0.014
0.114
0.050
0.068
0.017
0.057
-0.016
-0.030
-0.019
0.044
0.019
0.023
-0.093
-0.073
0.105
0.040
0.034
-0.019
0.042
0.058
0.106
-0.134
-0.051
0.072
0.100
0.118
-0.107
-0.040
0.068
-0.021
0.021
0.050
-0.060
0.025
0.048
0.005
0.117
-0.004
-0.007
0.016
0.185
0.073
-0.011
-0.111
0.055
0.009
-0.075
0.062
0.120
-0.006
0.056
-0.086
-0.019
0.067
0.090
-0.094
-0.014
-0.029
-0.064
0.060
0.086
-0.018
0.007
0.112
-0.080
0.040
0.026
-0.070
-0.027
0.046
0.018
-0.018
-0.003
0.082
0.014
0.015
-0.044
0.080
0.035
0.013
-0.007
0.024
-0.107
0.149
0.075
0.038
-0.102
-0.038
0.009
0.035
0.096
0.107
0.032
-0.074
-0.063
-0.039
0.043
0.128
-0.024
0.013
0.010
-0.019
-0.023
0.169
-0.012
0.003
0.009
0.065
0.045
-0.094
0.190
-0.068
0.038
0.051
-0.016
-0.016
-0.015
0.014
0.058
-0.001
0.030
0.011
0.029
-0.053
0.050
0.160
-0.006
-0.097
0.077
-0.046
-0.078
0.113
0.043
0.110
0.010
0.030
-0.064
-0.050
0.037
0.107
0.091
0.010
-0.158
-0.043
-0.026
0.032
0.087
-0.088
0.011
0.008
0.015
0.028
-0.001
-0.007
0.048
0.027
0.053
0.025
0.014
0.029
-0.025
-0.022
0.075
0.063
-0.012
0.051
0.014
-0.085
0.064
-0.025
0.102
0.087
-0.021
-0.078
0.013
0.014
0.048
0.127
-0.084
0.043
-0.044
-0.007
0.045
0.111
-0.011
-0.013
-0.107
0.059
-0.078
0.025
0.072
-0.006
-0.085
0.052
0.006
0.021
0.041
-0.079
0.085
0.015
-0.052
0.038
-0.024
0.097
-0.031
-0.025
0.064
0.064
0.133
-0.097
-0.032
-0.043
0.004
0.154
0.041
-0.028
-0.010
0.072
0.113
-0.096
-0.043
0.171
-0.017
-0.005
-0.019
0.004
0.032
0.056
-0.149
0.038
-0.032
-0.003
0.077
0.079
0.008
0.093
0.074
0.001
-0.002
0.075
-0.049
0.073
0.097
-0.011
0.024
0.090
0.044
0.011
-0.059
-0.036
-0.035
0.066
-0.009
0.019
-0.076
-0.023
0.173
-0.001
0.024
0.096
-0.100
0.032
0.204
-0.021
-0.021
-0.073
0.039
-0.005
-0.039
0.047
0.030
0.064
0.011
-0.072
-0.039
0.007
0.047
0.111
0.031
0.060
0.086
0.007
0.018
0.074
-0.035
-0.002
-0.020
-0.011
0.174
0.043
0.059
0.032
-0.123
0.024
0.080
0.037
0.081
-0.003
-0.009
0.059
0.089
-0.126
-0.010
0.088
0.037
0.007
-0.159
0.165
-0.039
0.022
0.069
0.040
-0.112
0.030
0.016
0.045
0.050
-0.083
0.048
0.032
0.046
0.083
0.036
0.048
-0.023
0.051
0.023
0.038
-0.073
0.048
0.027
-0.103
0.139
0.070
0.069
0.035
-0.011
-0.046
0.060
0.059
-0.041
0.112
-0.092
-0.020
0.033
-0.031
-0.060
0.074
0.064
-0.005
0.162
0.029
-0.102
0.057
-0.056
0.131
-0.093
0.121
0.039
0.051
-0.136
0.136
-0.008
0.064
0.081
0.009
-0.026
-0.039
0.055
0.026
0.035
0.146
-0.103
0.082
-0.040
-0.103
0.227
0.016
-0.106
0.177
-0.008
0.047
0.020
0.007
0.040
0.000
-0.038
-0.018
0.094
-0.001
-0.067
0.092
0.158
-0.060
-0.018
-0.038
0.002
0.014
0.045
-0.064
0.006
0.145
0.036
-0.078
0.153
0.140
-0.057
0.019
-0.028
0.150
0.017
0.013
0.029
0.104
-0.073
-0.004
0.120
0.079
0.043
-0.114
0.003
-0.051
0.026
0.047
-0.003
-0.020
-0.042
0.046
0.123
0.072
-0.059
-0.010
-0.044
0.145
0.066
-0.033
0.090
-0.081
0.113
0.071
-0.013
0.084
0.048
-0.104
0.077
0.043
0.071
-0.019
-0.162
0.020
0.069
0.035
-0.051
0.115
-0.031
-0.011
0.098
-0.113
0.061
0.088
0.073
0.031
-0.023
0.019
0.193
-0.109
-0.037
-0.031
0.074
0.048
0.032
0.117
-0.077
-0.118
0.122
-0.083
-0.085
0.028
0.023
0.054
0.121
0.100
0.021
-0.022
-0.002
0.062
-0.100
-0.048
0.055
-0.031
0.086
0.141
0.011
0.031
-0.012
0.015
0.021
-0.022
0.011
0.006
-0.059
0.161
-0.049
0.159
-0.073
-0.096
0.080
-0.002
0.105
0.008
0.030
0.027
0.008
-0.042
0.024
0.000
0.059
0.099
-0.017
-0.039
-0.016
-0.027
0.187
0.106
0.017
0.033
0.055
0.029
-0.061
-0.009
-0.015
0.002
0.013
0.053
-0.109
0.006
0.059
0.006
-0.027
-0.015
0.021
-0.066
0.181
0.169
-0.011
-0.059
0.073
0.020
0.042
0.105
0.030
-0.053
-0.020
0.035
-0.003
0.071
0.039
0.073
0.090
0.017
-0.054
0.027
0.042
0.062
0.078
-0.208
0.077
0.031
0.141
0.052
-0.024
-0.066
0.065
-0.063
0.038
-0.023
0.097
-0.063
0.083
0.072
0.031
0.017
-0.046
-0.030
0.013
-0.031
0.040
-0.051
-0.018
0.058
0.039
0.034
0.051
-0.070
-0.006
0.006
0.087
0.012
0.053
0.072
0.040
0.032
0.033
-0.026
0.023
-0.018
0.010
-0.011
0.084
0.152
-0.064
-0.020
-0.118
0.011
0.131
-0.031
0.058
-0.042
0.035
-0.094
0.042
-0.063
0.002
-0.003
-0.081
0.142
0.158
0.030
-0.072
-0.060
-0.028
0.084
-0.045
0.078
-0.033
0.005
-0.087
0.116
0.072
-0.025
0.026
-0.040
0.104
0.085
-0.120
0.064
-0.068
-0.016
0.090
-0.012
-0.028
0.002
0.117
-0.020
0.009
0.028
0.117
-0.139
-0.021
0.131
0.043
0.053
-0.062
0.045
0.019
0.098
-0.091
-0.042
0.067
0.148
-0.097
-0.002
0.063
-0.046
-0.043
0.001
0.040
0.039
-0.024
0.021
0.135
0.052
0.036
-0.055
0.040
0.016
0.015
-0.169
-0.025
0.193
0.072
0.045
0.005
0.031
-0.009
-0.022
0.002
-0.009
0.108
0.030
0.021
-0.014
0.107
0.072
-0.033
0.087
0.041
0.006
-0.017
0.043
0.129
0.041
0.152
-0.007
-0.076
0.043
-0.017
0.009
0.020
-0.059
0.034
0.087
-0.056
-0.100
0.022
0.019
0.166
0.173
-0.087
-0.035
-0.004
-0.095
0.018
-0.000
0.064
-0.013
-0.063
0.097
0.119
0.065
-0.106
-0.033
-0.063
0.039
0.050
0.160
0.064
0.031
-0.045
-0.008
-0.059
0.023
0.125
0.120
-0.029
-0.034
-0.040
0.154
-0.136
0.021
0.049
0.002
0.140
-0.075
-0.041
-0.011
0.059
0.076
0.070
-0.021
-0.048
-0.005
-0.056
-0.079
0.104
-0.113
-0.004
0.165
0.035
0.010
0.037
-0.080
-0.017
-0.044
-0.154
0.100
0.202
0.032
-0.011
0.010
0.149
-0.104
-0.017
0.093
0.063
-0.126
-0.058
-0.061
-0.013
0.034
0.177
-0.112
0.050
-0.051
-0.057
0.046
0.026
0.087
0.038
-0.057
-0.167
0.063
0.047
0.091
0.003
-0.001
0.045
0.034
0.019
0.057
-0.012
-0.014
0.169
-0.042
0.073
0.129
0.034
0.026
0.067
-0.082
0.024
0.074
-0.026
-0.077
0.073
-0.079
0.001
0.059
0.066
0.070
0.036
-0.103
0.018
-0.023
0.041
0.019
0.073
-0.051
0.072
-0.041
0.101
0.068
-0.013
-0.112
-0.064
0.124
0.077
0.033
-0.068
0.018
0.054
0.079
-0.068
0.014
0.122
0.014
-0.034
0.136
-0.003
0.038
0.047
-0.008
0.049
0.012
0.055
0.125
-0.108
0.117
-0.022
0.025
0.018
0.027
0.011
0.004
0.018
-0.037
0.020
-0.028
0.205
0.030
-0.001
0.071
-0.119
-0.015
0.110
0.131
0.092
-0.096
-0.155
0.066
0.041
-0.018
0.121
0.030
0.040
0.081
0.125
0.129
-0.033
-0.163
0.034
0.161
0.065
-0.065
0.136
0.016
-0.059
-0.008
0.097
0.051
0.027
0.064
0.019
0.043
-0.015
-0.022
-0.047
-0.019
0.127
0.048
-0.030
0.075
-0.031
0.008
0.151
0.036
0.006
-0.057
0.044
0.000
0.008
0.119
0.041
0.025
-0.003
0.083
0.052
0.067
0.065
0.057
0.033
-0.023
-0.012
0.017
0.157
-0.085
0.077
0.125
-0.097
0.004
0.094
0.020
0.084
-0.030
0.005
0.108
-0.020
-0.049
-0.072
0.071
-0.012
0.022
0.017
0.012
0.119
0.115
-0.130
-0.180
0.081
-0.020
0.104
0.112
0.073
-0.040
-0.036
-0.040
-0.018
0.042
0.096
0.045
0.014
-0.055
-0.027
-0.003
-0.134
0.113
0.030
0.098
0.096
0.077
0.004
-0.020
0.074
0.091
0.104
-0.110
0.015
0.059
-0.012
-0.015
0.080
0.015
-0.023
-0.012
0.029
0.028
0.016
0.036
0.025
0.075
0.059
-0.103
0.026
-0.109
-0.028
0.047
0.020
0.052
0.031
0.017
0.020
-0.027
0.023
0.003
0.118
0.073
-0.089
-0.071
0.079
0.070
-0.013
0.021
0.036
0.052
-0.076
0.007
-0.037
-0.030
0.045
0.110
0.099
0.101
-0.044
0.027
0.001
-0.079
0.143
-0.005
0.103
0.021
-0.045
0.073
0.036
0.036
-0.014
0.011
-0.154
0.055
-0.081
0.088
0.018
0.025
0.055
-0.033
-0.205
0.046
0.080
0.139
0.040
0.013
0.051
0.014
0.070
-0.121
-0.061
0.066
0.079
0.002
-0.025
-0.075
0.065
0.007
0.059
-0.086
0.054
-0.030
0.140
0.110
-0.128
0.047
0.110
-0.067
0.121
0.070
0.042
-0.034
0.067
-0.057
0.033
0.004
0.095
0.081
0.108
0.018
-0.048
-0.025
0.018
0.005
0.121
-0.001
-0.049
-0.016
-0.010
0.089
0.002
0.024
-0.009
0.155
0.046
-0.106
0.010
0.040
0.094
0.040
-0.072
-0.027
0.087
0.141
0.036
-0.009
-0.154
0.164
0.023
0.086
-0.030
0.066
0.093
0.023
-0.005
-0.017
0.046
0.011
0.002
-0.016
-0.006
0.034
-0.165
0.077
0.050
0.153
0.023
0.017
-0.005
0.051
0.042
0.038
0.126
-0.001
0.033
0.126
-0.082
0.007
0.033
-0.012
0.120
0.009
-0.047
-0.025
-0.085
0.048
0.055
-0.013
0.083
0.085
0.053
0.048
-0.082
0.012
0.074
-0.188
0.006
0.052
-0.043
0.092
0.046
0.016
-0.049
-0.005
0.046
0.069
0.017
-0.105
0.136
0.022
0.067
0.162
0.062
0.009
-0.012
0.042
-0.076
-0.017
-0.031
0.022
0.003
0.080
0.161
0.005
-0.161
0.026
0.064
0.072
-0.009
0.020
0.080
-0.011
-0.012
0.133
0.054
-0.148
-0.127
0.103
0.051
0.090
0.196
-0.036
-0.071
0.083
0.129
-0.210
0.006
0.081
-0.045
-0.026
0.006
0.087
-0.011
-0.078
0.076
0.129
0.048
-0.069
0.045
-0.003
-0.009
-0.023
0.065
-0.094
0.057
0.148
-0.037
-0.098
0.081
-0.002
-0.049
0.044
-0.075
0.037
0.035
0.008
0.005
-0.016
0.034
0.136
0.020
0.109
0.027
-0.077
-0.021
-0.024
0.109
-0.091
0.138
0.011
-0.030
0.012
0.063
0.093
-0.088
-0.094
0.105
-0.021
0.057
0.153
0.009
-0.026
0.026
0.051
-0.061
-0.035
0.059
-0.050
-0.122
-0.025
0.184
0.098
0.016
0.057
-0.040
-0.115
0.126
0.104
0.107
0.072
0.041
0.003
0.062
-0.065
0.045
0.177
0.019
0.070
0.004
-0.027
0.168
0.095
-0.111
0.108
-0.018
-0.016
0.076
0.075
-0.048
-0.019
-0.051
0.060
0.002
-0.065
0.097
0.011
0.082
-0.065
0.109
-0.030
-0.038
0.083
-0.022
0.029
0.108
0.080
0.023
0.081
-0.014
0.027
-0.068
0.070
-0.035
-0.043
0.107
-0.026
0.071
-0.140
0.033
0.115
0.118
0.002
-0.110
0.125
-0.023
0.021
-0.051
-0.063
0.011
0.074
0.062
0.084
-0.027
-0.035
0.017
0.063
0.033
0.024
0.012
0.108
0.038
-0.006
0.015
-0.005
-0.033
0.034
0.022
-0.019
-0.120
-0.074
0.055
-0.009
0.131
-0.035
-0.000
-0.032
-0.021
0.021
0.079
-0.054
0.025
-0.003
0.093
-0.037
-0.027
0.067
0.028
0.008
0.040
0.114
-0.052
0.023
-0.031
-0.007
0.031
-0.026
0.109
0.082
-0.046
0.000
0.071
0.017
-0.010
0.073
0.082
-0.034
0.105
-0.023
0.089
-0.003
-0.008
-0.067
0.048
0.107
-0.060
-0.034
0.080
-0.043
0.133
-0.076
-0.022
0.102
0.038
-0.021
-0.013
-0.028
0.162
0.019
0.004
-0.009
0.017
-0.005
0.069
0.081
0.001
-0.018
0.078
0.103
-0.029
-0.019
0.045
0.047
0.065
0.083
0.030
0.112
0.012
-0.095
0.006
-0.074
0.042
0.137
0.003
-0.036
0.073
0.118
-0.037
0.007
0.013
0.005
0.091
-0.030
-0.009
0.005
-0.001
0.047
0.106
0.010
0.029
0.004
-0.014
0.074
0.076
-0.022
-0.060
-0.076
0.122
0.051
0.098
-0.046
0.105
0.004
0.154
-0.031
-0.072
-0.020
-0.024
0.075
0.221
-0.049
0.020
0.047
-0.094
0.073
0.020
0.053
-0.059
0.014
0.035
0.001
-0.077
0.070
0.032
0.002
-0.050
0.063
0.077
0.117
-0.015
0.035
0.029
-0.084
-0.128
0.045
-0.007
0.056
0.039
-0.065
-0.122
0.036
0.052
0.098
0.007
0.031
0.035
-0.075
0.129
-0.138
-0.085
0.053
0.041
0.139
-0.084
-0.135
0.109
0.136
-0.062
0.061
-0.023
-0.034
0.067
-0.026
-0.024
0.009
0.047
0.071
0.030
0.071
0.013
-0.001
-0.019
0.096
0.045
0.008
0.026
-0.014
-0.008
0.073
0.015
-0.003
0.041
0.037
-0.065
0.121
-0.068
-0.013
0.027
0.036
-0.012
-0.042
-0.070
0.159
0.078
-0.083
0.038
0.008
-0.023
0.089
0.092
0.056
-0.040
0.039
0.008
0.106
0.017
0.098
-0.064
0.002
0.065
0.081
0.065
0.030
0.103
-0.058
0.013
0.078
0.046
0.089
0.044
-0.196
0.051
0.072
0.109
0.054
-0.018
0.058
0.073
0.033
-0.011
0.038
0.078
0.071
-0.017
0.076
0.068
-0.214
0.018
0.124
-0.046
0.024
-0.035
-0.040
-0.046
0.117
0.053
0.066
-0.012
-0.113
0.026
0.034
0.055
0.017
-0.007
-0.031
-0.034
-0.024
0.044
0.136
0.041
0.079
0.032
0.089
-0.010
0.002
-0.057
0.025
0.048
0.070
0.001
0.043
-0.091
-0.011
-0.026
0.031
0.196
0.062
0.046
0.067
-0.029
0.005
-0.010
0.016
0.057
-0.019
0.066
0.050
0.016
0.000
-0.015
0.072
0.055
-0.001
-0.052
0.017
-0.130
0.058
0.014
0.035
0.136
0.022
-0.077
0.036
0.082
-0.127
0.093
0.155
0.029
-0.035
0.112
-0.028
0.037
0.026
0.010
0.071
-0.072
0.077
0.093
0.051
0.003
0.041
-0.025
0.064
-0.014
-0.044
0.110
0.024
-0.002
0.060
0.023
0.011
0.006
-0.039
0.046
0.049
-0.018
0.047
0.031
-0.003
0.034
0.105
0.046
0.012
-0.005
-0.008
0.039
0.081
0.102
0.027
-0.105
0.055
0.021
0.038
0.013
0.005
0.111
-0.027
-0.098
0.078
-0.031
0.091
-0.016
-0.026
0.036
-0.117
0.094
0.083
-0.048
0.059
-0.115
0.097
0.107
0.009
-0.001
-0.039
0.089
0.021
0.034
-0.071
-0.003
0.073
0.065
-0.045
-0.059
0.133
-0.113
0.030
0.107
-0.050
-0.028
0.061
0.005
-0.035
0.013
-0.001
-0.102
0.123
0.046
0.122
0.021
-0.094
-0.042
0.080
0.008
0.022
0.093
-0.119
0.068
0.043
0.085
-0.115
0.088
0.049
-0.063
-0.045
0.127
0.029
0.003
-0.016
0.062
0.054
-0.057
0.221
-0.083
-0.002
0.035
0.078
0.155
-0.122
-0.028
0.108
-0.014
0.012
-0.032
0.012
0.043
0.150
-0.144
-0.003
0.037
-0.086
-0.079
-0.030
0.043
0.025
-0.018
-0.009
-0.092
0.054
-0.013
0.014
0.069
-0.035
0.101
0.154
0.074
0.017
-0.151
-0.068
0.024
0.017
0.128
-0.003
0.078
0.109
0.049
0.081
0.049
-0.022
-0.005
0.089
0.022
0.058
0.038
0.070
0.058
-0.055
-0.030
0.017
-0.041
0.118
0.020
-0.102
0.084
0.117
-0.067
-0.065
0.096
0.023
0.029
0.014
-0.004
0.016
-0.017
0.007
0.043
0.012
-0.015
0.168
-0.044
-0.081
0.214
-0.230
-0.062
0.065
0.080
0.104
0.020
-0.008
-0.006
0.107
0.011
0.172
-0.064
0.096
-0.054
-0.020
0.087
0.087
-0.080
0.099
0.106
-0.064
0.085
0.004
0.026
-0.038
-0.035
-0.029
0.064
-0.031
0.083
0.085
0.052
-0.016
0.202
0.046
-0.029
-0.036
0.080
0.037
0.041
0.085
-0.042
-0.114
0.140
0.147
0.013
-0.017
-0.132
0.007
0.081
-0.024
-0.003
0.085
-0.041
-0.044
0.028
0.109
0.022
0.014
-0.111
-0.045
0.090
0.012
0.062
-0.022
0.035
0.008
-0.008
0.078
0.062
0.188
-0.092
0.036
-0.055
0.091
0.127
-0.053
0.000
-0.022
0.085
0.089
-0.024
0.140
0.008
0.074
-0.036
0.064
-0.005
0.015
0.028
0.103
-0.043
0.020
0.081
-0.054
-0.095
-0.027
0.012
-0.025
0.096
0.075
0.014
0.026
-0.008
0.028
0.099
0.070
-0.009
-0.073
0.026
0.182
-0.061
-0.005
0.019
-0.025
-0.000
-0.024
0.001
0.090
0.062
-0.016
0.102
-0.109
0.003
-0.016
0.046
0.167
0.056
-0.077
0.016
-0.007
-0.026
0.044
-0.016
0.022
0.034
-0.021
0.105
0.081
0.019
0.013
0.031
-0.041
0.088
-0.027
0.011
-0.014
-0.056
-0.072
0.148
0.088
0.012
0.066
-0.069
-0.067
-0.088
0.021
0.114
0.026
0.069
-0.017
0.093
-0.079
-0.070
0.100
0.067
-0.069
-0.060
0.026
0.096
-0.065
0.066
0.034
0.023
0.056
0.020
0.005
0.099
-0.052
0.114
-0.022
0.062
-0.011
0.055
0.092
-0.032
0.037
-0.087
-0.199
0.083
0.024
0.045
-0.073
0.014
0.158
-0.001
-0.046
0.149
-0.039
0.039
0.090
-0.038
-0.005
0.075
-0.052
0.032
0.135
0.012
-0.082
-0.002
-0.020
0.097
0.121
0.018
0.038
-0.048
-0.056
0.092
0.218
-0.010
-0.012
-0.038
0.097
0.007
0.022
0.069
0.020
0.061
