0.052
-0.011
-0.123
-0.006
0.071
0.030
0.090
0.052
0.070
0.050
-0.022
0.051
-0.064
0.019
0.077
-0.092
-0.018
0.038
0.028
0.097
-0.004
0.020
-0.138
-0.080
0.016
0.149
-0.026
-0.038
-0.016
0.002
0.093
-0.018
-0.029
0.050
0.044
-0.034
-0.016
0.063
0.109
-0.025
0.072
-0.106
0.082
0.010
-0.016
-0.008
0.088
-0.030
0.078
0.018
-0.120
-0.001
0.147
-0.003
-0.108
-0.013
0.079
0.141
0.054
-0.078
0.034
-0.057
0.079
0.122
0.028
-0.037
0.012
0.061
0.055
-0.011
0.023
0.077
-0.006
-0.040
-0.068
0.058
0.070
-0.015
-0.007
0.032
0.027
-0.041
0.028
-0.018
0.120
0.032
0.055
0.037
-0.081
0.035
-0.084
-0.024
-0.027
0.126
-0.053
0.079
-0.030
-0.032
-0.008
-0.031
-0.046
0.080
0.042
0.023
0.037
0.076
0.000
0.026
0.079
0.059
-0.041
-0.020
0.089
0.089
-0.022
0.047
0.164
-0.012
0.039
-0.060
-0.042
0.065
-0.069
0.040
-0.001
0.078
-0.005
-0.157
-0.019
0.038
0.005
0.039
0.016
0.062
0.005
-0.008
0.007
0.055
0.125
-0.033
0.027
0.053
-0.020
-0.003
-0.042
0.026
0.121
0.062
-0.028
-0.043
0.099
0.091
-0.021
0.056
0.026
-0.006
0.036
0.074
0.062
-0.153
-0.031
0.062
0.092
-0.044
0.067
0.035
-0.060
-0.072
-0.031
-0.004
0.007
0.094
-0.024
-0.064
0.072
0.083
0.055
0.098
0.055
-0.078
0.019
0.078
0.014
0.024
-0.096
-0.066
0.059
0.092
0.152
0.038
-0.044
0.038
0.067
-0.062
-0.041
-0.031
-0.048
0.113
0.192
0.055
0.016
0.052
-0.007
-0.073
0.010
0.120
-0.101
0.000
0.091
0.044
0.062
0.066
-0.078
-0.102
0.194
0.048
0.025
-0.043
-0.109
0.071
0.053
0.007
-0.034
-0.007
0.082
0.079
0.020
-0.011
-0.088
-0.024
0.144
-0.018
-0.010
0.032
0.107
-0.007
0.020
-0.009
0.132
0.026
0.015
-0.018
0.106
-0.030
0.024
0.004
0.025
0.073
0.065
0.189
0.063
0.020
-0.071
0.041
0.034
-0.006
0.113
0.160
0.047
-0.032
0.084
0.021
-0.009
-0.057
0.054
-0.023
0.030
0.173
0.052
-0.067
0.025
0.071
-0.005
0.114
0.052
0.065
-0.016
-0.023
-0.056
0.011
0.013
0.058
0.016
0.116
0.108
-0.107
-0.009
-0.025
-0.099
0.083
0.088
-0.010
0.065
0.184
0.025
-0.124
0.068
0.048
0.015
0.049
-0.008
0.033
0.011
-0.000
0.029
0.108
-0.066
0.019
0.129
0.150
-0.009
-0.081
-0.002
-0.019
0.047
0.127
0.118
0.108
-0.052
0.041
0.001
0.046
-0.010
0.009
0.084
-0.091
-0.072
0.090
0.015
-0.153
0.028
0.036
-0.022
0.143
-0.029
0.035
0.004
-0.050
0.023
0.108
-0.035
-0.004
-0.001
-0.043
0.104
-0.079
-0.054
0.051
0.042
-0.030
0.023
0.126
0.121
-0.027
0.042
-0.003
-0.096
0.008
-0.058
-0.005
0.073
0.065
0.036
0.013
0.017
0.041
0.076
0.025
-0.049
0.074
0.078
-0.005
-0.029
0.132
0.010
-0.006
0.070
-0.026
-0.089
0.035
0.161
-0.049
-0.051
0.061
0.118
0.014
0.015
-0.000
0.078
0.016
0.019
-0.026
0.072
0.070
0.153
-0.023
0.000
0.026
0.031
-0.091
0.160
-0.130
0.033
-0.113
0.057
0.098
0.071
-0.007
0.041
-0.041
0.031
0.045
-0.076
-0.081
-0.046
0.191
-0.069
0.004
0.025
0.031
0.068
0.059
0.027
0.020
0.040
-0.012
0.088
0.086
0.061
-0.004
0.029
0.022
-0.008
0.113
0.031
-0.101
0.006
0.098
0.092
-0.032
-0.018
-0.046
0.166
0.107
-0.032
0.027
0.028
-0.012
0.020
0.022
-0.054
-0.001
-0.013
0.152
-0.031
-0.036
0.074
-0.028
0.104
0.086
0.023
0.092
0.081
-0.126
-0.072
0.020
0.108
0.050
0.050
-0.139
0.044
0.162
-0.066
0.017
0.008
0.116
0.031
-0.043
0.043
0.075
-0.018
0.029
0.225
0.014
-0.029
-0.044
0.048
0.100
-0.038
0.052
-0.013
0.042
-0.027
0.026
0.198
-0.007
-0.019
0.051
-0.160
0.073
0.007
0.072
0.025
-0.004
0.101
0.026
-0.040
0.040
0.048
0.149
0.080
0.087
0.063
-0.096
-0.038
0.081
0.047
0.054
0.093
0.007
0.091
-0.102
-0.024
-0.002
0.152
0.075
-0.083
0.010
0.101
-0.103
-0.009
0.027
0.022
0.003
-0.027
0.039
0.042
-0.019
0.053
0.072
0.001
0.034
-0.128
0.080
-0.033
0.085
-0.035
-0.027
0.029
-0.440
-1.902
-1.253
0.950
1.516
0.935
0.101
-0.337
-0.386
-0.332
-0.052
0.108
0.271
0.532
0.524
0.362
0.399
0.337
0.121
0.037
-0.099
-0.145
-0.056
-0.133
-0.122
-0.250
-0.286
-0.075
-0.155
-0.000
-0.098
-0.060
0.017
0.047
0.073
-0.021
0.012
-0.021
-0.036
-0.007
0.068
-0.077
0.005
0.125
0.052
-0.045
0.061
0.025
0.001
0.088
0.035
0.058
-0.061
0.064
0.085
0.078
0.119
0.017
-0.003
0.109
0.017
0.025
0.133
0.181
-0.025
0.081
0.054
0.064
-0.111
0.041
0.069
0.168
0.050
-0.129
0.081
0.044
-0.142
-1.942
-3.704
-4.129
-4.122
-2.243
2.796
4.445
4.827
1.032
-2.764
-3.857
-4.124
-2.104
2.571
4.272
4.673
4.602
4.451
4.212
3.995
3.777
3.445
1.736
-0.598
-2.393
-3.610
-3.830
-3.692
-3.031
-1.973
-1.224
-0.592
-0.073
0.241
0.668
0.909
0.896
0.847
0.514
0.307
-0.005
-0.279
-0.336
-0.472
-0.285
-0.423
-0.251
-0.199
0.107
0.181
0.183
0.426
0.531
0.596
0.596
0.688
0.733
0.760
0.597
0.615
0.622
0.561
0.555
0.563
0.602
0.528
0.517
0.402
0.334
0.431
0.467
0.180
0.286
0.329
0.254
0.061
0.101
0.103
0.051
-0.072
-0.058
0.029
-0.035
-0.227
-0.231
-0.106
-0.255
-0.371
-0.257
-0.230
-0.267
-0.391
-0.402
-0.370
-0.266
-0.331
-0.310
-0.405
-0.352
-0.517
-0.289
-0.308
-0.247
-0.225
-0.417
-0.335
-0.214
-0.241
-0.259
-0.236
-0.187
-0.213
-0.132
-0.144
-0.170
0.022
-0.125
-0.100
-0.061
-0.032
-0.008
0.110
0.028
0.043
0.041
-0.072
0.139
0.108
0.012
0.103
0.080
0.116
0.070
0.161
0.131
0.023
0.121
0.032
0.113
0.114
0.054
0.047
0.138
0.141
0.010
-0.053
0.120
0.187
0.083
-0.041
-0.010
0.025
-0.014
0.145
0.053
0.080
-0.071
0.016
-0.016
-0.037
0.030
-0.024
0.057
-0.019
-0.063
0.078
-0.011
0.039
-0.094
0.017
0.094
0.146
0.005
0.068
-0.079
-0.007
0.098
0.050
0.104
0.162
0.117
0.055
-0.006
0.088
0.068
0.049
-0.071
0.165
0.075
0.082
0.094
0.055
-0.042
0.037
0.027
-0.016
0.034
0.094
-0.039
0.011
0.045
0.067
-0.017
-0.006
0.038
0.004
0.067
-0.014
-0.082
-0.017
0.047
0.008
0.001
-0.078
-0.098
-0.133
0.042
-0.080
-0.057
-0.063
-0.070
-0.059
-0.029
-0.148
-0.017
-0.176
0.033
-0.028
-0.082
-0.083
-0.144
0.027
-0.113
-0.089
-0.049
0.035
0.005
-0.083
0.010
-0.023
0.006
-0.048
-0.042
0.021
0.037
-0.033
-0.003
0.038
0.077
0.133
0.052
-0.094
-0.101
0.223
0.047
0.214
0.025
0.098
0.105
0.039
0.049
0.035
0.153
0.184
0.008
-0.009
0.066
0.245
0.068
0.116
0.050
0.018
-0.030
0.099
0.057
0.217
0.040
0.034
-0.008
0.090
-0.016
0.118
0.033
0.078
-0.013
-0.126
-0.020
0.068
-0.036
0.029
-0.077
0.004
-0.014
-0.089
-0.018
-0.145
0.043
0.027
0.013
-0.080
-0.147
-0.006
0.023
0.034
-0.059
-0.036
-0.113
-0.206
0.003
0.004
0.006
0.019
-0.064
-0.027
-0.006
0.002
-0.081
-0.006
-0.118
0.082
0.141
-0.021
-0.108
-0.034
0.117
-0.002
-0.038
0.030
-0.041
0.088
0.109
-0.046
0.150
-0.112
0.015
0.038
-0.049
0.072
0.086
-0.074
0.156
0.027
-0.002
0.065
0.038
0.029
0.019
0.151
0.160
-0.102
0.217
0.053
0.055
-0.020
-0.048
0.024
0.070
0.125
0.071
0.033
0.088
0.015
0.062
-0.053
0.001
0.157
0.098
0.014
0.020
0.015
-0.009
0.027
-0.024
0.085
0.047
0.005
-0.004
-0.008
-0.024
0.069
0.143
-0.069
0.004
0.082
-0.096
0.064
-0.059
0.062
-0.020
0.031
0.035
-0.098
0.020
0.192
-0.058
-0.058
0.053
0.021
0.060
-0.027
0.121
-0.019
0.039
-0.059
0.115
-0.147
-0.002
0.069
0.010
-0.064
0.012
0.011
-0.023
0.011
0.060
0.019
-0.035
0.044
0.073
-0.034
-0.036
0.030
0.162
-0.037
0.030
-0.122
0.113
-0.034
0.083
0.035
0.009
0.071
-0.119
0.010
-0.004
0.000
0.122
0.087
0.053
0.028
-0.077
0.042
-0.083
-0.037
0.127
-0.040
0.065
0.165
-0.047
-0.010
-0.087
0.242
-0.028
0.033
0.062
-0.004
0.055
0.058
0.059
-0.037
0.058
0.023
0.084
-0.090
0.027
0.045
0.050
-0.049
0.008
-0.001
-0.045
-0.059
-0.031
-0.163
0.216
0.037
0.008
-0.029
-0.072
0.036
0.041
-0.039
0.005
0.034
0.048
0.096
-0.045
0.154
-0.037
0.088
0.043
0.122
-0.125
-0.098
0.021
-0.056
0.110
-0.116
0.088
0.122
0.003
-0.010
-0.094
0.135
-0.012
-0.018
-0.018
-0.003
0.032
0.008
0.034
0.085
-0.144
0.000
0.077
-0.093
-0.013
0.006
0.121
-0.042
0.075
-0.050
-0.040
-0.045
0.017
-0.056
0.044
-0.006
0.119
-0.028
-0.025
-0.098
0.092
-0.032
0.098
-0.122
0.052
-0.013
0.078
0.166
0.041
-0.059
0.037
0.070
0.038
-0.084
0.156
-0.056
0.006
0.069
0.018
0.048
-0.052
0.018
-0.014
0.113
0.008
0.046
0.072
-0.151
0.092
0.009
0.092
-0.022
0.056
0.016
0.027
0.037
0.003
0.043
0.011
0.112
-0.049
0.048
0.040
0.021
0.131
-0.096
-0.066
-0.026
0.009
0.095
0.016
0.098
-0.028
0.011
0.075
-0.039
0.123
0.103
-0.018
-0.105
0.196
0.004
-0.088
-0.006
0.101
-0.006
-0.082
0.072
0.075
0.030
-0.048
-0.084
0.104
0.066
0.007
0.142
0.173
-0.077
-0.113
-0.045
0.064
0.127
0.058
-0.070
-0.049
0.048
-0.034
0.096
-0.044
0.088
0.113
-0.019
0.041
0.042
-0.011
0.094
0.012
0.117
-0.015
-0.050
0.014
0.054
0.016
-0.050
-0.016
0.025
-0.007
0.138
0.038
-0.099
-0.077
0.079
-0.027
0.153
-0.036
0.047
0.173
0.041
-0.079
0.080
0.066
-0.030
0.088
0.042
-0.071
0.031
-0.051
0.080
0.066
-0.055
0.044
0.004
-0.054
0.055
0.136
0.074
-0.080
0.019
-0.052
0.061
0.025
0.055
0.019
0.089
-0.059
-0.021
-0.003
-0.061
0.074
0.031
-0.039
-0.102
0.121
0.080
0.019
0.077
-0.087
0.023
-0.071
-0.052
0.053
0.051
0.117
0.137
0.053
0.050
-0.092
0.042
0.009
0.000
0.105
0.002
-0.089
0.152
0.004
-0.025
-0.049
0.049
0.018
0.025
0.020
0.019
0.041
0.019
0.073
-0.010
-0.006
-0.025
0.088
0.062
-0.057
0.001
0.019
0.098
0.034
-0.015
0.025
-0.114
-0.038
0.013
0.083
0.069
0.122
-0.168
-0.001
-0.003
0.091
-0.005
-0.033
0.193
0.001
-0.087
-0.118
0.085
0.100
-0.019
-0.005
-0.048
0.011
0.186
0.073
-0.045
-0.038
0.124
0.014
0.017
-0.091
0.110
0.007
-0.023
0.079
0.076
-0.002
0.045
0.152
0.029
0.026
-0.151
0.003
-0.090
0.062
0.142
0.023
0.018
0.077
-0.028
-0.029
0.085
-0.041
0.052
0.051
0.051
-0.044
0.036
-0.074
-0.052
0.088
-0.000
0.003
-0.115
0.117
0.037
-0.055
-0.000
0.054
0.104
0.060
0.078
-0.099
0.039
0.073
-0.112
0.048
-0.056
-0.010
0.053
0.148
0.104
0.023
-0.072
-0.090
0.073
-0.091
-0.018
0.143
0.099
0.075
-0.002
-0.011
0.059
0.016
-0.085
0.195
0.012
0.066
-0.040
-0.044
0.038
0.115
-0.020
-0.004
-0.010
0.068
0.041
0.090
0.059
-0.062
-0.031
-0.102
0.134
0.086
0.010
-0.010
-0.115
-0.047
-0.047
0.123
-0.007
-0.114
-0.062
0.089
0.068
0.013
0.024
0.051
0.002
-0.023
0.086
0.139
-0.064
0.033
0.060
0.065
0.047
0.028
0.066
-0.032
0.034
0.082
0.059
0.053
-0.068
-0.048
0.095
0.026
0.085
0.019
-0.121
-0.027
0.092
0.033
0.037
-0.052
-0.045
-0.096
0.043
0.063
0.108
-0.011
0.182
-0.047
-0.117
0.062
-0.019
0.112
0.058
-0.020
-0.030
-0.036
0.078
0.058
-0.013
0.069
0.134
-0.016
-0.029
-0.080
-0.011
0.092
0.056
0.181
0.084
-0.123
0.072
-0.015
-0.092
0.227
0.073
0.048
-0.047
-0.092
0.045
-0.083
0.065
0.128
0.173
0.042
-0.092
-0.173
0.057
0.103
0.027
0.002
-0.019
0.101
-0.040
-0.037
0.131
0.068
-0.001
-0.034
0.087
0.092
0.015
0.086
-0.024
-0.048
-0.020
0.090
-0.035
-0.077
-0.023
0.036
0.091
-0.018
0.049
0.027
-0.008
0.002
0.126
-0.048
0.096
-0.048
0.094
0.032
0.026
0.068
0.060
-0.076
0.008
0.009
0.184
0.051
-0.053
0.008
0.005
-0.070
-0.005
-0.054
0.218
0.028
0.067
-0.028
0.101
0.051
-0.052
-0.034
0.020
0.122
-0.003
-0.055
0.022
0.180
-0.033
0.020
-0.083
-0.072
-0.030
0.040
0.065
0.011
0.060
0.048
-0.089
0.033
-0.015
0.145
-0.081
0.037
0.038
0.021
0.042
0.028
-0.047
0.096
0.048
-0.020
0.013
-0.058
0.052
-0.063
0.040
-0.008
0.153
0.022
0.091
0.021
-0.005
0.130
-0.018
0.042
-0.015
-0.020
-0.057
-0.061
0.109
0.173
-0.159
-0.006
0.084
-0.008
0.071
-0.113
0.034
0.107
0.057
-0.008
0.123
-0.103
0.020
0.133
-0.035
-0.031
0.026
0.049
0.056
0.046
0.049
-0.016
0.080
0.113
0.101
-0.022
-0.090
0.045
-0.032
0.163
0.031
-0.001
-0.072
0.049
0.133
0.003
-0.037
-0.052
0.062
-0.096
-0.046
0.060
0.229
0.022
-0.076
0.003
0.068
-0.079
0.048
-0.026
0.046
0.044
0.112
-0.021
-0.016
0.158
0.082
0.062
-0.074
0.045
0.055
0.026
-0.038
-0.027
0.123
0.103
0.084
0.057
0.098
-0.109
0.078
-0.074
0.053
0.109
0.035
0.027
0.000
0.003
0.002
0.081
-0.011
0.018
-0.003
0.061
0.080
-0.024
0.009
-0.034
-0.054
0.039
0.069
-0.071
0.103
0.111
-0.051
-0.028
0.059
-0.032
-0.005
0.086
-0.007
0.029
-0.042
-0.024
0.007
0.042
-0.002
0.051
-0.120
-0.025
0.021
0.081
0.121
0.114
-0.009
0.042
-0.022
0.054
0.092
0.035
-0.032
-0.015
0.006
0.123
-0.076
0.114
0.096
0.030
-0.130
0.076
0.091
-0.070
-0.028
0.021
-0.080
-0.045
0.014
-0.022
0.034
0.094
0.058
0.003
0.094
0.129
-0.011
-0.047
-0.018
0.058
0.099
0.019
-0.003
0.031
-0.146
0.099
-0.046
-0.001
-0.030
0.006
0.022
0.082
0.007
0.002
-0.005
0.030
0.161
0.057
0.002
0.128
-0.052
0.024
0.002
0.100
0.097
0.009
0.050
-0.075
-0.013
0.057
0.079
-0.016
0.071
0.046
-0.044
0.003
0.073
0.080
0.020
0.133
0.036
0.042
0.040
0.001
0.032
0.059
-0.024
-0.065
0.055
0.072
-0.020
0.070
0.086
-0.068
0.103
0.120
0.021
0.015
-0.054
0.016
0.145
0.060
-0.184
-0.005
0.133
0.015
0.029
0.104
-0.059
0.158
0.138
-0.016
0.049
0.073
-0.114
0.035
0.060
0.133
-0.008
0.065
0.113
-0.098
-0.048
0.073
0.034
-0.026
0.089
0.006
0.056
0.009
-0.053
0.057
-0.029
-0.031
0.014
0.042
0.103
-0.003
-0.040
-0.013
0.166
-0.084
-0.097
0.106
0.031
0.084
-0.034
0.021
-0.113
0.095
-0.009
0.023
0.042
-0.068
0.006
0.024
0.078
0.089
0.049
0.025
-0.003
0.054
-0.010
0.034
0.018
0.026
0.099
-0.007
0.029
0.002
-0.045
0.023
-0.028
0.152
0.060
-0.044
0.024
0.010
0.060
-0.016
-0.009
-0.093
0.087
0.112
-0.025
0.066
-0.032
0.087
-0.080
0.079
-0.062
0.075
-0.001
-0.027
-0.016
0.055
0.062
0.079
0.084
-0.001
0.029
0.016
0.058
0.071
0.012
0.008
-0.013
0.017
0.092
0.022
-0.096
0.076
0.067
-0.032
0.019
0.012
-0.033
0.097
0.001
0.041
0.087
0.029
-0.011
-0.065
-0.044
-0.037
0.025
0.146
0.228
-0.062
0.054
0.026
-0.017
0.007
0.016
-0.004
0.054
0.049
-0.015
-0.016
0.058
-0.134
0.013
0.036
0.018
0.081
-0.001
-0.007
0.071
-0.031
-0.130
0.074
0.094
-0.128
0.046
-0.039
0.013
0.102
0.027
0.035
0.057
-0.042
-0.066
-0.042
0.017
0.048
0.041
-0.005
0.045
-0.089
0.116
-0.020
0.036
0.117
-0.064
-0.045
0.011
0.031
-0.006
0.119
-0.028
-0.025
-0.025
0.021
0.038
0.084
0.028
-0.024
-0.007
0.023
0.095
-0.008
-0.016
0.084
0.029
-0.106
0.016
0.111
-0.108
0.060
0.028
0.116
0.034
0.027
0.033
0.094
-0.052
-0.112
0.117
-0.043
-0.006
-0.038
0.042
0.054
-0.011
0.037
-0.053
0.027
0.104
0.127
0.027
-0.020
-0.041
0.122
0.099
-0.037
0.034
0.012
0.033
-0.062
0.116
0.012
-0.006
0.094
-0.054
0.033
0.116
0.131
0.004
-0.053
-0.072
0.106
-0.031
0.010
0.126
-0.058
0.050
0.029
0.080
-0.096
-0.020
0.023
0.015
0.024
0.003
0.065
-0.031
0.089
-0.068
0.162
0.022
-0.027
0.086
0.029
-0.025
-0.030
0.033
0.021
0.004
0.060
-0.034
0.016
0.031
-0.024
0.096
0.064
0.081
0.007
0.022
0.027
0.061
0.096
-0.004
0.017
-0.032
-0.014
0.094
0.019
-0.045
0.068
0.146
-0.122
-0.016
0.083
0.185
-0.061
-0.076
-0.022
0.188
0.039
-0.053
0.040
0.054
-0.074
0.101
0.056
0.021
0.056
0.018
0.065
-0.039
0.099
-0.055
0.009
-0.122
0.104
0.058
0.051
0.115
0.078
-0.069
-0.170
0.076
0.005
0.170
-0.041
0.029
0.032
-0.074
0.087
-0.036
0.067
0.089
0.026
0.081
0.046
0.014
0.029
0.029
0.022
0.020
0.044
-0.029
0.070
0.017
0.161
-0.171
-0.058
0.143
0.146
-0.051
-0.019
0.024
0.050
-0.113
0.077
0.164
0.006
-0.013
0.051
-0.032
0.006
0.075
0.005
-0.045
0.066
0.074
-0.041
0.064
0.044
0.063
-0.003
-0.088
0.005
-0.020
-0.055
0.032
0.043
0.035
-0.077
0.031
0.008
0.011
-0.008
0.024
-0.096
-0.010
-0.047
0.073
0.055
-0.015
0.031
-0.034
0.015
0.071
0.004
0.035
-0.051
-0.138
0.082
0.038
0.048
0.154
0.192
-0.171
-0.089
0.057
0.040
0.044
0.044
-0.015
-0.032
0.034
0.113
-0.011
0.054
0.052
-0.033
-0.020
0.013
0.009
0.046
0.106
0.073
-0.001
-0.034
-0.059
0.055
-0.024
-0.007
0.173
-0.116
-0.065
-0.029
0.057
0.133
-0.015
0.023
-0.065
0.038
0.097
0.005
0.085
-0.027
0.022
0.125
0.075
0.073
0.021
-0.053
0.075
0.006
0.072
-0.017
0.063
0.070
-0.061
0.166
0.006
0.134
0.121
-0.006
-0.114
0.073
0.136
-0.051
0.059
-0.020
0.006
0.181
-0.104
0.065
0.195
-0.043
0.028
-0.098
0.093
0.137
0.007
-0.086
0.180
0.044
0.053
0.005
-0.063
0.156
-0.052
0.101
0.091
-0.022
0.049
-0.064
-0.045
0.073
-0.035
-0.011
0.049
-0.014
-0.004
0.093
0.064
0.040
-0.096
0.036
0.045
-0.056
0.064
-0.017
0.070
0.136
-0.011
-0.131
-0.041
0.080
0.067
0.088
0.091
-0.008
0.014
0.028
-0.195
0.038
0.080
0.037
-0.040
-0.059
0.118
-0.006
0.074
-0.014
-0.065
-0.003
-0.010
-0.056
-0.027
0.148
0.012
0.049
0.072
0.152
-0.062
0.033
0.080
-0.016
0.026
0.066
-0.017
0.071
0.029
-0.012
0.059
0.070
0.019
-0.073
-0.037
-0.103
0.050
0.179
0.007
-0.053
0.041
0.120
0.052
0.016
-0.009
-0.035
-0.116
0.195
0.005
-0.099
0.048
0.018
0.021
0.049
0.039
-0.025
0.054
-0.076
-0.070
0.083
0.052
0.063
0.012
0.095
-0.026
0.214
0.067
-0.060
0.001
0.036
-0.032
-0.081
0.029
0.047
-0.030
-0.055
0.091
0.063
0.054
-0.019
0.004
0.017
0.041
0.061
0.020
0.090
0.005
0.016
0.062
0.005
0.032
-0.024
0.117
-0.057
-0.069
0.077
0.035
0.109
0.052
0.010
0.029
-0.131
-0.007
-0.037
-0.011
0.099
0.068
-0.011
-0.009
-0.097
-0.026
0.159
-0.006
-0.055
0.015
-0.015
0.076
0.069
-0.073
0.052
0.116
-0.029
0.094
0.003
-0.069
0.028
0.112
0.046
-0.027
0.149
0.036
0.039
0.123
0.038
-0.052
-0.001
0.020
-0.014
0.093
0.101
0.093
-0.034
-0.090
0.014
0.049
-0.026
0.126
-0.047
-0.052
0.056
0.100
0.049
0.036
-0.019
0.112
-0.086
0.184
-0.038
-0.060
0.084
0.120
-0.064
0.002
0.062
-0.025
-0.018
0.038
0.028
0.158
0.002
-0.015
-0.097
0.007
0.124
0.011
0.002
0.015
-0.056
0.142
0.044
0.065
-0.037
0.019
-0.014
0.152
0.044
-0.061
-0.104
0.008
0.145
0.012
0.021
0.018
-0.013
0.057
-0.043
0.055
0.117
0.127
0.024
-0.114
-0.113
-0.030
0.104
0.066
0.067
-0.027
-0.012
0.085
0.015
0.095
-0.045
0.012
0.021
-0.002
0.166
0.065
0.148
-0.097
-0.053
0.014
0.028
0.043
0.066
-0.123
0.001
0.222
-0.009
-0.081
-0.049
-0.037
0.085
0.058
-0.025
0.080
-0.050
0.054
0.024
0.059
-0.018
0.081
0.033
-0.041
0.023
-0.015
0.159
-0.057
0.107
0.073
0.075
0.037
-0.096
0.056
0.002
0.025
0.059
-0.050
0.149
0.147
0.041
-0.097
-0.053
0.032
0.085
-0.042
-0.030
0.072
0.020
0.006
0.048
-0.080
-0.008
0.060
0.104
-0.101
0.139
-0.021
0.027
-0.010
0.003
-0.079
0.079
0.085
-0.013
0.047
-0.016
-0.034
0.056
0.082
0.064
-0.027
0.090
0.101
-0.236
0.010
0.063
-0.040
-0.037
0.144
-0.026
0.033
0.026
0.010
-0.030
-0.049
0.059
0.060
-0.103
0.079
0.063
0.046
-0.078
-0.037
0.002
0.069
-0.012
0.053
0.011
-0.030
-0.052
-0.004
0.057
-0.085
0.056
0.088
0.053
-0.025
-0.074
0.030
0.038
-0.072
0.121
-0.036
0.024
-0.027
0.140
-0.061
0.091
-0.086
0.032
0.146
0.110
-0.043
-0.105
0.067
0.083
-0.085
-0.019
0.001
0.029
0.123
0.109
-0.237
0.005
0.066
-0.044
0.060
-0.003
0.115
-0.041
-0.142
0.119
0.024
-0.026
0.078
0.081
0.090
-0.101
-0.026
0.022
0.003
-0.002
0.035
0.017
-0.011
-0.107
0.078
0.022
0.020
-0.044
0.028
-0.023
0.024
0.061
0.045
0.052
0.084
-0.017
0.060
0.083
0.010
-0.073
-0.050
0.068
-0.011
0.050
-0.088
0.001
0.078
0.048
0.039
-0.032
0.037
0.010
-0.215
-0.022
0.236
0.128
0.027
-0.147
0.025
0.103
-0.169
-0.010
-0.052
0.026
-0.052
0.118
0.050
0.030
-0.073
0.017
-0.001
-0.002
0.088
0.028
-0.053
-0.001
0.037
0.168
0.004
0.040
-0.128
0.002
0.040
-0.056
-0.018
-0.036
0.038
-0.083
0.071
-0.074
0.032
0.091
0.040
0.040
-0.003
-0.011
-0.072
0.147
0.050
-0.020
-0.043
0.021
0.136
-0.033
0.008
0.013
0.026
0.046
0.063
0.148
0.134
-0.094
-0.116
0.056
0.081
0.056
-0.027
-0.015
0.003
-0.037
0.063
0.102
0.099
0.049
-0.037
-0.033
0.035
-0.027
-0.073
0.195
-0.125
0.070
0.017
0.008
0.061
-0.051
0.110
-0.038
0.006
0.049
-0.029
0.061
0.047
0.053
0.110
0.042
-0.081
0.017
0.013
0.042
-0.055
0.050
0.114
0.085
0.016
0.024
-0.052
0.023
0.062
0.052
0.045
0.103
0.023
0.041
0.064
0.020
-0.032
0.043
0.038
-0.024
-0.012
-0.043
0.079
0.069
0.042
-0.041
0.025
-0.017
0.093
0.073
-0.009
0.004
0.121
0.023
0.078
-0.040
0.001
0.058
0.141
-0.087
0.011
0.030
0.105
0.026
0.038
-0.020
-0.095
0.164
0.023
-0.079
0.046
0.013
-0.062
0.076
0.147
0.013
0.100
-0.094
0.185
-0.030
0.050
-0.116
0.115
0.046
0.052
0.064
-0.066
-0.004
0.035
-0.043
0.085
0.178
-0.058
-0.028
0.086
-0.026
0.025
-0.031
0.094
0.028
0.045
0.008
0.048
0.014
-0.005
-0.091
0.125
0.035
-0.054
0.075
0.025
0.107
0.043
-0.037
0.100
0.043
0.028
-0.036
0.041
0.193
-0.075
0.003
-0.012
0.014
-0.059
0.017
0.078
0.130
-0.143
-0.011
-0.070
-0.030
-0.006
0.021
0.009
-0.015
-0.053
0.046
0.075
0.007
0.028
0.055
-0.094
0.058
0.057
-0.029
0.076
0.123
-0.072
-0.069
0.165
0.061
-0.021
-0.070
0.015
0.147
-0.018
0.211
0.038
0.000
-0.080
0.130
0.034
0.076
-0.013
-0.005
-0.064
-0.073
0.215
0.042
-0.120
0.010
0.044
-0.046
0.085
0.056
0.076
-0.002
0.043
-0.166
0.070
0.066
0.031
0.070
0.070
-0.085
0.004
0.064
0.035
0.085
0.115
-0.020
0.162
0.002
-0.011
-0.003
0.054
0.045
0.079
0.040
-0.036
0.056
-0.014
0.040
0.124
-0.039
-0.003
0.041
0.151
-0.041
-0.058
0.008
-0.010
0.055
-0.037
-0.042
0.147
0.005
0.135
0.003
0.024
0.054
-0.004
-0.028
-0.001
0.005
0.027
0.072
0.056
0.115
-0.051
-0.088
0.105
-0.160
0.034
-0.015
0.042
-0.024
0.008
0.005
0.065
0.066
-0.046
-0.049
0.103
-0.012
0.091
-0.031
-0.011
0.119
0.083
0.016
-0.083
-0.009
0.140
-0.076
-0.014
-0.043
0.082
0.090
-0.046
0.031
-0.008
0.007
0.054
-0.108
0.058
0.158
0.082
-0.034
0.017
-0.047
0.016
0.002
-0.011
0.093
-0.024
-0.015
0.062
0.035
-0.040
-0.055
-0.003
0.158
-0.007
0.073
-0.031
0.112
0.020
0.001
0.075
0.057
-0.145
-0.073
0.052
0.077
0.019
0.049
0.056
0.012
0.146
0.002
0.040
-0.029
0.059
0.045
-0.066
0.035
0.036
0.069
0.008
0.035
-0.086
0.077
-0.049
0.024
0.061
0.122
-0.093
-0.041
0.017
-0.068
0.103
0.039
0.004
-0.005
0.116
0.015
0.004
0.016
0.022
-0.006
0.054
-0.039
-0.045
0.073
0.028
0.066
0.056
0.023
0.047
0.018
-0.026
0.021
0.080
-0.047
0.042
-0.053
-0.093
0.014
-0.002
0.056
-0.055
0.093
0.125
-0.007
0.041
0.005
-0.069
-0.054
-0.097
0.138
0.004
0.112
0.052
0.079
0.087
-0.165
0.015
-0.055
0.063
0.058
0.034
0.104
-0.041
-0.032
-0.041
0.006
0.007
0.031
-0.012
-0.051
0.142
-0.009
0.074
0.038
0.096
-0.015
-0.026
-0.028
0.013
0.073
0.033
0.020
0.088
0.075
0.025
0.057
0.003
0.071
0.086
0.019
-0.066
-0.045
-0.002
0.023
0.053
0.072
0.080
-0.066
-0.095
0.121
-0.020
-0.115
-0.025
0.084
0.099
0.032
0.020
-0.007
-0.004
0.107
0.004
0.091
0.033
-0.080
0.012
-0.008
0.066
-0.010
-0.080
-0.043
0.073
0.041
0.071
-0.054
0.051
0.051
-0.119
0.031
0.029
0.022
-0.012
0.106
0.118
0.050
0.116
-0.053
0.068
-0.115
-0.071
0.121
0.025
0.019
-0.066
0.024
0.011
0.067
0.040
-0.046
0.016
-0.035
0.020
0.125
0.044
0.000
-0.053
0.068
0.121
0.007
-0.120
0.099
0.050
0.029
0.050
0.130
0.031
-0.090
-0.030
0.042
0.063
-0.054
0.008
0.015
-0.032
-0.012
0.144
-0.015
-0.031
-0.040
0.057
-0.027
0.088
0.036
-0.046
-0.066
0.104
0.110
0.028
-0.060
0.130
-0.006
0.022
0.031
0.045
0.037
-0.085
0.127
0.009
0.112
-0.014
-0.045
0.053
0.116
0.159
-0.141
-0.038
0.061
0.039
-0.049
-0.009
0.057
0.039
0.072
-0.005
-0.024
-0.136
0.222
0.094
0.024
0.011
-0.026
-0.121
0.011
0.033
-0.076
0.131
-0.078
0.022
0.148
0.047
-0.045
0.109
-0.051
-0.016
0.045
-0.046
-0.002
0.008
0.014
-0.107
0.079
-0.024
0.042
0.132
0.059
-0.076
-0.049
-0.081
0.078
0.064
0.010
-0.024
0.087
0.074
-0.015
0.120
0.058
0.109
-0.059
0.063
0.067
0.015
-0.052
0.057
0.047
-0.046
0.028
0.002
0.041
-0.017
0.091
0.101
-0.063
-0.028
-0.014
0.006
0.069
0.038
0.069
0.002
0.120
-0.031
-0.002
0.019
-0.021
0.036
0.054
-0.133
0.097
0.152
0.108
-0.100
-0.023
-0.027
0.002
0.071
0.057
0.054
0.029
-0.008
0.149
-0.046
0.058
0.003
0.010
0.036
0.065
0.093
0.038
-0.056
0.030
0.116
0.086
0.140
0.023
-0.036
0.037
0.028
0.117
-0.095
0.027
0.026
0.022
0.032
0.053
0.101
-0.117
0.018
0.004
0.007
-0.008
0.119
0.054
0.047
-0.027
-0.046
0.023
0.119
-0.110
0.077
0.018
0.067
-0.031
0.023
0.093
-0.049
-0.048
0.087
0.028
0.017
0.066
0.001
0.041
0.081
-0.010
-0.048
0.046
0.005
0.054
0.028
0.071
0.090
0.018
0.013
0.133
-0.063
-0.020
0.035
0.014
-0.052
-0.006
0.101
0.050
0.005
0.029
0.146
-0.002
-0.078
0.069
0.037
0.139
0.053
0.120
-0.037
0.011
0.013
0.071
0.025
-0.088
-0.054
-0.000
0.006
0.074
0.074
-0.002
-0.082
0.162
-0.021
0.075
-0.061
0.057
0.105
0.063
-0.065
-0.040
-0.006
0.091
0.115
-0.061
0.015
0.047
-0.051
0.025
0.074
0.029
-0.025
0.007
0.047
0.114
0.008
-0.022
0.056
0.057
-0.021
-0.049
0.015
0.103
0.059
-0.004
0.051
-0.020
0.095
0.098
0.038
-0.070
-0.022
-0.069
-0.018
0.138
-0.015
0.060
0.218
-0.007
-0.118
0.038
-0.082
-0.024
0.156
0.090
-0.142
-0.044
0.076
0.015
0.086
-0.004
-0.051
0.130
-0.075
-0.039
0.039
0.119
-0.007
-0.079
0.086
0.010
0.035
-0.042
-0.004
0.097
-0.078
0.002
0.060
0.093
0.064
-0.071
0.050
0.075
-0.119
0.023
0.084
0.004
0.012
0.069
0.009
-0.020
-0.057
-0.036
0.000
0.155
0.027
-0.063
0.083
0.155
-0.034
0.014
0.039
-0.002
-0.093
0.044
0.113
0.209
0.004
-0.027
0.121
-0.019
0.027
0.062
-0.106
-0.015
-0.122
0.135
-0.102
0.065
0.060
-0.006
-0.089
-0.043
0.071
0.047
0.071
0.009
-0.039
-0.049
0.102
-0.029
0.082
0.141
0.054
-0.112
0.106
0.022
0.048
0.066
-0.043
-0.028
-0.028
0.050
-0.047
0.044
-0.018
-0.047
0.159
-0.070
0.050
-0.036
-0.000
0.191
0.025
-0.017
-0.081
0.109
-0.005
-0.042
0.050
0.046
0.107
-0.071
-0.052
0.152
-0.043
-0.073
-0.026
0.006
0.083
0.015
-0.042
0.036
0.041
0.015
0.091
0.041
0.005
-0.042
0.045
-0.064
-0.013
-0.040
0.118
0.052
0.054
-0.084
0.093
0.152
0.001
-0.043
-0.084
0.019
0.050
0.107
0.009
0.072
-0.101
0.053
0.077
0.098
0.038
-0.011
0.028
-0.217
0.002
0.168
0.049
-0.024
0.002
0.059
-0.028
0.023
0.117
0.121
-0.088
0.006
-0.079
0.080
0.115
-0.021
-0.036
0.119
-0.014
-0.032
0.045
0.064
0.021
-0.155
0.122
-0.051
-0.055
-0.014
0.143
0.089
0.081
-0.044
-0.019
0.011
-0.008
-0.059
0.079
0.081
0.074
-0.115
0.015
0.047
0.037
0.041
0.016
-0.023
0.041
0.076
-0.028
0.020
-0.021
0.005
0.088
-0.066
0.094
0.082
0.009
-0.070
-0.038
-0.056
0.011
-0.039
0.112
0.136
-0.030
0.013
-0.056
0.024
0.063
0.062
0.113
-0.018
0.038
-0.122
-0.010
0.046
-0.087
-0.085
-0.101
0.006
0.063
0.199
-0.062
0.107
0.156
-0.054
-0.018
0.069
-0.043
0.030
0.116
0.169
0.155
0.063
0.056
0.067
0.067
-0.094
-0.130
0.056
-0.128
0.086
-0.047
-0.023
0.084
0.014
0.039
0.095
-0.009
-0.035
0.019
-0.052
-0.023
0.217
0.096
0.019
-0.017
0.166
-0.001
-0.016
-0.007
0.110
0.095
0.034
0.057
0.118
-0.038
0.118
0.112
-0.054
-0.029
0.046
0.051
0.010
0.008
0.128
-0.010
0.026
0.079
0.203
0.014
-0.030
-0.082
0.007
0.134
0.146
0.058
-0.024
-0.022
-0.011
0.104
0.102
-0.074
0.015
0.045
0.015
0.017
-0.066
0.049
0.090
0.094
-0.043
-0.001
-0.040
0.094
-0.015
0.046
-0.014
0.084
0.061
0.027
0.006
0.076
0.024
0.001
0.019
0.026
-0.014
0.003
-0.029
0.132
0.015
0.015
0.057
-0.051
-0.008
0.074
-0.047
0.007
-0.029
-0.009
0.065
0.147
-0.000
0.031
-0.036
-0.007
0.089
0.021
-0.028
0.014
-0.032
0.052
0.071
0.046
-0.041
-0.069
-0.023
0.170
0.051
0.049
-0.095
-0.056
0.026
0.067
0.058
0.044
-0.085
-0.101
0.097
0.014
0.107
0.095
0.023
-0.058
0.001
-0.000
0.045
-0.073
-0.071
0.071
0.058
0.078
-0.098
-0.023
0.048
-0.015
-0.003
-0.030
0.117
-0.051
0.008
0.048
0.131
-0.086
-0.063
0.024
0.118
0.028
0.115
-0.079
-0.062
0.090
-0.013
-0.031
0.004
0.039
0.131
0.120
0.024
-0.007
0.030
0.006
0.075
0.053
-0.015
0.000
0.031
0.028
0.039
0.051
-0.007
0.034
-0.004
0.018
-0.078
-0.046
0.138
0.086
0.056
-0.001
0.031
-0.033
0.024
-0.047
0.029
-0.041
0.037
0.045
0.017
-0.016
0.045
0.060
0.046
-0.019
-0.001
0.005
0.127
0.016
-0.026
0.003
-0.042
-0.018
-0.065
0.189
0.147
-0.069
0.006
0.115
-0.053
-0.032
-0.007
0.075
0.012
0.026
0.082
0.032
0.022
-0.068
-0.050
-0.015
0.072
-0.085
0.106
0.023
0.060
0.036
0.011
-0.103
0.034
0.022
0.033
0.003
-0.037
0.021
0.114
0.005
0.058
0.149
-0.022
0.005
0.022
-0.054
-0.045
0.057
-0.021
0.051
0.043
0.028
-0.038
0.033
-0.016
-0.014
-0.058
-0.051
0.027
-0.070
0.020
0.068
0.054
-0.080
0.014
0.017
-0.055
-0.044
0.094
0.154
-0.013
-0.049
0.012
0.026
0.009
0.017
0.109
-0.018
0.045
-0.138
-0.007
0.058
0.018
0.010
0.073
0.080
0.003
0.005
0.032
0.062
-0.065
-0.079
-0.000
0.087
0.001
0.116
-0.087
0.035
-0.025
0.017
0.041
-0.036
-0.041
0.121
-0.109
0.057
0.118
0.075
0.056
-0.074
-0.011
-0.016
0.035
0.089
0.151
0.015
-0.017
-0.016
-0.059
0.032
-0.059
0.025
0.004
0.001
0.124
-0.071
-0.000
-0.033
0.076
-0.056
-0.018
0.096
0.040
-0.028
0.084
-0.022
0.097
0.049
-0.015
-0.003
-0.116
0.074
0.092
-0.025
0.027
-0.043
0.055
0.079
-0.017
0.023
0.030
0.054
0.073
0.038
0.023
0.021
-0.065
0.089
0.022
0.024
0.039
0.126
0.006
-0.067
-0.001
0.148
0.043
-0.074
0.060
-0.039
0.009
0.035
-0.094
0.010
0.126
-0.022
-0.005
0.094
0.049
-0.083
0.026
0.064
0.002
0.092
0.031
-0.014
0.085
-0.013
0.102
0.033
0.040
-0.048
0.087
0.020
-0.085
0.086
0.068
-0.061
-0.105
0.091
0.130
-0.012
0.045
-0.005
0.065
0.082
-0.065
0.017
-0.064
0.077
-0.008
0.090
0.080
0.014
-0.020
0.032
0.022
0.034
-0.043
-0.007
0.028
0.042
0.061
-0.017
-0.007
-0.003
0.038
0.125
0.112
-0.158
0.109
-0.033
0.062
0.057
0.059
0.012
0.018
-0.008
-0.001
0.117
-0.039
-0.065
0.034
0.100
-0.046
0.063
-0.096
-0.005
-0.009
-0.003
-0.011
0.151
-0.046
-0.031
0.043
-0.024
-0.016
0.081
0.143
0.077
-0.014
0.047
-0.021
0.060
-0.043
0.154
0.207
-0.032
0.024
-0.060
-0.019
-0.015
-0.051
0.001
-0.006
0.068
-0.025
-0.059
0.009
0.061
-0.059
0.003
0.011
-0.030
0.042
0.021
0.009
-0.014
0.141
0.034
-0.109
0.080
0.049
0.063
-0.028
0.038
0.105
0.053
-0.017
0.085
0.010
-0.045
-0.041
0.139
0.053
-0.027
-0.039
0.054
0.032
-0.039
-0.050
0.027
0.057
-0.025
0.078
0.091
0.066
-0.081
-0.033
0.089
0.032
0.054
0.061
-0.024
-0.081
0.022
0.017
-0.082
0.061
0.071
-0.129
0.057
-0.115
-0.003
0.088
0.003
-0.039
-0.024
-0.017
-0.006
0.075
-0.012
0.054
0.066
0.002
0.122
-0.093
-0.030
0.038
0.107
0.068
0.177
0.085
0.089
-0.117
0.036
0.002
-0.039
0.034
0.152
0.103
-0.028
-0.026
-0.014
0.032
0.023
0.008
0.034
0.005
-0.047
0.019
-0.003
0.071
0.009
0.038
0.037
0.002
-0.039
0.000
-0.027
0.025
0.081
0.061
0.070
0.032
0.005
-0.018
-0.027
0.046
0.003
0.064
0.032
-0.017
0.018
0.085
0.028
-0.038
0.038
-0.055
0.047
-0.002
-0.012
0.022
-0.092
0.083
0.061
0.034
0.041
-0.058
-0.038
0.096
0.026
0.116
0.056
-0.068
0.060
0.019
0.044
-0.010
0.072
0.090
-0.017
-0.009
0.012
-0.001
-0.014
0.164
0.027
-0.032
-0.168
0.103
0.048
-0.072
0.035
0.042
0.038
-0.072
-0.044
0.046
-0.044
0.067
-0.054
0.073
0.017
-0.036
-0.020
-0.044
0.128
0.048
-0.008
-0.075
-0.092
0.107
-0.034
-0.107
0.115
0.066
0.009
-0.036
-0.048
0.066
-0.011
0.076
0.100
0.128
-0.077
0.028
0.052
-0.023
-0.001
-0.016
-0.004
0.113
0.007
-0.007
0.056
-0.048
0.084
-0.113
0.179
0.100
-0.067
-0.012
0.067
0.114
-0.121
0.075
0.042
0.095
0.016
-0.010
0.118
0.042
0.013
0.032
-0.002
-0.021
-0.046
0.052
0.023
0.063
-0.016
0.070
-0.004
0.025
-0.010
0.080
-0.037
0.070
-0.016
0.107
0.057
0.080
-0.043
0.032
0.095
-0.072
0.096
-0.045
0.009
0.079
-0.097
0.046
0.108
0.006
0.086
0.123
-0.028
-0.028
0.058
-0.060
0.011
0.110
-0.097
0.142
0.020
-0.012
-0.094
-0.041
0.000
0.155
0.061
0.165
-0.119
0.128
-0.011
0.116
-0.025
-0.017
-0.089
0.065
0.173
-0.015
0.012
-0.059
0.002
0.038
0.052
-0.061
-0.045
0.186
0.037
-0.029
-0.037
0.104
0.059
-0.035
-0.078
0.044
0.079
0.142
0.040
0.042
0.099
-0.099
0.068
-0.099
0.021
-0.005
0.135
0.006
0.057
-0.091
0.024
-0.026
0.014
0.048
-0.039
0.044
-0.011
0.102
0.066
0.047
0.000
0.056
0.024
0.035
-0.044
0.029
-0.033
-0.025
0.141
0.158
-0.078
0.064
-0.070
0.072
0.080
0.131
0.021
0.034
0.024
-0.104
0.098
-0.019
-0.001
0.052
-0.003
-0.025
0.139
0.018
0.062
-0.042
0.004
0.083
-0.041
0.066
-0.034
0.053
0.029
-0.073
-0.029
0.031
0.013
-0.058
0.074
0.021
0.030
0.107
0.071
-0.030
-0.100
0.048
0.084
0.039
-0.036
0.105
-0.010
0.163
0.042
-0.041
-0.166
-0.034
0.017
0.055
0.050
-0.059
-0.049
0.040
0.081
0.004
-0.008
0.022
0.097
0.030
-0.075
-0.012
0.048
0.117
-0.039
-0.033
0.028
0.064
0.065
0.044
0.078
0.086
-0.049
-0.124
0.000
0.013
0.078
0.032
0.104
-0.081
-0.018
-0.036
0.060
0.166
0.067
0.059
-0.062
-0.017
0.127
0.074
-0.027
-0.099
0.071
0.100
0.024
0.004
-0.009
0.130
-0.137
0.143
0.112
-0.084
-0.014
0.028
0.037
0.124
0.051
0.065
0.012
-0.048
0.061
-0.018
-0.022
-0.049
0.044
0.112
-0.006
0.016
0.121
0.115
0.006
0.007
0.025
0.050
0.105
-0.033
-0.067
0.007
-0.029
0.065
0.155
0.092
-0.128
0.062
0.062
0.030
0.003
0.043
0.026
0.002
-0.069
0.113
0.026
0.046
0.082
0.113
0.071
0.046
-0.003
0.060
0.001
0.063
-0.036
0.005
0.004
0.043
-0.025
0.036
0.096
-0.062
-0.003
-0.049
0.001
0.002
0.051
0.041
0.079
0.029
0.016
-0.078
0.122
0.090
-0.072
0.107
0.032
-0.101
0.039
0.084
0.062
-0.075
0.089
0.061
-0.007
0.000
0.051
0.069
-0.031
-0.080
0.004
0.097
0.085
0.006
0.040
0.001
0.097
0.088
0.078
0.024
0.016
-0.029
0.025
0.043
-0.047
-0.006
0.010
-0.047
0.075
-0.007
-0.005
-0.027
0.053
0.086
-0.021
0.012
-0.065
0.127
-0.023
0.020
-0.050
-0.037
0.190
0.073
-0.094
0.071
0.031
-0.027
0.035
-0.005
-0.001
0.053
-0.016
-0.090
0.048
0.097
-0.086
0.043
0.032
0.076
0.115
-0.125
-0.144
0.121
0.114
0.113
-0.099
0.061
-0.033
-0.058
0.213
0.085
-0.009
-0.022
0.027
0.066
0.067
0.074
-0.011
0.020
-0.023
0.006
0.010
-0.011
0.027
-0.054
0.115
-0.007
-0.040
0.032
-0.049
0.091
0.034
-0.006
-0.031
0.015
0.028
0.060
0.032
0.002
0.005
0.014
-0.007
-0.001
0.101
-0.055
-0.005
-0.037
0.066
0.082
-0.067
-0.056
0.070
-0.056
0.099
0.132
0.022
-0.066
0.119
0.067
0.042
0.047
0.112
0.097
-0.095
-0.092
0.090
0.037
0.069
-0.057
0.070
0.013
0.011
-0.025
0.053
0.137
-0.101
0.043
0.062
-0.082
-0.106
0.099
-0.010
0.062
-0.028
0.101
-0.040
0.053
-0.164
-0.008
-0.016
0.124
0.150
-0.059
-0.041
0.031
-0.055
0.027
0.136
-0.030
0.135
0.172
-0.098
0.015
0.054
-0.008
0.018
-0.030
0.107
0.134
-0.024
-0.070
0.025
0.031
0.017
0.007
-0.021
0.058
0.014
-0.003
0.048
0.088
0.095
0.055
-0.023
-0.061
0.054
0.001
0.010
-0.061
0.049
-0.049
0.028
0.049
0.042
-0.008
-0.138
0.060
-0.101
0.016
0.174
-0.019
0.082
0.058
0.053
0.028
-0.121
0.010
0.053
0.070
0.071
-0.023
0.123
-0.024
0.035
-0.053
0.078
0.065
-0.113
0.038
0.118
-0.016
0.023
0.005
0.052
-0.009
0.034
-0.092
0.012
0.030
0.061
-0.040
-0.006
-0.035
0.077
-0.035
0.016
0.074
-0.015
-0.146
0.074
-0.095
0.078
0.127
0.001
-0.027
-0.005
-0.009
0.079
0.069
0.023
-0.020
0.024
-0.061
0.084
0.013
0.110
0.044
-0.010
-0.002
0.146
0.001
-0.057
-0.057
-0.010
0.043
0.041
0.079
0.053
-0.021
0.024
-0.057
0.013
0.021
0.056
0.045
0.064
-0.026
0.029
-0.022
-0.066
0.049
0.038
0.074
0.057
0.108
-0.077
-0.034
-0.035
0.110
0.032
0.057
-0.067
0.040
0.057
0.155
-0.112
0.030
0.038
0.018
0.111
-0.037
0.023
-0.074
0.072
0.097
-0.025
0.007
0.110
-0.021
0.042
-0.081
0.125
-0.019
0.045
-0.002
0.001
-0.068
-0.069
-0.015
0.115
-0.006
0.116
-0.134
-0.011
0.092
-0.035
-0.049
0.177
-0.012
0.054
0.023
0.022
-0.073
0.119
-0.079
0.055
0.037
0.076
0.158
-0.059
-0.087
-0.058
0.057
0.066
0.072
0.014
0.119
0.033
0.022
-0.058
0.024
-0.039
0.107
0.228
-0.093
-0.010
-0.044
-0.022
0.062
-0.060
-0.033
0.046
0.133
0.037
-0.024
0.033
-0.034
-0.057
0.091
0.067
0.020
0.011
-0.057
-0.010
-0.019
0.116
0.040
0.108
-0.070
0.043
-0.023
0.060
0.004
-0.003
0.036
-0.068
0.098
0.084
-0.014
0.027
-0.070
-0.009
0.098
0.066
-0.022
-0.003
0.131
-0.019
0.022
0.122
-0.030
0.016
0.027
-0.107
0.095
0.124
-0.077
0.118
-0.022
-0.035
-0.004
-0.021
0.017
0.113
-0.023
-0.027
-0.024
0.087
-0.062
-0.002
0.132
0.048
-0.082
-0.038
0.024
0.058
-0.010
0.073
0.003
-0.022
0.078
-0.028
0.050
0.028
-0.042
0.038
-0.021
-0.004
0.026
0.037
-0.086
0.080
-0.004
-0.013
0.076
0.053
0.056
0.081
-0.031
-0.048
-0.032
0.050
0.007
0.090
0.126
-0.091
-0.007
-0.021
-0.059
0.131
0.009
-0.139
0.066
0.048
0.163
0.011
-0.086
-0.004
0.047
0.096
-0.009
0.068
-0.060
-0.038
0.081
0.029
0.013
0.088
0.056
0.020
0.032
0.139
-0.079
0.039
0.082
-0.017
0.061
0.083
-0.039
-0.113
0.051
-0.017
0.124
-0.010
-0.032
0.031
0.009
-0.037
-0.042
0.203
0.092
0.043
0.102
0.019
-0.029
-0.005
-0.015
-0.111
-0.036
0.106
0.131
0.017
-0.029
0.054
0.005
-0.012
-0.053
-0.052
0.050
0.030
0.056
-0.036
-0.014
0.069
-0.048
0.002
-0.033
0.091
0.037
0.053
0.066
0.145
-0.089
0.076
-0.005
0.079
0.096
0.131
0.018
0.049
-0.068
0.048
0.010
0.020
-0.009
-0.027
-0.032
0.056
-0.007
0.099
-0.053
0.000
0.061
0.087
-0.022
-0.095
0.017
-0.040
0.085
0.102
-0.083
0.033
-0.033
0.045
0.063
0.002
0.121
-0.033
-0.126
0.105
0.036
0.034
0.057
-0.013
0.090
0.011
0.118
-0.032
-0.044
0.036
0.069
0.081
0.007
0.121
-0.005
-0.038
0.016
-0.048
-0.083
0.176
0.194
-0.021
0.079
-0.114
-0.012
0.002
-0.091
0.020
0.063
0.021
0.179
-0.008
-0.080
0.126
0.008
0.031
0.103
-0.002
0.028
0.042
0.027
0.062
-0.114
0.134
0.007
-0.021
0.024
-0.047
-0.002
-0.051
0.130
0.019
-0.026
0.001
-0.082
0.050
0.105
-0.004
-0.027
0.019
0.211
-0.053
0.078
0.057
0.095
0.077
0.007
-0.007
0.048
-0.024
0.039
-0.089
0.043
-0.021
-0.071
0.023
-0.030
0.127
0.237
-0.030
-0.010
-0.054
0.025
0.022
0.082
0.011
-0.066
0.016
0.078
-0.021
-0.082
-0.078
0.003
0.125
-0.013
0.003
-0.078
-0.074
0.087
0.074
0.009
0.059
0.024
0.035
0.017
0.120
0.089
0.042
-0.059
0.015
0.009
0.106
0.223
0.063
0.140
-0.041
0.037
0.082
0.055
-0.020
0.106
-0.001
0.105
-0.026
-0.060
0.011
-0.070
0.121
-0.127
-0.048
0.080
-0.002
0.048
-0.086
0.065
0.060
0.030
-0.038
-0.011
0.173
0.088
0.090
0.008
0.045
-0.020
-0.089
0.061
0.178
0.043
0.056
0.086
0.064
0.017
0.082
0.082
0.073
-0.016
0.032
-0.021
0.070
-0.022
0.033
0.057
-0.002
0.062
-0.047
0.001
0.063
0.083
0.054
0.089
-0.025
-0.054
0.029
0.041
0.052
0.085
0.003
-0.053
-0.016
0.060
0.061
0.044
-0.134
0.066
0.164
-0.026
0.173
0.011
-0.034
0.107
-0.069
0.037
0.138
0.078
-0.057
-0.023
0.008
0.003
-0.014
-0.044
0.030
0.043
-0.063
0.010
-0.010
0.017
0.070
-0.026
-0.050
0.144
-0.029
-0.029
0.087
-0.001
0.043
0.046
-0.015
-0.006
0.047
0.021
0.020
-0.029
-0.028
0.034
0.054
0.283
-0.040
-0.087
0.099
-0.081
0.146
-0.138
0.030
-0.001
0.012
0.144
0.117
-0.037
-0.007
0.022
-0.070
0.052
-0.016
-0.094
-0.035
0.116
-0.069
0.040
0.013
0.112
0.020
-0.124
-0.052
0.106
0.024
-0.006
0.122
0.073
0.022
0.022
-0.106
-0.040
0.073
0.161
0.184
-0.018
-0.022
0.025
0.044
0.037
-0.013
-0.018
0.007
0.035
-0.041
0.114
-0.133
0.004
-0.025
-0.005
0.183
-0.033
-0.009
-0.107
0.060
0.058
0.081
-0.021
0.012
-0.016
-0.126
0.096
0.124
0.095
-0.024
-0.150
-0.054
0.002
-0.022
0.091
0.085
0.038
0.019
0.018
0.027
0.108
0.003
-0.005
-0.000
0.210
-0.025
-0.040
0.081
-0.024
-0.092
-0.071
-0.011
0.232
0.077
-0.023
-0.037
0.009
-0.146
0.070
0.031
0.063
-0.014
-0.094
0.001
-0.019
0.050
-0.025
-0.024
0.097
-0.037
0.001
0.010
0.011
0.102
-0.001
-0.030
0.078
0.058
0.073
-0.084
0.051
0.015
-0.057
0.069
0.086
0.104
-0.075
0.041
0.013
-0.002
-0.063
-0.057
0.063
-0.068
0.049
0.005
0.026
0.044
0.031
0.076
0.083
-0.023
-0.064
-0.045
0.074
0.147
0.037
-0.143
-0.121
-0.074
-0.038
0.052
0.145
-0.013
0.084
-0.051
0.041
0.013
0.004
0.030
-0.071
0.141
-0.065
-0.077
0.194
-0.097
-0.042
0.097
0.086
-0.061
-0.075
0.012
-0.009
0.009
-0.026
0.123
0.003
0.060
-0.079
-0.122
-0.228
-0.201
0.180
0.204
0.030
0.142
0.103
0.143
-0.116
-0.063
0.031
0.125
0.121
0.232
0.087
0.113
0.050
0.036
0.056
-0.156
0.051
-0.052
-0.119
-0.013
-0.175
-0.013
0.022
-0.136
0.044
-0.038
-0.003
0.007
0.134
0.153
-0.072
0.014
0.055
-0.040
-0.072
0.009
0.064
0.056
0.010
0.159
-0.051
-0.017
-0.115
0.073
0.010
0.125
0.019
0.060
0.083
0.047
0.060
-0.092
0.039
0.119
0.034
0.016
0.080
-0.036
0.053
0.095
-0.098
0.074
-0.017
-0.023
0.052
-0.008
0.123
-0.090
0.028
-0.051
0.106
0.020
-0.014
-0.012
-0.005
0.062
0.036
-0.027
-0.016
0.033
-0.017
0.068
0.020
0.043
0.030
-0.067
-0.003
-0.014
0.014
-0.001
-0.004
-0.084
-0.013
0.132
-0.011
0.076
0.012
-0.013
0.096
0.125
-0.130
0.011
-0.019
0.064
0.068
0.065
-0.061
-0.010
-0.010
0.110
0.068
0.003
-0.140
0.045
0.105
0.107
-0.060
-0.021
0.010
-0.079
-0.090
0.026
0.036
0.090
0.106
-0.072
-0.081
0.066
0.127
-0.009
0.072
0.138
0.123
-0.033
0.059
-0.035
0.073
0.085
0.094
0.020
0.070
-0.084
-0.165
0.095
0.050
-0.031
0.044
0.107
0.055
-0.114
-0.044
0.014
0.045
-0.052
0.030
0.030
0.083
-0.045
-0.104
0.061
-0.014
0.133
0.031
0.068
-0.123
-0.064
-0.025
-0.006
0.126
0.117
0.038
0.090
0.031
-0.063
0.045
0.109
-0.050
0.073
0.026
-0.034
0.053
0.076
0.002
0.084
0.010
-0.096
-0.038
0.033
0.033
0.154
0.041
-0.117
0.041
-0.032
-0.014
0.126
-0.017
-0.069
0.003
-0.080
-0.000
0.090
0.057
-0.084
0.015
-0.002
0.130
-0.037
0.056
0.027
-0.119
-0.003
0.082
0.015
0.045
0.091
0.043
0.011
-0.015
0.037
0.013
-0.061
-0.020
-0.020
0.003
0.103
0.069
-0.023
-0.057
0.040
0.092
0.033
0.011
-0.064
-0.040
-0.019
0.100
0.063
0.110
-0.015
0.056
-0.038
0.005
0.033
0.087
0.014
-0.129
0.065
0.023
0.063
-0.005
0.128
0.115
0.051
0.026
-0.140
-0.072
-0.034
-0.066
0.248
0.059
-0.055
-0.073
-0.063
0.124
-0.028
0.051
0.048
0.062
0.065
0.001
0.162
-0.001
0.146
-0.112
-0.087
0.062
0.020
-0.018
0.142
0.061
-0.050
0.050
0.006
-0.074
0.059
0.049
-0.070
0.073
0.030
0.031
0.086
-0.055
0.119
0.033
0.097
-0.192
0.008
0.069
-0.021
0.036
-0.031
-0.030
0.141
-0.064
0.063
-0.021
0.021
0.083
0.045
-0.039
0.016
0.064
0.050
0.072
-0.038
-0.087
-0.053
0.083
-0.033
-0.023
0.046
0.091
-0.093
-0.080
0.033
0.087
-0.006
-0.028
-0.083
0.101
0.144
0.130
-0.158
-0.027
-0.020
0.052
0.042
-0.014
0.064
0.055
0.013
0.126
0.048
0.002
-0.049
0.057
0.102
0.034
0.013
-0.028
0.091
-0.043
-0.008
0.017
-0.023
0.022
0.030
-0.018
0.008
0.088
-0.068
-0.016
-0.169
-0.001
0.069
0.010
0.035
0.028
0.044
0.005
0.050
0.038
-0.080
0.056
0.040
-0.073
-0.067
0.050
0.028
0.013
0.083
0.125
-0.048
0.056
-0.101
0.080
0.099
-0.033
0.039
-0.001
-0.112
0.146
0.069
-0.054
0.047
-0.038
0.053
0.017
0.131
0.011
-0.069
-0.033
0.009
0.143
0.071
-0.060
-0.091
0.127
0.097
-0.027
0.034
0.132
-0.030
-0.097
0.026
-0.001
-0.034
0.088
0.039
0.010
-0.052
0.115
0.018
0.003
0.046
-0.096
0.056
0.091
0.037
-0.045
0.013
0.058
0.008
-0.015
-0.018
0.056
0.027
0.115
-0.070
0.007
0.036
0.036
-0.016
-0.020
0.056
0.069
-0.008
-0.057
0.112
0.037
-0.050
0.016
0.029
0.129
-0.002
-0.042
0.048
0.037
0.002
0.002
0.115
-0.064
0.022
-0.003
0.080
0.028
0.119
0.062
0.007
-0.024
0.006
0.034
0.017
0.020
0.076
-0.134
0.148
0.135
-0.049
0.011
0.057
-0.027
0.034
0.075
-0.007
-0.063
0.075
0.044
-0.028
-0.127
0.107
0.028
-0.052
0.081
0.097
0.006
-0.014
-0.069
0.093
0.087
-0.008
0.051
-0.101
-0.027
0.121
-0.028
0.017
-0.094
0.062
0.042
0.130
0.063
0.044
-0.013
0.044
0.033
0.013
0.082
0.044
0.032
0.062
0.019
0.063
-0.085
0.008
0.116
-0.075
0.065
0.032
-0.112
-0.080
0.058
0.159
0.012
-0.021
-0.024
0.064
0.042
-0.025
-0.021
0.155
-0.031
0.020
-0.040
0.072
-0.042
0.110
0.061
0.074
0.147
-0.097
-0.089
0.038
0.066
0.042
0.014
-0.032
-0.022
0.091
0.083
-0.015
-0.034
0.077
-0.046
-0.063
-0.112
0.147
0.099
-0.031
0.028
0.012
0.005
0.045
0.067
0.015
0.132
0.059
-0.105
0.111
0.001
-0.016
-0.056
-0.052
0.009
0.048
-0.032
-0.023
0.059
-0.022
-0.043
0.117
0.043
0.028
0.064
0.115
-0.042
-0.085
0.020
0.031
0.041
-0.041
-0.098
-0.007
0.026
0.097
0.099
0.077
-0.054
0.005
0.080
0.123
-0.029
-0.007
-0.099
0.162
0.042
0.089
-0.074
-0.006
0.128
-0.052
0.167
-0.004
0.171
-0.136
-0.004
-0.035
0.029
0.022
-0.054
-0.016
0.175
0.054
-0.015
-0.068
0.056
-0.048
-0.053
0.000
0.082
-0.008
-0.073
-0.013
0.017
-0.006
0.061
0.017
0.061
0.022
0.076
0.085
0.104
0.007
0.078
0.011
-0.018
-0.134
0.120
0.105
0.055
0.113
-0.087
-0.088
0.033
0.115
-0.023
0.082
0.010
-0.004
0.168
-0.005
-0.030
0.026
-0.022
0.087
0.091
0.059
-0.052
-0.052
0.087
0.026
-0.012
-0.010
-0.027
0.001
0.072
0.053
0.064
0.038
0.059
0.091
-0.041
0.043
-0.000
-0.011
0.035
0.059
0.080
0.025
-0.021
-0.048
-0.022
0.133
0.001
0.134
0.035
0.109
-0.068
-0.024
0.054
-0.000
-0.043
0.079
-0.009
0.135
-0.011
0.015
-0.013
-0.047
0.002
0.181
0.020
0.038
-0.075
0.066
-0.011
-0.002
-0.016
0.089
0.060
0.054
0.008
0.057
0.008
-0.030
-0.003
-0.053
0.139
0.033
0.029
-0.022
0.044
0.068
0.100
0.161
-0.108
-0.019
-0.034
0.095
0.077
-0.178
0.022
0.021
0.039
0.095
-0.016
-0.031
0.013
0.117
-0.007
0.000
-0.050
-0.030
-0.012
0.086
-0.058
-0.032
-0.000
0.068
0.056
0.106
0.063
0.009
-0.022
0.099
0.037
-0.077
0.025
-0.013
0.013
0.028
-0.028
0.033
0.075
0.023
0.112
-0.012
-0.082
0.116
-0.018
-0.005
0.116
0.150
0.064
-0.091
0.072
0.065
-0.024
-0.072
0.087
0.115
0.070
0.028
0.003
0.009
-0.044
0.123
0.069
0.055
0.013
0.044
0.073
-0.052
0.015
0.065
-0.016
-0.041
0.016
0.108
0.038
0.015
-0.034
0.086
-0.053
-0.028
0.099
0.058
-0.049
0.054
0.136
-0.060
0.105
0.048
0.027
0.099
0.097
0.082
0.052
0.121
0.008
-0.130
0.086
0.046
0.031
0.152
0.154
-0.085
-0.050
0.093
-0.071
0.030
-0.052
0.023
0.038
-0.053
0.000
0.020
0.012
0.009
0.085
0.039
0.020
0.029
-0.030
-0.060
0.121
0.005
-0.031
-0.039
0.072
0.091
-0.051
0.036
0.006
-0.043
0.071
-0.007
0.008
0.039
0.020
-0.049
0.121
0.047
-0.022
-0.088
0.044
-0.001
0.147
0.078
0.062
-0.172
-0.046
0.051
0.036
0.040
-0.030
0.112
-0.042
0.144
-0.091
-0.001
0.063
0.009
-0.048
-0.004
-0.018
0.012
-0.023
0.065
0.017
0.009
0.062
-0.027
0.135
-0.007
-0.050
0.086
-0.076
0.031
0.149
0.010
0.050
0.081
0.021
0.051
0.069
-0.097
-0.045
0.134
0.060
0.041
0.194
-0.076
-0.026
-0.114
0.086
0.021
0.065
0.109
-0.036
-0.084
-0.009
0.068
0.045
-0.064
-0.006
0.034
0.002
0.080
0.037
0.062
0.141
0.025
-0.013
-0.026
0.143
0.002
-0.014
0.003
0.072
0.026
0.207
-0.037
-0.086
-0.099
0.059
0.039
0.057
0.000
-0.036
0.152
-0.076
0.098
-0.013
0.043
0.081
-0.084
-0.070
0.003
0.117
-0.111
0.097
-0.037
-0.019
0.022
-0.042
0.030
0.087
-0.006
-0.068
0.120
0.031
0.048
-0.004
0.112
0.062
-0.021
0.072
-0.077
0.025
-0.039
0.039
0.106
0.172
-0.028
-0.034
-0.034
-0.049
-0.019
0.032
0.133
-0.033
-0.068
0.118
0.096
0.038
-0.048
-0.030
-0.008
0.151
-0.038
0.006
0.116
-0.092
-0.057
0.049
0.024
-0.019
0.077
0.039
0.021
0.028
0.018
0.095
-0.045
0.065
0.052
-0.000
-0.026
0.070
0.018
0.132
0.018
-0.015
0.056
0.175
-0.095
-0.030
0.025
0.119
-0.035
0.075
0.032
0.090
0.097
-0.051
0.078
0.016
0.020
-0.070
0.039
0.115
0.005
0.022
0.077
0.053
-0.155
-0.156
0.079
-0.100
0.134
-0.033
0.055
-0.022
-0.022
0.050
0.021
-0.041
0.083
0.045
-0.075
0.040
0.119
-0.023
-0.047
0.081
0.045
-0.075
-0.098
0.059
0.078
0.135
0.151
-0.217
0.046
0.147
-0.057
0.017
-0.027
0.082
0.039
-0.033
0.069
0.043
-0.045
0.056
-0.095
0.099
0.117
-0.071
-0.025
0.015
0.046
0.157
-0.023
-0.094
-0.041
-0.027
0.095
0.146
-0.050
-0.020
-0.074
0.050
0.131
0.136
0.029
0.038
0.004
0.074
-0.042
0.029
0.045
0.001
-0.017
0.005
0.182
0.074
0.018
0.026
0.055
-0.090
-0.020
-0.038
0.022
0.001
0.041
0.198
-0.037
0.023
0.067
0.044
0.120
-0.010
0.140
-0.037
-0.042
-0.072
0.121
0.060
0.100
-0.028
0.089
0.011
-0.014
-0.076
-0.005
0.173
0.145
-0.090
0.071
0.006
0.171
0.024
-0.088
-0.024
-0.002
0.180
0.032
-0.072
-0.001
-0.075
0.175
0.010
-0.066
-0.048
0.127
0.094
-0.095
-0.047
-0.081
0.078
0.070
0.055
0.056
-0.029
0.049
-0.044
-0.065
0.057
0.054
-0.004
-0.030
-0.038
0.028
0.019
0.066
-0.005
0.043
-0.036
-0.096
0.075
0.056
-0.002
0.113
-0.048
-0.022
0.016
0.024
0.012
0.031
-0.027
0.049
0.116
0.002
0.015
0.121
-0.176
0.112
0.031
0.058
0.011
0.012
0.119
-0.042
0.104
0.121
0.039
-0.067
0.018
0.004
0.021
0.000
0.052
-0.028
0.047
0.000
0.020
0.040
-0.092
0.118
-0.055
0.035
0.012
0.021
0.009
-0.031
0.100
0.037
0.019
0.083
0.018
-0.003
0.080
0.034
0.039
-0.032
-0.055
0.023
0.017
0.064
-0.021
-0.018
-0.045
-0.016
0.093
0.017
0.008
0.128
-0.028
0.060
-0.048
0.001
0.102
0.073
0.079
0.004
0.026
-0.115
0.048
0.116
0.012
0.061
-0.045
0.045
-0.039
0.060
-0.049
-0.018
0.057
0.040
-0.056
0.031
0.033
0.053
0.009
-0.010
0.047
-0.010
-0.049
-0.056
0.147
0.025
-0.019
0.014
-0.012
0.034
0.075
-0.006
-0.146
0.003
0.040
0.083
-0.064
-0.071
0.067
0.035
0.053
0.039
0.036
0.095
-0.085
-0.028
0.094
-0.054
0.043
0.152
-0.062
-0.046
0.116
0.028
0.001
-0.010
0.089
0.050
0.065
0.078
-0.142
0.087
0.078
-0.108
0.039
0.095
-0.133
-0.031
0.017
0.077
0.135
0.006
0.087
0.167
-0.030
-0.100
0.032
0.060
0.102
0.091
-0.001
0.006
0.019
0.008
-0.072
-0.001
0.160
-0.129
-0.030
0.112
0.048
-0.101
0.057
-0.047
0.086
0.078
0.012
-0.066
0.127
-0.010
0.031
0.122
-0.115
0.038
-0.069
0.074
0.020
-0.016
0.146
-0.046
-0.048
-0.010
-0.072
0.131
-0.056
0.058
-0.032
-0.050
0.049
0.042
-0.032
0.053
0.068
0.002
-0.093
0.056
0.095
0.156
-0.017
-0.009
0.075
-0.041
-0.017
0.034
0.056
-0.092
0.119
0.031
0.067
-0.011
-0.048
0.118
-0.008
-0.068
-0.035
0.018
0.085
-0.011
0.102
-0.006
-0.044
-0.040
0.044
0.084
0.002
0.055
0.001
-0.031
-0.048
0.167
0.004
-0.015
-0.001
-0.029
-0.004
-0.013
0.092
-0.003
0.021
-0.010
0.072
0.038
0.113
-0.064
-0.073
-0.031
0.129
0.023
0.063
-0.024
0.106
0.044
0.014
-0.040
0.097
0.004
0.082
0.031
0.036
-0.163
0.033
-0.046
0.001
0.026
0.078
0.097
-0.038
-0.125
0.067
-0.009
-0.045
0.099
0.068
-0.071
-0.042
-0.013
0.146
0.067
0.019
-0.032
-0.130
0.018
0.002
0.027
-0.012
0.061
0.047
0.074
-0.046
0.143
-0.054
-0.102
-0.014
0.072
0.015
0.031
0.033
0.000
-0.016
0.037
0.006
-0.027
-0.031
0.033
-0.025
0.011
0.076
0.087
0.041
-0.059
0.043
-0.030
0.036
-0.044
0.051
-0.002
-0.041
0.079
-0.040
0.051
-0.022
-0.030
0.034
0.066
-0.012
0.017
-0.047
-0.038
0.044
0.051
0.095
-0.020
-0.076
-0.014
0.195
0.137
-0.032
0.114
0.047
-0.169
0.056
0.002
0.083
0.019
0.060
0.027
-0.131
0.080
0.020
0.009
0.022
0.021
0.071
0.090
-0.096
0.008
0.004
0.020
0.104
-0.002
0.023
-0.051
-0.025
0.091
0.115
-0.094
-0.148
-0.029
0.028
0.149
0.048
0.088
-0.061
0.035
-0.006
0.120
0.013
-0.082
-0.115
0.001
0.055
0.131
-0.056
-0.057
-0.085
0.188
-0.005
-0.036
0.029
0.014
-0.049
0.022
-0.036
0.191
-0.024
-0.017
0.059
-0.069
-0.021
0.021
0.035
0.103
-0.046
-0.008
0.028
0.033
0.019
-0.076
-0.046
0.089
0.058
0.062
0.088
0.006
0.036
-0.061
-0.053
-0.007
0.077
0.001
0.029
0.070
0.113
-0.102
-0.031
0.110
-0.018
0.115
-0.093
0.082
0.096
0.075
-0.031
-0.022
0.030
-0.013
0.037
0.083
-0.007
-0.042
-0.031
-0.030
0.083
0.099
0.038
0.071
-0.054
0.002
0.039
0.049
0.014
0.059
0.044
0.005
-0.027
-0.014
-0.031
0.150
-0.007
0.003
0.057
0.028
0.054
-0.032
0.008
-0.061
0.166
-0.072
0.167
0.097
0.103
0.058
0.134
-0.045
-0.032
-0.006
-0.021
0.009
-0.032
-0.020
0.118
-0.062
0.045
0.054
-0.047
-0.013
-0.047
-0.066
0.025
-0.017
-0.013
-0.048
0.112
0.027
0.053
0.109
0.041
0.012
-0.037
-0.017
-0.013
-0.037
0.187
-0.008
0.013
0.103
0.021
-0.064
-0.106
0.034
-0.062
0.076
0.069
0.184
-0.009
0.014
-0.060
-0.077
-0.067
0.040
0.140
-0.082
0.015
-0.078
0.194
-0.023
-0.079
0.079
-0.124
0.088
0.152
-0.019
-0.087
0.101
-0.005
-0.084
0.026
0.097
0.074
-0.019
0.141
-0.033
0.038
0.078
0.066
-0.045
0.011
0.033
0.081
0.037
-0.043
-0.010
-0.058
0.118
-0.014
-0.001
0.027
0.052
0.078
-0.020
-0.091
0.014
0.097
0.051
0.005
-0.033
-0.010
0.114
-0.087
0.231
-0.052
0.057
0.075
-0.025
-0.039
0.035
0.085
0.029
-0.098
0.046
0.005
0.066
-0.017
0.004
0.117
0.001
-0.014
0.106
-0.061
0.046
0.116
-0.043
0.014
0.017
0.044
-0.197
0.055
0.171
0.015
0.056
-0.152
-0.008
0.099
-0.046
-0.023
0.009
0.033
0.140
0.038
-0.065
-0.033
0.029
0.153
0.065
-0.089
-0.037
-0.025
-0.049
0.115
0.085
0.048
-0.003
-0.195
0.018
0.104
0.025
0.134
0.025
-0.081
0.113
0.018
-0.035
-0.003
-0.072
0.028
0.030
0.053
-0.055
0.047
0.103
0.026
0.036
-0.048
-0.086
0.066
-0.067
0.100
-0.020
-0.064
-0.101
0.032
0.103
0.056
-0.027
0.000
-0.077
0.151
0.115
-0.005
-0.026
-0.013
-0.127
0.090
0.049
0.013
0.010
-0.057
0.037
0.074
0.065
0.010
-0.061
0.009
0.044
-0.142
-0.060
0.009
-0.041
0.134
0.018
-0.016
0.162
0.001
-0.025
0.080
0.145
0.092
-0.252
0.099
-0.017
-0.054
0.034
0.097
0.007
-0.007
0.034
-0.065
0.024
0.008
0.038
-0.032
0.019
0.078
0.052
-0.086
0.013
0.083
-0.019
-0.072
-0.025
0.026
0.062
0.009
-0.109
0.145
0.023
-0.115
0.041
0.027
-0.031
0.154
-0.077
-0.054
-0.017
0.014
0.028
-0.016
0.017
0.096
0.044
-0.043
-0.067
0.017
-0.020
0.000
0.046
-0.008
0.102
0.107
-0.027
-0.014
0.057
0.003
0.089
-0.064
0.042
-0.007
-0.031
0.022
0.016
0.014
0.036
0.086
-0.000
0.016
-0.018
-0.060
-0.050
0.022
0.039
-0.055
-0.299
-0.075
-0.041
0.063
0.141
0.056
0.058
-0.139
0.105
-0.041
0.115
0.024
0.048
0.088
0.043
0.074
0.140
-0.021
0.072
0.063
-0.088
0.004
0.004
-0.004
0.033
-0.033
0.054
-0.027
-0.006
0.072
-0.039
0.261
-0.154
0.013
-0.025
-0.015
0.120
-0.100
-0.061
-0.065
0.042
0.040
0.173
0.045
-0.057
0.124
0.001
-0.069
-0.011
0.070
0.079
0.059
0.002
0.032
-0.026
0.072
0.057
0.114
0.133
-0.113
0.039
0.041
0.036
0.034
0.036
0.142
-0.070
0.037
0.130
0.021
0.024
0.039
-0.015
-0.045
-0.026
0.191
0.017
0.037
0.068
0.029
0.047
-0.065
-0.093
0.182
0.022
0.126
-0.050
-0.028
0.017
0.060
0.011
0.098
0.015
-0.046
-0.069
0.087
0.015
0.016
-0.048
0.026
-0.025
-0.077
0.101
0.154
-0.050
-0.003
-0.088
-0.041
0.058
0.133
0.039
0.108
-0.026
-0.030
-0.070
-0.040
0.139
-0.061
0.087
-0.007
0.003
0.049
0.098
0.048
-0.025
-0.061
-0.023
0.109
0.010
0.115
0.008
0.022
0.043
0.047
0.024
0.040
-0.087
-0.102
0.050
0.075
0.062
-0.036
-0.012
0.008
-0.150
0.054
0.016
0.079
0.018
-0.077
-0.009
0.059
-0.013
0.199
-0.007
-0.089
0.075
0.056
0.001
0.029
0.022
-0.003
-0.029
0.098
0.036
0.054
0.046
0.069
-0.003
-0.002
0.038
0.118
0.099
0.016
0.041
0.072
-0.036
-0.022
0.069
0.035
-0.004
0.051
0.093
-0.085
0.123
0.071
-0.080
0.038
-0.097
0.089
0.003
0.032
0.122
0.112
0.018
0.024
-0.100
-0.007
0.061
0.020
-0.091
0.043
0.089
0.093
0.077
-0.084
-0.031
0.011
0.103
-0.049
0.054
0.000
0.026
-0.173
0.039
0.105
0.084
0.051
-0.039
-0.004
0.134
0.044
-0.025
0.068
0.019
0.031
-0.079
0.120
0.080
0.103
-0.098
0.125
-0.068
-0.017
0.029
-0.021
-0.026
-0.007
0.113
-0.068
0.023
-0.008
0.098
-0.032
0.067
-0.139
-0.024
0.076
-0.048
0.011
0.024
0.003
0.056
0.025
-0.097
0.141
-0.019
-0.004
0.090
0.082
0.027
-0.092
-0.017
0.067
-0.068
0.074
0.108
0.010
-0.002
0.102
0.031
0.078
-0.056
-0.017
0.103
-0.052
0.022
0.017
-0.113
0.127
0.118
-0.011
-0.057
0.018
-0.046
0.068
0.049
0.025
-0.015
0.032
-0.006
0.037
-0.005
0.029
0.036
-0.023
-0.013
0.075
0.114
-0.083
-0.020
0.009
0.075
0.069
0.162
0.015
-0.014
-0.008
-0.056
-0.011
0.111
-0.060
0.120
-0.011
-0.120
0.140
-0.024
0.006
-0.063
0.008
0.101
0.097
0.029
0.009
-0.087
0.071
0.049
0.017
-0.019
0.037
0.076
-0.083
0.026
0.047
-0.016
0.013
0.078
-0.051
-0.044
0.045
-0.014
0.096
-0.042
0.042
0.083
-0.055
-0.050
0.034
0.080
-0.041
0.062
-0.044
0.098
0.152
0.005
-0.122
0.042
-0.039
0.089
0.036
0.030
0.023
-0.039
-0.096
0.229
0.029
0.087
0.020
-0.065
0.028
0.107
0.022
0.002
0.029
0.052
-0.032
0.007
-0.086
0.132
-0.015
-0.008
0.026
-0.069
0.077
0.035
0.126
0.049
0.016
-0.041
-0.082
-0.036
0.067
0.096
0.017
0.053
0.046
0.082
-0.013
-0.004
0.016
-0.016
-0.014
0.000
0.102
0.059
-0.007
-0.083
0.015
0.179
-0.016
0.025
0.027
-0.053
0.104
0.059
-0.051
-0.014
0.071
-0.053
-0.055
-0.063
0.156
0.110
-0.046
-0.078
0.060
0.030
0.034
-0.069
0.022
0.046
-0.012
-0.017
0.061
0.018
0.068
0.107
0.007
0.058
0.006
-0.017
-0.081
0.044
0.074
0.001
0.062
-0.071
0.048
0.016
0.013
0.023
0.102
-0.030
-0.015
-0.003
-0.002
0.051
0.002
0.084
-0.001
0.016
-0.032
-0.055
-0.000
0.038
0.042
-0.002
0.004
-0.096
-0.047
0.092
0.141
-0.022
0.019
-0.008
0.071
0.158
0.024
0.002
0.001
-0.037
0.093
0.049
0.081
-0.014
-0.008
0.076
0.048
0.059
-0.036
-0.038
0.078
0.044
-0.026
0.136
0.011
-0.004
0.019
0.060
0.037
0.004
0.149
0.016
-0.010
0.147
0.036
-0.075
0.001
0.043
-0.007
0.035
0.037
0.023
0.107
-0.034
0.000
-0.031
0.130
0.010
0.019
0.044
-0.074
-0.016
0.019
0.048
-0.043
0.065
-0.025
0.104
0.061
0.035
0.005
-0.057
0.035
0.075
0.033
-0.042
-0.116
-0.051
0.093
-0.011
0.086
0.104
-0.011
-0.046
-0.007
0.001
0.118
-0.068
0.057
-0.029
0.087
0.058
0.058
0.078
-0.103
0.078
-0.042
0.090
0.070
0.032
-0.072
-0.021
-0.059
0.023
0.007
0.058
0.045
0.041
-0.048
-0.055
0.036
0.012
-0.113
0.135
-0.004
-0.016
-0.114
-0.023
0.086
0.005
-0.010
-0.046
0.075
0.026
-0.060
0.026
-0.066
-0.004
0.062
0.002
0.015
0.056
-0.001
0.036
-0.045
0.086
-0.084
-0.016
0.017
0.086
0.187
-0.085
0.026
0.029
0.026
-0.030
0.048
-0.080
-0.033
0.028
0.079
0.090
0.131
-0.028
0.113
-0.006
-0.005
0.003
0.050
0.073
-0.076
0.056
0.108
0.059
0.096
-0.143
0.020
-0.041
0.069
0.068
-0.129
0.031
0.106
0.026
-0.074
0.008
0.006
0.166
-0.057
-0.076
-0.018
0.015
0.033
0.021
0.095
0.212
-0.121
-0.081
0.023
-0.136
0.096
0.131
0.127
0.014
-0.087
0.103
-0.014
0.013
0.098
0.109
-0.062
0.038
0.037
0.119
0.020
-0.160
-0.006
0.148
0.083
-0.073
0.038
0.041
0.074
0.062
-0.075
-0.070
-0.011
0.102
0.132
-0.072
0.015
0.003
0.098
0.124
0.079
0.011
0.058
-0.026
0.049
0.017
-0.005
0.048
-0.030
-0.019
0.077
0.075
0.005
-0.137
0.065
0.087
0.084
-0.010
0.033
0.036
0.055
0.034
-0.060
-0.061
0.055
0.052
-0.003
0.055
0.027
-0.030
-0.007
0.115
-0.017
0.061
-0.016
0.058
-0.003
0.000
0.130
-0.017
0.017
-0.080
-0.068
0.097
0.127
0.058
0.002
0.028
0.063
-0.089
0.068
0.127
0.025
-0.031
-0.064
0.068
-0.031
0.071
0.036
0.110
0.093
-0.040
-0.107
0.034
0.022
-0.003
0.009
0.029
-0.090
0.009
0.068
0.018
-0.003
0.034
0.037
0.087
-0.090
0.069
-0.047
-0.066
0.105
-0.015
0.089
0.033
-0.029
0.002
0.013
0.014
0.014
-0.003
0.007
0.081
-0.002
-0.071
0.038
0.105
-0.074
-0.003
-0.018
0.141
-0.027
0.031
-0.111
0.044
-0.002
-0.044
-0.015
0.001
0.133
-0.016
0.105
0.015
0.029
-0.053
0.114
-0.038
0.085
-0.017
0.094
0.007
0.068
-0.037
0.063
0.084
0.017
0.063
0.045
-0.004
-0.013
0.041
0.082
-0.073
0.045
-0.063
-0.051
0.102
0.015
0.080
0.017
-0.106
0.012
0.153
0.089
0.014
0.012
0.089
-0.045
-0.101
0.038
0.181
0.087
0.011
-0.015
-0.067
0.024
0.225
-0.011
-0.014
0.100
0.058
0.028
-0.065
0.067
0.039
-0.052
-0.014
0.002
0.084
0.023
0.015
0.147
-0.058
-0.012
-0.007
0.098
0.001
0.068
0.010
-0.038
0.144
0.053
0.061
-0.046
0.106
-0.002
0.030
0.036
-0.019
-0.043
0.146
0.065
0.041
0.053
-0.024
0.000
-0.045
-0.117
0.002
0.071
0.081
0.096
0.009
-0.122
-0.012
-0.019
0.175
-0.024
-0.065
-0.046
0.114
0.046
-0.054
0.059
0.077
0.158
0.018
-0.071
0.005
-0.015
0.125
-0.175
0.042
-0.029
0.099
0.122
-0.079
-0.052
-0.023
0.044
0.076
0.037
0.052
0.080
-0.056
0.014
0.180
-0.045
0.037
-0.062
0.008
0.024
0.121
-0.027
-0.021
0.039
0.033
-0.080
0.071
-0.113
0.024
0.016
-0.033
-0.029
-0.009
0.054
0.092
0.148
0.037
-0.035
0.018
-0.092
-0.022
-0.083
0.183
0.035
0.054
0.093
0.090
-0.077
-0.042
-0.057
0.054
0.045
0.133
0.063
-0.001
-0.037
0.118
0.003
0.012
0.049
-0.032
0.071
-0.088
0.080
0.040
0.052
-0.002
0.034
0.071
0.005
-0.007
0.071
0.023
-0.032
0.074
0.054
-0.051
-0.128
0.065
0.033
0.086
0.041
-0.110
-0.027
0.099
0.048
-0.059
0.030
0.076
0.054
0.043
-0.003
-0.008
0.076
0.029
-0.079
0.118
0.069
0.045
-0.003
-0.090
-0.058
0.008
0.042
-0.048
-0.009
0.152
-0.010
0.040
0.074
-0.024
-0.065
0.100
0.075
-0.073
0.023
0.012
-0.013
0.087
0.122
0.067
-0.025
-0.044
-0.053
-0.021
-0.010
-0.024
0.008
0.076
0.016
0.063
-0.009
-0.009
0.014
0.073
0.036
-0.146
-0.088
0.020
0.044
0.153
-0.011
-0.050
0.012
-0.014
0.101
0.132
-0.042
0.002
0.008
0.041
0.093
-0.029
-0.018
-0.036
0.129
0.053
0.020
-0.024
-0.035
-0.055
-0.048
0.037
0.107
0.058
-0.012
0.049
-0.008
0.065
0.038
-0.034
-0.036
-0.052
-0.020
0.039
0.171
0.064
-0.085
0.061
0.077
0.076
-0.026
-0.003
0.043
0.004
0.062
0.107
-0.071
-0.013
0.053
0.037
0.153
0.002
-0.057
0.089
0.043
0.013
0.021
0.024
0.026
0.006
0.114
-0.065
0.090
0.043
0.010
0.066
-0.026
-0.036
-0.025
0.065
0.019
0.004
-0.006
-0.052
0.016
0.075
0.044
-0.108
0.062
0.030
-0.059
-0.062
-0.044
0.002
0.039
0.013
0.096
0.080
0.051
0.049
-0.023
0.070
0.004
-0.016
0.133
0.052
0.002
0.170
-0.099
-0.051
-0.072
0.078
-0.068
-0.032
0.023
0.006
0.091
-0.139
0.019
0.034
-0.018
0.007
0.050
0.028
0.025
0.047
-0.062
-0.009
0.047
0.032
0.081
0.028
-0.101
0.074
0.098
0.050
-0.041
0.042
0.039
0.041
0.042
0.003
-0.048
0.051
-0.066
0.040
0.001
-0.031
0.124
0.029
0.038
-0.068
0.081
-0.158
0.065
-0.053
0.043
0.035
0.084
0.131
-0.021
-0.077
0.025
0.037
-0.014
0.098
0.086
0.138
0.009
-0.069
-0.094
0.079
0.190
-0.032
0.027
0.044
0.040
0.174
0.062
-0.057
0.074
0.057
-0.065
0.009
0.016
-0.101
0.141
0.140
0.008
-0.051
0.045
0.011
-0.018
0.110
0.093
-0.050
0.071
0.058
-0.022
-0.059
-0.099
0.063
0.105
0.054
0.158
-0.045
-0.102
-0.004
0.029
0.037
-0.063
0.023
0.010
0.082
-0.043
0.015
-0.058
0.262
0.034
-0.021
0.035
0.155
0.005
-0.114
-0.007
0.086
0.112
-0.020
0.082
-0.015
0.037
-0.016
0.043
0.127
-0.049
0.040
-0.061
-0.050
0.043
-0.145
0.184
0.164
-0.095
0.062
0.006
0.049
0.079
0.013
0.062
-0.038
0.084
-0.043
0.057
-0.022
0.064
0.042
0.042
0.024
0.054
0.004
0.031
-0.006
0.137
0.021
-0.073
0.148
0.017
0.061
0.101
0.119
0.014
-0.014
0.059
-0.037
0.088
0.046
0.053
0.118
0.026
-0.095
-0.107
0.049
-0.066
0.165
0.029
0.001
-0.002
0.153
0.060
-0.015
-0.053
-0.073
0.124
0.126
-0.058
0.186
0.096
0.029
0.028
-0.009
0.074
-0.091
0.224
0.008
-0.049
-0.058
0.136
0.038
-0.012
0.043
-0.023
-0.138
0.163
-0.030
-0.005
-0.039
0.039
-0.051
0.167
0.096
0.122
-0.027
-0.064
-0.043
0.040
0.096
-0.058
-0.098
0.209
0.027
-0.043
0.067
0.041
0.076
-0.036
0.071
0.028
0.056
0.005
-0.090
-0.020
0.085
0.049
-0.009
0.054
0.138
-0.077
0.002
0.025
0.116
0.032
-0.013
-0.024
0.107
-0.037
-0.010
0.003
0.070
0.029
0.008
-0.012
-0.027
-0.024
-0.065
0.121
0.094
0.043
-0.021
-0.116
0.072
0.028
0.006
0.083
0.014
0.033
0.052
0.063
-0.031
-0.004
0.116
-0.031
0.040
0.019
0.046
-0.045
-0.018
0.076
0.070
0.075
0.003
0.119
0.085
0.039
-0.111
-0.036
-0.010
-0.078
0.085
0.072
0.061
-0.096
0.018
-0.058
0.043
0.013
0.028
0.027
0.007
0.175
0.021
-0.012
0.070
0.014
0.068
0.016
0.077
0.076
-0.131
0.023
0.048
-0.021
-0.007
0.035
-0.045
0.024
0.120
0.011
0.001
-0.056
-0.109
-0.142
0.197
0.061
0.082
0.041
0.035
0.055
-0.054
-0.065
-0.064
-0.049
0.079
-0.025
0.125
0.059
0.124
-0.017
-0.034
-0.013
0.112
-0.027
-0.116
-0.018
0.163
0.040
0.053
-0.059
-0.003
0.063
0.055
-0.088
0.096
0.079
0.107
0.011
-0.049
-0.022
-0.062
-0.015
0.021
0.018
0.102
0.152
0.054
-0.041
0.064
0.060
-0.030
0.062
-0.055
0.028
0.037
-0.021
0.097
0.018
0.002
-0.051
0.026
-0.035
0.064
0.093
0.024
-0.006
0.021
0.022
0.019
0.074
0.240
-0.145
0.015
0.103
-0.027
0.007
-0.086
0.117
0.019
-0.049
0.034
-0.031
0.006
-0.021
0.057
-0.007
0.070
-0.027
-0.031
0.096
-0.044
0.045
0.013
0.036
0.021
-0.014
0.042
-0.016
0.043
-0.029
0.074
0.049
0.064
0.065
-0.054
-0.011
0.088
-0.009
0.084
0.090
0.031
0.106
-0.092
0.030
0.089
0.106
0.056
-0.222
0.020
0.043
0.062
0.028
0.028
0.032
-0.017
0.064
0.053
-0.072
-0.061
-0.056
0.119
-0.028
0.008
0.003
-0.006
0.084
0.062
0.054
0.065
0.037
-0.024
-0.015
0.073
0.101
0.057
-0.030
-0.017
0.072
-0.020
-0.059
-0.066
0.186
-0.028
0.013
0.064
-0.137
0.035
0.061
0.098
0.079
-0.048
0.020
0.098
-0.033
0.054
0.085
-0.014
0.136
0.127
0.066
0.019
-0.011
0.136
-0.047
-0.013
0.009
0.033
0.006
0.024
0.088
0.034
-0.046
-0.027
0.059
0.124
-0.056
0.029
0.087
0.058
-0.055
-0.001
0.051
0.009
0.038
0.011
0.140
0.026
0.088
-0.067
0.077
0.023
0.049
0.107
0.040
0.026
0.047
0.082
-0.014
-0.009
-0.022
0.193
0.056
-0.078
0.020
-0.040
0.168
0.047
-0.040
0.124
-0.093
-0.071
0.080
0.062
0.029
0.046
0.072
-0.123
0.008
0.090
-0.028
-0.008
-0.028
0.074
-0.040
0.129
0.026
-0.050
0.131
0.053
0.144
0.080
-0.209
0.007
0.087
0.131
0.068
-0.026
-0.019
0.082
0.056
-0.006
0.042
0.123
0.030
0.036
0.060
-0.051
-0.088
0.103
0.122
-0.066
-0.013
0.001
-0.037
0.023
0.025
0.045
-0.016
0.017
-0.017
0.084
0.064
0.041
-0.018
0.053
-0.020
-0.040
0.084
-0.046
-0.008
0.020
0.046
0.040
0.039
0.037
0.079
0.003
0.023
0.039
-0.002
0.052
0.043
0.050
-0.039
0.032
0.059
0.058
0.095
-0.015
0.102
0.060
0.075
-0.109
-0.023
0.079
-0.040
0.117
0.081
-0.049
0.118
-0.025
0.004
-0.074
0.038
0.010
0.067
0.038
-0.102
0.110
0.039
0.054
-0.031
-0.000
-0.006
-0.035
-0.051
0.078
0.078
0.081
0.139
-0.007
0.217
-0.074
-0.052
0.017
0.129
0.102
-0.150
0.056
0.096
0.003
0.080
-0.045
0.118
-0.073
-0.036
0.123
-0.036
-0.015
-0.008
0.067
-0.032
-0.002
0.064
0.024
0.099
0.048
0.005
-0.059
-0.134
0.030
-0.035
0.070
0.093
0.035
0.015
0.012
-0.037
0.082
0.001
0.054
-0.013
-0.096
0.007
-0.056
0.139
-0.004
0.033
0.090
-0.003
-0.011
0.046
-0.079
0.100
0.072
0.086
0.047
-0.073
0.021
0.048
0.183
0.008
-0.034
0.036
0.014
-0.009
0.031
0.060
0.030
-0.066
-0.021
-0.041
-0.019
0.000
0.078
-0.065
0.094
-0.035
0.038
0.101
-0.020
0.015
-0.013
-0.072
0.005
0.043
0.067
-0.037
0.088
-0.027
0.039
0.037
0.103
-0.010
0.106
0.016
-0.056
0.046
0.102
-0.016
0.043
0.023
-0.094
0.000
0.200
-0.066
-0.049
-0.063
-0.135
0.027
0.279
0.055
0.064
-0.051
0.083
-0.015
-0.050
0.047
0.019
0.097
0.144
0.030
-0.016
0.105
0.082
0.078
0.019
-0.080
0.029
-0.070
-0.032
0.104
0.029
0.017
0.044
0.054
-0.166
0.020
-0.057
0.145
0.144
-0.017
-0.002
0.068
-0.057
-0.018
-0.102
0.025
0.109
0.069
0.005
0.010
-0.024
0.007
-0.064
0.033
0.036
0.153
0.007
0.022
0.092
0.086
0.139
0.121
-0.113
0.028
0.059
-0.116
0.098
0.220
0.093
-0.084
-0.106
0.053
0.066
-0.044
0.086
0.011
0.044
0.017
-0.004
-0.048
0.102
0.045
0.003
0.029
0.013
0.050
0.046
-0.003
-0.027
0.020
-0.085
0.053
0.076
0.111
0.019
0.002
-0.072
-0.027
0.053
0.136
0.115
0.025
-0.033
-0.019
0.058
-0.150
0.107
0.116
0.043
0.119
0.010
-0.046
0.149
-0.008
-0.027
-0.021
-0.001
0.061
0.123
-0.000
0.201
0.034
-0.078
0.092
0.160
-0.108
-0.016
-0.035
0.054
0.098
-0.016
-0.062
-0.028
0.027
-0.053
0.023
-0.021
0.061
0.063
-0.125
-0.039
0.133
0.026
0.101
0.015
-0.069
0.055
0.058
-0.025
0.035
0.045
0.025
-0.038
0.158
-0.017
0.031
-0.006
-0.023
0.042
0.091
-0.051
-0.018
0.071
-0.003
0.016
0.040
-0.035
0.081
-0.029
-0.028
-0.031
0.204
-0.088
0.079
0.061
-0.063
0.060
0.009
-0.083
-0.010
-0.062
-0.003
-0.029
0.088
-0.075
0.004
0.048
-0.042
-0.058
0.120
0.004
0.077
0.069
-0.026
-0.068
-0.002
0.078
0.103
0.005
-0.068
-0.004
0.080
0.033
-0.073
0.022
0.060
-0.021
0.033
0.000
0.074
-0.002
0.080
-0.024
0.092
0.012
0.030
0.072
-0.042
0.081
-0.014
0.039
0.092
-0.022
-0.005
0.002
-0.051
0.124
0.022
0.036
-0.017
0.132
0.083
-0.006
-0.090
0.002
0.073
-0.066
0.029
-0.048
-0.019
0.025
-0.007
-0.051
-0.076
-0.020
-0.035
0.126
0.134
0.055
-0.037
-0.089
-0.090
-0.102
-0.107
-0.003
-0.055
-0.166
-0.194
-0.147
-0.037
0.080
0.066
0.105
0.137
-0.007
-0.067
-0.019
0.007
-0.056
0.017
0.033
0.207
0.180
0.070
-0.238
0.023
0.119
0.038
-0.128
-0.079
0.094
0.232
0.183
0.340
0.041
-0.138
-0.007
0.102
0.276
0.232
0.154
0.193
0.014
-0.019
-0.017
-0.108
-0.059
-0.220
-0.137
-0.207
-0.142
-0.028
-0.126
-0.033
0.021
-0.022
-0.033
0.035
0.016
0.024
-0.051
0.098
0.031
0.053
-0.038
0.108
0.187
0.129
0.018
0.095
0.278
0.069
-0.009
0.105
0.166
0.145
0.136
0.041
-0.001
0.158
0.121
0.119
0.203
-0.081
0.118
0.000
0.190
0.074
0.009
0.110
0.075
0.070
0.001
0.067
-0.012
-0.142
0.135
-0.071
0.011
-0.010
0.085
-0.024
-0.034
0.048
-0.120
-0.006
0.050
0.063
-0.027
-0.008
0.009
-0.075
0.025
-0.150
-0.026
0.079
-0.075
0.044
0.184
0.058
-0.149
-0.046
0.002
-0.030
0.036
-0.035
0.008
-0.020
-0.011
0.072
-0.093
0.005
0.105
-0.029
-0.104
0.034
-0.056
0.114
0.061
0.002
0.079
-0.071
0.125
0.044
0.087
0.052
0.053
-0.093
0.008
-0.025
0.151
0.039
-0.026
0.056
-0.034
0.121
0.027
0.049
0.027
-0.025
0.035
0.055
-0.039
0.180
-0.012
0.061
-0.008
0.043
0.027
0.013
-0.027
0.162
-0.092
0.074
0.100
-0.113
0.032
0.003
0.103
0.084
-0.078
0.140
-0.014
-0.150
-0.022
-0.018
0.075
0.040
0.177
0.076
-0.048
0.025
0.031
-0.023
-0.013
0.036
0.078
0.009
0.009
0.031
0.098
0.045
0.034
0.001
0.019
-0.027
-0.017
0.080
-0.032
0.045
0.024
0.180
0.035
0.122
-0.071
-0.060
0.058
-0.092
-0.336
-0.116
0.056
0.245
0.155
0.177
-0.066
-0.228
0.001
0.033
0.031
-0.021
0.064
0.056
0.058
0.057
-0.020
0.112
0.030
-0.023
0.111
0.052
-0.082
-0.093
-0.012
0.016
-0.128
0.082
0.033
-0.102
-0.102
-0.005
0.141
0.121
-0.056
-0.065
0.068
-0.036
-0.056
0.038
0.050
-0.004
-0.036
0.077
-0.034
0.031
0.080
-0.036
0.023
0.041
0.004
0.015
0.039
0.030
0.152
-0.081
-0.012
-0.017
0.081
0.037
-0.017
0.052
0.035
0.069
0.093
0.094
0.066
-0.005
-0.024
0.044
-0.003
-0.036
-0.103
0.113
0.130
0.025
-0.037
0.039
0.140
0.081
-0.046
-0.062
-0.017
0.017
0.051
0.098
0.051
-0.030
0.066
-0.046
0.048
-0.092
0.038
0.012
-0.038
0.001
-0.111
0.003
0.071
-0.091
0.056
-0.014
0.085
0.053
-0.036
-0.007
-0.054
0.041
0.155
-0.028
-0.093
0.037
-0.085
0.082
0.006
0.027
0.026
0.068
0.116
0.015
0.068
-0.084
-0.031
-0.016
0.083
0.028
0.086
0.031
-0.067
0.137
0.019
-0.024
-0.016
0.123
0.088
-0.054
-0.121
-0.006
-0.000
0.125
0.007
0.038
0.039
-0.007
0.059
-0.073
0.006
-0.027
0.185
0.210
-0.077
-0.048
0.036
0.010
-0.005
0.217
0.075
0.062
-0.017
-0.018
-0.053
0.025
0.132
-0.019
0.021
0.045
-0.028
0.070
-0.017
-0.020
0.102
0.054
-0.010
-0.012
0.026
0.045
-0.119
0.097
0.112
0.012
-0.015
0.070
0.078
0.001
-0.046
-0.004
0.125
-0.012
0.144
-0.178
0.095
0.047
0.030
0.050
-0.025
-0.007
-0.017
-0.088
-0.073
0.020
0.028
0.021
0.060
0.001
0.033
-0.037
0.021
-0.012
-0.011
0.086
0.111
0.066
0.002
-0.131
0.043
0.066
0.110
0.097
0.026
-0.027
0.006
0.073
-0.015
-0.093
0.110
-0.005
0.052
0.086
0.049
-0.069
0.078
0.061
-0.022
-0.032
0.064
-0.004
0.068
-0.014
0.043
0.059
-0.076
-0.049
0.068
0.037
-0.022
0.069
0.022
0.057
0.012
-0.017
0.060
0.115
0.071
0.001
-0.064
0.022
0.033
0.026
0.088
0.102
-0.087
0.028
0.043
0.006
0.025
0.014
0.147
0.046
0.061
0.092
0.012
-0.009
0.085
0.091
-0.032
0.070
0.119
0.022
0.018
0.044
0.045
0.017
0.039
-0.027
0.042
0.038
0.071
0.094
0.025
-0.146
-0.163
-0.025
0.166
0.130
-0.064
0.112
-0.002
-0.049
0.108
0.034
0.056
-0.013
-0.005
0.156
0.044
0.097
-0.059
0.133
-0.049
-0.055
-0.045
0.112
0.062
-0.035
-0.052
0.058
0.034
0.128
0.081
0.022
-0.040
0.008
-0.076
0.088
0.156
-0.029
-0.037
0.000
0.106
-0.065
0.015
-0.058
0.024
0.028
0.013
0.013
-0.077
0.093
0.016
-0.048
0.017
0.038
0.006
-0.093
-0.032
0.060
0.247
0.006
-0.107
-0.059
0.045
0.061
0.125
0.136
-0.047
0.002
0.069
0.046
0.076
-0.086
0.138
0.054
-0.008
-0.123
-0.045
0.048
-0.065
0.162
-0.067
-0.069
-0.090
0.047
0.122
0.135
0.080
0.021
-0.143
-0.008
0.120
-0.103
0.098
0.085
-0.031
-0.043
-0.026
0.203
-0.040
0.079
0.007
-0.046
-0.091
0.039
0.066
-0.000
-0.012
-0.027
0.022
0.060
-0.023
0.052
-0.018
-0.095
0.005
0.078
0.032
-0.006
-0.059
0.211
0.071
-0.100
0.055
0.035
-0.079
-0.031
0.132
0.073
0.129
-0.023
0.086
-0.087
-0.006
0.039
0.029
0.141
0.073
-0.071
-0.035
0.096
0.099
0.004
0.082
0.003
0.023
-0.137
-0.004
0.134
-0.013
0.107
0.001
0.037
-0.049
0.052
0.045
-0.070
-0.016
0.095
-0.036
-0.029
0.066
-0.008
-0.017
0.064
-0.014
-0.005
-0.115
0.212
0.183
0.013
-0.038
-0.130
-0.030
0.070
0.094
-0.035
0.107
0.050
-0.064
-0.031
-0.049
0.084
0.173
0.082
-0.066
0.009
0.012
0.055
0.039
0.095
0.013
-0.126
-0.011
0.092
0.097
-0.021
0.050
0.058
0.077
-0.034
-0.049
0.069
0.134
0.001
-0.036
0.049
0.080
0.009
-0.016
-0.040
0.030
0.020
0.086
-0.115
-0.115
-0.004
0.080
0.029
-0.046
0.003
-0.013
-0.078
0.036
0.082
0.104
0.039
0.078
0.010
-0.015
0.059
-0.008
0.034
-0.080
-0.026
0.075
0.044
-0.027
0.032
0.064
0.083
-0.045
0.004
0.048
0.110
0.075
0.027
-0.038
-0.004
0.077
-0.014
0.099
-0.080
-0.101
-0.034
0.104
0.049
0.154
0.003
-0.044
0.011
-0.009
0.104
0.040
-0.077
0.047
0.074
0.073
-0.080
-0.006
0.015
0.038
0.139
-0.011
0.082
-0.069
0.022
0.015
0.093
0.048
0.080
0.074
0.042
0.056
0.008
-0.053
-0.008
0.028
0.016
0.058
-0.080
-0.009
0.099
0.073
-0.063
0.012
0.019
0.126
-0.019
0.042
0.107
-0.119
-0.089
0.120
0.066
-0.044
-0.005
0.019
-0.053
0.086
0.013
0.039
0.036
-0.097
0.020
0.064
0.135
-0.057
0.041
0.104
0.035
-0.047
0.040
0.084
-0.081
0.057
0.032
0.026
-0.066
-0.010
0.065
0.039
0.030
0.053
-0.040
0.017
-0.006
0.022
-0.064
0.024
0.061
0.013
0.055
0.106
0.006
-0.032
0.023
0.026
0.075
-0.066
-0.027
0.073
0.090
-0.156
-0.056
0.124
0.013
0.005
-0.086
0.012
-0.023
-0.039
0.043
0.090
0.040
-0.051
0.013
-0.033
0.106
-0.034
0.083
0.063
-0.009
-0.096
0.028
0.070
0.132
0.122
-0.012
0.004
0.011
0.148
-0.007
0.026
0.129
0.003
0.122
0.055
0.074
-0.008
-0.149
-0.033
0.134
0.066
0.110
-0.031
-0.003
0.021
-0.067
0.084
0.021
0.019
-0.048
0.080
-0.047
0.074
0.045
0.022
0.118
0.063
-0.063
0.052
0.021
0.054
0.096
0.063
-0.023
0.113
-0.059
0.168
-0.023
-0.033
-0.015
0.099
0.085
0.058
-0.071
0.063
0.003
-0.030
-0.054
0.180
0.052
-0.033
0.093
-0.045
0.007
-0.005
0.015
-0.044
0.096
0.027
0.075
0.043
0.015
0.039
-0.002
-0.115
0.093
0.036
0.019
0.013
-0.108
0.045
0.086
0.078
-0.037
0.073
0.060
-0.060
0.109
0.004
-0.048
0.000
0.066
0.003
-0.070
0.016
0.141
0.006
-0.020
0.103
0.005
0.077
-0.066
0.059
-0.015
-0.061
0.009
0.063
-0.053
-0.042
-0.114
0.135
0.116
0.004
0.067
-0.010
-0.075
0.077
0.070
0.120
-0.112
-0.079
-0.031
0.089
0.077
-0.077
0.048
-0.034
-0.000
0.057
0.044
0.118
-0.055
-0.088
0.047
0.090
-0.034
-0.064
0.042
0.063
-0.011
0.043
0.014
0.004
0.097
0.108
0.072
-0.032
0.033
-0.013
0.006
0.019
0.122
0.027
-0.020
0.122
-0.015
-0.011
-0.101
-0.054
0.128
-0.011
-0.057
0.036
0.116
0.067
0.050
-0.035
-0.018
0.016
0.024
0.016
0.056
-0.033
0.009
0.039
0.034
-0.073
0.071
-0.067
-0.027
0.132
-0.065
-0.065
-0.052
0.129
0.082
-0.014
-0.010
0.013
-0.015
-0.019
0.095
0.044
-0.032
-0.010
0.159
-0.016
-0.007
-0.019
-0.059
0.066
-0.079
0.043
0.032
0.045
-0.112
0.130
0.054
0.047
0.030
0.023
0.030
0.005
-0.057
-0.121
0.140
0.006
0.063
0.044
-0.075
0.006
0.062
0.166
-0.068
-0.020
0.073
0.045
-0.005
-0.007
-0.004
-0.035
-0.104
-0.005
0.000
0.057
0.056
0.003
-0.017
-0.063
0.085
0.058
0.010
-0.003
0.087
0.113
-0.015
-0.083
0.018
0.079
0.004
0.090
-0.065
-0.034
0.029
-0.009
0.067
0.034
0.109
-0.115
0.054
0.104
0.036
-0.134
0.005
0.014
0.134
0.076
0.031
-0.069
0.009
0.045
0.013
-0.037
-0.031
0.136
0.058
0.019
0.003
-0.028
0.154
-0.011
-0.013
-0.034
-0.008
-0.002
0.155
0.183
0.081
0.047
-0.075
-0.075
0.058
0.031
0.017
0.049
0.130
-0.025
-0.050
-0.022
0.029
-0.013
0.040
-0.066
0.020
0.029
-0.151
0.066
0.014
-0.027
0.065
0.031
0.011
0.013
-0.009
0.120
0.101
0.014
0.064
0.026
-0.079
-0.035
0.085
0.002
0.060
0.130
-0.042
-0.007
0.064
-0.012
0.037
-0.024
0.006
-0.017
0.074
0.093
-0.007
0.067
-0.043
0.034
0.019
0.012
0.022
0.049
0.016
0.001
0.032
0.082
-0.019
-0.048
-0.046
0.045
0.083
-0.020
-0.055
-0.048
-0.043
0.066
0.112
-0.105
0.058
0.079
-0.060
0.083
0.112
0.012
-0.000
-0.025
0.042
-0.018
0.052
0.011
-0.063
-0.020
0.130
0.064
-0.088
0.079
-0.068
0.027
-0.039
0.073
0.041
0.003
0.032
-0.025
0.001
0.017
0.050
-0.094
0.087
0.078
0.023
-0.006
-0.132
0.173
-0.001
-0.014
0.030
-0.075
0.012
0.067
0.174
0.061
-0.039
0.009
0.083
-0.005
-0.066
-0.027
0.062
0.092
0.026
-0.121
-0.005
-0.034
-0.084
0.090
-0.026
0.006
0.038
0.039
0.074
-0.005
-0.121
0.012
0.099
-0.050
0.090
-0.043
-0.025
0.048
0.039
-0.031
-0.010
-0.022
0.033
0.101
-0.001
-0.019
0.049
0.022
0.000
-0.014
0.028
0.130
-0.004
-0.011
-0.021
0.012
0.113
-0.008
0.023
0.014
0.006
0.075
-0.019
-0.024
0.009
-0.072
0.012
0.131
0.030
0.031
0.024
-0.053
-0.043
0.058
0.132
-0.060
0.030
0.050
0.030
0.005
0.045
-0.069
0.052
0.069
-0.104
0.120
-0.061
-0.009
0.033
-0.025
0.118
-0.002
0.017
0.027
0.069
0.052
0.002
0.014
0.047
0.037
-0.067
0.147
-0.015
0.054
-0.029
0.145
-0.011
-0.022
-0.021
-0.032
0.065
-0.040
-0.022
0.095
0.053
0.010
-0.018
-0.060
0.073
-0.074
0.029
0.069
0.084
0.024
0.057
0.058
-0.003
0.097
-0.066
-0.048
0.167
0.055
0.132
0.009
-0.052
0.075
0.009
-0.055
-0.080
-0.011
0.023
0.067
0.002
-0.004
-0.022
0.040
0.059
0.045
0.078
0.049
-0.110
0.074
0.052
0.107
-0.038
-0.119
-0.006
0.061
0.015
0.033
-0.033
0.004
-0.033
0.089
-0.007
-0.047
0.067
0.061
0.105
0.082
0.061
-0.059
0.018
0.009
-0.007
0.037
0.092
0.057
-0.062
-0.041
0.052
0.026
0.058
-0.040
-0.099
0.042
-0.017
0.004
0.029
0.004
0.023
-0.038
-0.070
0.121
0.010
0.065
0.054
0.020
0.037
-0.020
0.026
0.063
0.026
0.070
0.005
-0.052
-0.041
0.057
0.087
-0.051
0.012
-0.000
0.031
0.115
-0.044
-0.019
0.015
-0.028
-0.006
0.166
-0.041
-0.091
-0.135
0.041
0.157
0.027
0.173
0.024
-0.050
-0.002
-0.024
0.030
0.010
0.004
0.003
0.081
-0.112
-0.165
0.035
-0.028
-0.013
0.013
0.016
0.131
-0.031
-0.059
-0.036
-0.026
-0.080
0.065
0.053
0.074
0.086
-0.098
0.025
0.082
0.083
0.100
-0.088
0.184
-0.007
-0.038
0.133
0.039
-0.032
-0.029
0.021
0.011
-0.044
0.032
0.124
0.067
-0.036
0.016
0.021
0.051
0.008
-0.074
0.067
-0.030
0.050
-0.104
-0.061
-0.118
0.103
0.019
-0.018
0.069
-0.002
-0.063
0.081
-0.101
0.006
0.011
0.098
-0.007
-0.050
-0.020
0.138
0.089
0.117
0.079
0.060
-0.053
-0.000
0.126
-0.027
0.023
0.009
-0.076
0.031
0.167
0.003
-0.032
0.097
0.065
0.083
-0.015
-0.087
-0.012
0.010
0.102
0.017
0.021
0.020
-0.023
-0.009
-0.043
0.057
0.048
0.038
0.044
0.029
0.075
-0.092
0.121
0.057
-0.014
0.037
-0.148
0.153
-0.003
0.023
0.032
0.117
-0.016
0.068
0.062
0.052
0.020
-0.004
0.067
-0.031
-0.013
0.078
-0.002
0.040
0.022
0.137
0.007
-0.025
0.048
-0.016
-0.068
-0.051
-0.026
0.035
0.079
0.056
-0.022
-0.031
0.082
0.038
-0.038
0.073
0.103
-0.055
0.121
-0.068
0.014
0.078
0.049
0.027
0.162
0.012
-0.087
0.122
0.104
-0.003
-0.027
-0.025
-0.065
-0.083
0.029
0.044
0.087
0.111
0.021
-0.038
-0.141
0.139
0.025
0.052
-0.042
0.070
0.050
0.033
0.080
0.019
0.053
0.018
-0.034
-0.027
-0.037
0.033
0.064
0.008
-0.013
-0.018
-0.035
0.102
0.090
0.164
-0.009
0.001
0.019
-0.048
0.026
0.114
-0.019
0.089
0.035
0.020
-0.051
-0.047
0.042
-0.031
0.090
0.096
0.041
0.035
0.109
-0.127
-0.039
0.171
0.008
-0.031
0.035
0.009
0.055
0.039
0.084
0.021
0.061
0.054
0.002
-0.070
0.111
0.050
0.020
-0.048
0.042
0.012
0.066
-0.011
0.084
0.119
-0.153
0.099
0.128
0.051
0.015
0.034
0.057
0.054
-0.084
0.058
0.071
0.057
-0.050
0.052
-0.042
0.058
-0.041
0.054
0.146
-0.106
0.078
-0.014
0.046
0.145
-0.161
-0.162
0.099
0.245
0.082
-0.040
0.082
-0.080
-0.087
0.101
0.162
0.089
0.077
-0.031
-0.045
0.077
-0.012
0.017
-0.125
-0.046
-0.013
0.081
0.055
-0.025
-0.037
0.021
0.035
0.050
-0.095
0.025
0.051
0.135
-0.015
-0.064
0.064
0.075
-0.023
0.039
0.087
0.000
-0.115
0.042
0.009
0.141
0.014
-0.133
0.019
0.117
-0.089
0.119
-0.010
0.174
-0.118
0.092
0.046
0.006
-0.054
0.009
0.018
0.007
0.031
0.024
0.028
0.047
0.153
-0.089
0.002
-0.009
0.053
0.101
-0.114
0.065
0.049
0.027
-0.030
-0.014
-0.028
0.063
0.009
-0.046
0.051
-0.008
-0.027
-0.072
0.025
0.055
0.012
0.080
-0.070
0.023
0.062
-0.020
0.130
0.052
0.041
0.071
0.009
-0.007
-0.102
0.033
0.048
-0.037
0.124
0.207
-0.056
-0.021
0.021
-0.088
0.130
0.014
0.018
-0.002
-0.007
0.116
0.039
-0.015
0.052
0.121
0.120
-0.032
-0.018
-0.016
0.079
-0.034
0.037
-0.054
0.132
0.030
0.031
-0.051
-0.043
-0.033
0.048
0.083
0.076
-0.156
-0.036
0.143
-0.080
-0.011
0.017
0.035
0.036
0.169
-0.044
-0.073
0.032
-0.060
0.074
0.084
-0.055
-0.037
0.121
0.037
0.100
-0.017
0.009
-0.011
-0.080
-0.073
0.140
0.110
-0.046
0.065
0.035
0.019
0.011
-0.018
0.062
-0.023
0.039
0.027
0.100
0.047
0.166
-0.077
0.111
-0.007
0.013
0.062
0.106
-0.015
-0.093
0.019
0.001
0.066
-0.005
-0.035
0.032
-0.029
0.051
0.088
-0.081
-0.138
0.088
0.155
0.046
-0.007
0.040
0.062
0.006
0.111
-0.080
0.034
0.125
-0.056
-0.059
0.108
0.038
-0.028
0.055
0.019
0.046
0.071
-0.042
-0.136
0.095
0.043
0.026
0.070
0.079
-0.021
0.085
-0.026
0.007
0.143
0.109
0.055
-0.090
0.108
0.026
0.062
0.105
-0.027
-0.037
-0.030
0.061
-0.030
0.025
0.028
0.039
-0.056
0.107
0.016
0.058
0.124
0.049
-0.035
-0.056
-0.006
0.051
0.035
0.015
-0.001
0.005
0.074
-0.070
-0.002
0.017
0.112
0.058
-0.048
0.067
-0.073
0.070
-0.116
0.030
-0.035
0.149
0.034
0.102
-0.186
0.096
-0.060
-0.003
0.124
0.026
-0.052
-0.093
0.179
0.019
0.013
0.052
-0.005
-0.024
0.053
0.017
0.125
0.031
0.020
0.036
-0.050
-0.046
0.091
0.131
0.072
-0.124
-0.034
-0.102
0.225
0.125
0.017
-0.094
-0.060
0.017
0.005
0.027
0.053
0.150
0.022
-0.016
-0.086
0.038
0.121
0.045
0.130
-0.052
-0.055
-0.014
0.048
0.098
0.007
0.041
0.068
-0.049
-0.014
0.020
0.069
0.022
0.068
0.037
0.020
0.079
0.026
-0.015
-0.018
-0.017
0.004
0.028
0.056
-0.095
0.124
0.026
0.027
0.141
0.053
-0.046
-0.040
-0.052
0.059
-0.038
0.079
0.020
-0.016
-0.069
-0.069
-0.069
0.002
-0.055
-0.073
-0.040
-0.040
-0.157
-0.015
-0.016
0.001
0.015
0.040
0.078
0.037
-0.034
0.005
0.014
0.114
-0.008
-0.078
0.144
0.096
0.015
0.197
0.073
0.062
0.024
-0.005
-0.034
0.037
0.113
0.106
0.170
0.010
-0.025
0.026
-0.013
-0.054
0.054
-0.090
0.003
0.046
-0.071
0.043
-0.040
-0.033
-0.020
0.031
0.056
0.019
-0.029
-0.027
-0.042
0.004
0.015
0.003
0.110
0.061
0.035
-0.015
-0.014
0.101
0.094
-0.022
0.040
-0.007
-0.005
0.185
0.140
0.094
0.144
0.017
0.063
0.043
0.073
0.074
0.084
0.022
-0.134
0.012
0.149
0.098
0.157
0.078
0.015
0.041
-0.015
0.030
-0.108
0.020
0.236
0.109
0.077
0.088
-0.020
0.091
-0.033
-0.065
0.012
0.117
-0.019
-0.039
0.092
-0.117
-0.036
-0.078
-0.016
0.006
-0.051
0.099
-0.010
-0.009
-0.065
-0.029
0.111
0.005
0.072
0.018
-0.043
-0.079
-0.061
0.008
0.003
0.023
-0.013
-0.015
-0.013
0.079
-0.054
0.030
0.145
0.018
-0.023
-0.011
-0.056
-0.035
-0.030
0.053
0.018
0.114
0.043
0.152
0.061
-0.041
-0.037
0.098
0.129
-0.032
-0.005
0.096
-0.079
-0.142
-0.046
0.230
0.039
0.034
-0.039
-0.050
-0.038
0.006
0.172
0.039
-0.042
-0.016
0.049
0.002
-0.013
-0.008
0.079
-0.029
0.048
-0.103
0.099
0.030
0.045
-0.003
0.033
-0.049
0.078
-0.056
-0.020
-0.001
0.051
0.100
-0.026
-0.009
0.013
0.126
0.040
-0.007
-0.023
0.023
-0.003
-0.018
0.131
0.003
-0.057
0.119
0.007
0.085
0.033
0.037
0.081
-0.023
0.009
-0.087
0.216
0.187
-0.119
-0.084
0.057
-0.036
0.054
0.085
0.075
-0.074
0.090
-0.069
-0.011
-0.056
0.109
0.038
0.107
0.086
0.012
-0.050
-0.028
-0.005
0.027
-0.034
-0.014
0.071
-0.095
0.127
0.025
0.100
-0.073
0.072
-0.011
-0.004
0.063
0.063
0.049
-0.102
-0.032
0.168
0.004
-0.090
0.079
0.136
0.001
0.005
0.116
0.097
-0.141
0.103
0.073
0.007
-0.041
-0.030
-0.049
-0.019
-0.195
0.041
-0.011
-0.063
0.078
-0.018
-0.072
0.075
-0.113
0.074
0.047
0.025
0.012
0.129
0.180
0.010
-0.089
0.146
0.107
0.194
0.130
0.072
0.169
0.196
-0.011
-0.052
-0.047
-0.056
0.078
0.007
0.087
-0.056
-0.015
0.096
0.005
-0.148
-0.082
-0.105
-0.042
0.113
0.028
0.061
0.006
-0.096
0.006
0.084
-0.026
0.094
0.019
0.076
-0.024
-0.066
-0.131
0.009
0.137
-0.025
0.043
0.072
0.059
0.067
-0.017
-0.020
0.019
0.002
0.125
0.130
0.030
0.078
0.096
0.050
0.114
-0.002
-0.031
0.095
0.081
0.075
-0.027
0.017
0.142
0.039
0.103
-0.066
0.063
0.135
0.060
-0.122
0.003
0.067
-0.056
0.144
-0.027
-0.039
0.027
-0.022
0.111
-0.022
-0.107
-0.056
0.091
0.094
-0.150
-0.116
0.110
0.073
0.020
-0.081
-0.000
0.051
0.045
0.021
0.085
0.007
0.040
-0.126
0.029
-0.090
0.025
0.051
0.033
0.051
0.012
0.020
0.096
-0.040
0.017
-0.000
-0.023
0.051
-0.039
0.014
0.081
-0.003
0.016
0.100
0.102
-0.060
-0.055
0.026
-0.131
0.122
0.059
0.073
-0.006
-0.044
0.121
0.060
-0.010
0.078
0.031
-0.069
-0.073
0.020
0.019
0.070
0.022
0.035
0.036
-0.017
-0.019
-0.022
-0.097
0.075
-0.063
0.043
-0.042
0.022
0.031
0.050
-0.110
0.099
0.005
-0.089
-0.009
0.050
0.094
0.127
0.066
-0.042
0.120
-0.013
0.026
-0.029
-0.060
0.030
0.077
0.055
0.008
-0.041
-0.023
0.112
0.175
0.043
0.006
-0.194
-0.061
0.077
0.066
0.025
0.005
0.061
0.142
-0.008
-0.004
-0.090
-0.049
0.087
-0.058
0.015
0.052
-0.034
0.139
0.028
0.018
-0.153
-0.123
0.084
-0.017
0.154
-0.112
0.052
-0.053
0.011
0.003
-0.020
0.039
-0.013
-0.034
-0.033
0.064
-0.017
0.034
-0.103
0.034
-0.015
0.015
-0.074
0.081
-0.040
-0.019
0.157
-0.080
0.116
-0.068
0.039
0.081
-0.033
-0.055
0.047
0.110
0.013
-0.083
0.080
0.031
-0.006
-0.019
-0.063
0.094
0.002
-0.033
0.028
0.026
-0.017
0.094
0.037
0.007
0.015
-0.005
-0.007
-0.054
0.052
-0.003
-0.016
0.068
-0.005
0.055
0.027
-0.055
0.048
0.022
0.046
0.083
-0.018
0.114
0.020
-0.074
0.095
0.189
0.061
0.020
-0.025
0.140
0.041
-0.034
-0.014
-0.001
-0.049
0.012
0.133
-0.006
0.041
0.020
-0.034
0.068
0.043
0.030
-0.087
-0.069
0.133
0.147
0.035
-0.035
0.085
0.016
0.000
-0.030
0.132
0.019
-0.051
0.068
0.004
-0.046
0.042
0.031
-0.038
0.030
0.062
0.047
0.005
-0.020
-0.039
0.062
0.018
0.064
0.128
0.032
0.153
-0.021
-0.116
0.073
0.037
0.012
-0.058
0.132
-0.081
0.064
0.013
0.122
0.045
0.011
-0.004
0.075
0.118
0.019
-0.054
0.030
0.027
0.024
-0.006
0.035
-0.082
-0.049
0.126
0.018
0.081
-0.073
-0.074
0.009
0.035
0.021
0.052
0.015
0.023
-0.047
0.047
0.070
0.088
0.045
0.019
-0.052
0.146
0.010
-0.020
-0.012
0.073
0.043
0.103
-0.015
-0.098
0.122
0.030
0.104
0.076
0.001
0.134
0.075
-0.083
0.019
-0.010
0.096
-0.079
-0.006
0.117
-0.018
0.122
0.026
0.005
0.009
-0.000
0.039
0.096
0.023
-0.097
-0.004
-0.035
0.174
0.018
0.065
-0.025
-0.049
-0.036
0.107
0.121
-0.053
0.076
0.018
0.019
0.046
0.001
0.050
0.104
0.008
0.012
0.058
-0.097
-0.037
0.038
-0.009
0.148
0.031
-0.059
-0.025
-0.043
0.029
0.043
0.091
0.052
0.078
-0.091
-0.051
0.083
0.065
-0.048
0.126
0.016
0.108
-0.135
-0.039
0.104
0.089
0.016
-0.012
-0.040
0.086
0.001
0.008
-0.088
0.050
0.016
0.085
-0.014
-0.015
0.087
0.094
0.013
-0.132
0.071
0.113
0.102
-0.149
0.002
-0.044
0.090
-0.099
0.028
0.103
0.016
0.009
0.034
0.041
-0.065
-0.084
-0.042
0.122
0.121
0.034
-0.025
0.014
0.064
0.038
-0.003
0.004
0.136
-0.086
0.097
0.171
-0.102
0.046
0.161
-0.005
0.005
0.032
-0.050
-0.013
0.042
0.007
0.105
0.009
0.078
-0.026
0.028
0.066
-0.017
-0.037
0.057
-0.014
0.075
0.005
0.014
0.039
-0.019
-0.125
-0.012
0.053
0.073
-0.016
0.045
-0.107
0.243
-0.102
0.089
0.052
0.179
0.016
-0.050
0.054
0.113
0.070
-0.019
0.044
0.045
0.087
-0.007
-0.110
-0.101
-0.035
0.122
-0.104
0.024
0.050
0.073
-0.050
0.010
0.082
-0.067
-0.124
-0.035
0.111
0.004
-0.024
0.038
0.141
-0.005
-0.028
-0.033
0.138
-0.032
-0.015
-0.019
0.068
0.072
-0.054
0.086
-0.072
-0.043
0.013
0.051
0.088
-0.080
-0.037
0.147
0.063
-0.019
-0.080
-0.040
0.092
0.109
-0.015
0.082
-0.014
-0.048
0.009
-0.008
0.144
0.065
-0.031
0.051
0.032
-0.089
-0.072
0.072
0.103
0.118
0.091
-0.033
-0.054
0.043
-0.094
0.103
0.066
0.040
0.014
-0.045
-0.042
0.054
0.124
0.054
0.041
-0.170
0.071
0.073
-0.033
0.054
0.076
-0.029
0.150
0.075
0.013
-0.103
0.095
-0.029
0.063
0.059
-0.068
0.028
0.101
0.117
0.032
-0.034
-0.041
0.122
0.013
-0.016
0.029
-0.038
0.150
0.050
0.049
0.014
-0.125
0.073
0.095
0.018
-0.041
-0.072
0.000
0.048
0.035
-0.070
0.117
0.084
-0.062
0.031
-0.026
0.149
-0.084
0.045
-0.023
0.096
-0.098
0.005
0.008
0.114
-0.008
0.168
-0.074
-0.055
0.077
0.064
0.041
-0.095
0.080
0.105
0.026
0.060
-0.018
0.135
0.115
-0.004
-0.037
-0.023
-0.001
0.106
-0.024
0.033
0.037
-0.074
0.072
0.060
0.003
-0.067
-0.052
0.041
0.068
0.004
-0.044
-0.004
0.071
0.036
0.046
-0.050
0.008
-0.036
-0.069
0.056
0.073
0.030
-0.034
0.108
-0.041
0.070
-0.022
0.035
0.062
0.025
0.070
0.008
0.065
0.146
-0.018
-0.057
-0.020
-0.003
0.037
0.014
0.058
-0.005
0.032
0.015
0.070
-0.076
0.112
-0.136
0.131
0.023
-0.119
0.065
-0.046
0.125
-0.060
-0.019
-0.031
0.061
0.031
0.170
0.005
0.029
0.022
-0.025
-0.010
-0.026
0.029
0.034
-0.009
-0.025
0.101
-0.095
-0.050
0.146
0.077
-0.067
0.017
0.099
-0.106
-0.098
-0.121
0.131
0.054
0.074
0.009
0.055
0.052
0.029
0.019
-0.052
0.106
0.029
0.036
0.111
-0.013
0.053
0.007
-0.063
0.089
0.085
-0.021
0.079
-0.048
0.027
-0.085
0.086
0.015
0.069
0.040
0.069
-0.083
0.038
0.038
0.051
0.148
-0.016
-0.151
0.119
0.053
-0.064
0.053
0.031
0.101
-0.011
0.013
-0.103
0.049
0.012
0.014
0.027
-0.027
0.074
0.064
-0.079
0.115
0.079
-0.069
0.042
0.041
0.009
0.064
-0.003
0.080
0.006
0.073
0.005
0.061
0.002
-0.042
-0.083
0.099
0.083
-0.060
-0.008
-0.082
0.006
0.011
0.095
0.092
-0.040
0.024
0.036
-0.022
0.068
-0.005
-0.000
0.026
0.024
-0.096
-0.038
0.057
0.036
0.106
0.030
-0.001
-0.029
-0.090
0.077
0.117
0.003
0.119
0.110
-0.040
-0.003
0.036
0.087
-0.045
0.033
-0.002
-0.006
-0.002
0.001
0.078
-0.006
-0.000
0.058
0.017
0.012
-0.042
0.025
-0.020
0.073
-0.099
0.071
0.044
0.022
-0.011
0.050
-0.058
0.050
-0.036
0.079
0.091
0.039
0.052
0.037
-0.009
0.048
0.092
0.009
0.016
-0.021
0.038
0.079
0.028
0.085
0.040
-0.019
0.116
-0.039
-0.108
0.145
0.069
0.015
0.019
-0.063
0.014
0.033
0.011
0.141
-0.036
0.112
-0.031
0.015
0.048
0.081
0.014
0.060
-0.184
0.041
0.045
-0.071
0.048
0.133
0.100
0.052
-0.007
-0.069
0.119
-0.046
0.005
0.080
0.047
-0.025
0.010
0.022
-0.025
-0.026
0.153
0.009
-0.029
0.055
-0.084
0.012
0.017
0.085
-0.003
0.145
0.051
0.073
0.086
-0.067
0.040
-0.021
-0.011
0.021
0.013
0.016
0.013
0.122
0.115
-0.068
-0.082
-0.025
-0.063
0.204
-0.195
0.098
0.010
-0.022
-0.006
-0.034
0.086
0.097
0.093
-0.025
0.023
-0.053
0.014
-0.057
0.059
0.111
0.003
-0.007
0.110
-0.099
-0.075
0.053
-0.016
-0.028
0.018
0.129
-0.067
0.015
-0.007
0.001
0.080
0.147
0.034
-0.011
0.086
0.045
-0.013
0.065
-0.018
-0.104
0.030
0.094
0.044
-0.006
0.126
0.023
-0.130
-0.009
-0.088
0.022
0.005
0.027
0.093
0.042
-0.073
-0.063
0.045
0.123
0.083
0.005
-0.069
0.050
0.091
-0.134
0.016
0.118
0.009
0.011
0.101
0.067
0.017
-0.025
0.051
0.032
0.060
0.017
0.102
0.053
-0.048
-0.056
0.225
0.011
0.002
-0.051
-0.010
-0.015
0.189
-0.145
0.082
-0.001
-0.018
0.047
0.013
-0.017
0.085
-0.062
0.006
0.096
0.090
0.094
0.088
0.036
0.045
-0.013
-0.016
-0.015
0.023
0.072
-0.019
0.012
-0.031
-0.056
-0.002
0.047
0.005
0.136
0.048
-0.002
0.038
0.017
-0.049
0.025
0.004
0.073
0.076
0.142
-0.091
-0.033
0.010
0.095
-0.098
0.042
-0.135
0.102
0.007
-0.061
0.128
0.060
0.110
0.028
-0.016
-0.111
0.122
0.078
0.053
0.033
0.021
0.079
0.082
0.048
-0.008
-0.019
-0.044
0.078
0.059
-0.052
0.010
-0.000
-0.060
-0.004
-0.049
-0.055
0.126
-0.005
0.008
0.004
0.014
0.054
-0.068
0.047
0.009
0.107
-0.050
-0.001
0.166
-0.046
-0.016
-0.070
0.130
0.106
-0.061
-0.009
0.073
-0.009
0.024
0.025
0.002
0.103
0.134
-0.086
-0.013
0.028
-0.022
-0.050
0.074
0.114
-0.061
0.123
0.091
0.004
-0.083
-0.154
0.096
0.202
0.014
-0.012
-0.000
-0.034
0.001
0.112
-0.032
0.048
-0.023
0.135
0.084
-0.073
-0.081
0.109
-0.088
0.082
0.029
-0.027
0.042
0.020
-0.050
0.070
-0.013
0.034
0.045
0.031
-0.027
0.000
0.075
0.004
-0.068
0.090
0.042
0.039
0.106
0.060
-0.095
-0.077
0.076
0.082
0.065
0.126
-0.049
0.048
-0.040
0.190
-0.167
0.149
0.027
0.063
-0.090
0.056
0.004
0.022
0.060
-0.000
-0.021
0.047
-0.111
0.067
0.060
0.122
0.060
-0.135
0.060
0.033
0.087
0.064
0.072
-0.125
0.153
0.099
-0.010
-0.013
0.071
-0.036
0.138
0.084
-0.021
-0.016
-0.033
0.037
0.004
0.023
0.021
-0.012
0.068
-0.039
0.119
-0.025
0.124
0.199
-0.074
-0.085
0.064
0.088
0.095
0.070
-0.064
-0.079
-0.027
0.079
0.202
0.041
-0.058
0.121
-0.017
-0.076
0.045
0.127
-0.075
-0.008
0.045
0.081
0.091
0.068
0.043
0.019
-0.026
0.037
0.139
-0.017
-0.030
0.047
-0.075
-0.141
0.125
0.028
0.042
-0.051
0.070
0.016
0.002
0.075
0.097
0.090
-0.081
-0.012
0.047
0.097
0.000
0.028
0.000
-0.060
0.103
-0.051
0.077
0.094
0.025
0.010
-0.102
0.050
0.010
0.075
-0.003
-0.050
-0.073
0.099
0.155
0.070
0.044
-0.068
-0.008
-0.021
0.084
-0.033
0.032
-0.011
0.026
0.004
0.090
-0.037
0.025
-0.065
0.029
0.062
0.063
-0.015
0.103
0.062
0.006
0.056
-0.069
0.093
0.040
0.100
0.075
-0.024
-0.093
0.068
0.173
-0.090
0.053
0.120
-0.152
0.011
0.045
-0.006
-0.009
0.038
0.106
-0.026
0.053
0.076
0.056
0.036
0.009
0.059
-0.014
0.041
0.057
-0.089
0.016
0.081
-0.023
0.030
0.064
0.083
0.060
0.131
-0.116
-0.044
0.101
-0.004
0.114
-0.099
-0.066
0.059
0.003
0.131
-0.004
-0.043
0.008
-0.051
0.129
0.078
0.030
-0.089
0.083
0.130
0.085
-0.062
0.054
0.084
-0.060
-0.052
0.104
0.049
-0.085
0.112
0.050
0.041
0.103
-0.053
0.018
0.041
-0.253
0.161
-0.060
-0.049
0.040
-0.062
0.147
0.025
-0.006
-0.016
-0.042
0.017
-0.063
0.137
-0.007
-0.029
0.028
0.082
0.013
-0.102
-0.006
0.115
0.158
-0.058
0.028
-0.023
0.041
-0.011
-0.008
0.059
0.074
-0.016
0.078
-0.029
-0.030
-0.026
0.037
0.074
0.048
0.005
0.091
-0.021
0.085
0.027
-0.103
0.053
0.115
0.006
-0.108
0.087
0.090
0.031
-0.153
-0.004
0.075
-0.028
-0.108
0.057
0.140
0.015
0.074
0.012
0.011
0.035
0.133
0.013
-0.106
0.001
0.083
0.081
-0.056
0.029
0.034
-0.023
0.056
-0.052
-0.132
0.134
0.069
-0.088
0.106
0.068
-0.011
0.098
0.022
-0.037
0.005
0.102
0.084
0.049
-0.024
0.085
0.037
-0.051
0.062
-0.010
0.073
0.115
-0.097
0.008
0.016
-0.028
0.103
-0.027
-0.038
-0.004
0.037
0.023
-0.045
-0.003
0.081
0.056
0.031
0.043
-0.017
-0.017
0.122
0.016
-0.117
0.009
0.055
0.150
0.104
-0.116
-0.135
0.074
0.002
-0.054
0.105
0.135
-0.157
-0.022
0.048
0.032
0.121
0.082
0.040
0.120
-0.074
-0.016
0.040
-0.065
0.049
0.062
-0.038
-0.059
0.101
0.042
-0.073
0.111
0.031
-0.004
0.006
-0.014
0.081
0.077
0.058
-0.059
0.080
0.179
0.029
-0.030
0.041
0.124
-0.047
-0.076
0.064
0.040
0.017
-0.100
0.031
0.081
-0.063
-0.075
0.070
0.015
0.004
0.169
0.116
-0.052
-0.100
-0.020
0.062
0.046
0.068
0.081
0.001
0.077
0.005
-0.035
0.103
-0.068
-0.027
0.169
0.085
-0.008
0.154
-0.037
-0.057
0.068
0.047
0.065
0.063
-0.025
0.035
-0.016
-0.022
0.040
0.110
-0.041
-0.035
0.040
0.035
0.037
0.012
0.032
0.040
0.134
-0.101
0.089
0.009
-0.040
0.076
-0.033
-0.026
0.049
0.155
0.035
-0.006
0.034
0.087
-0.071
-0.049
0.127
0.069
0.101
0.040
-0.114
0.073
-0.050
0.010
0.061
0.002
0.133
0.006
-0.011
-0.126
0.113
0.061
0.016
-0.014
0.014
0.048
0.097
0.001
-0.069
0.043
0.127
0.062
-0.041
0.056
0.090
0.087
-0.015
-0.051
0.025
0.009
0.135
0.091
0.057
0.098
0.113
-0.089
-0.022
0.017
0.075
0.063
-0.023
0.025
0.059
0.055
0.141
-0.035
-0.029
0.043
0.034
0.095
-0.005
0.062
0.001
-0.034
0.017
0.022
-0.025
0.089
0.029
0.054
0.063
0.090
0.061
-0.049
-0.029
0.105
0.036
-0.010
0.164
0.082
-0.010
-0.001
0.077
0.020
-0.002
0.194
-0.072
0.012
0.016
0.136
-0.029
0.155
0.028
-0.098
0.037
0.147
0.113
-0.035
0.034
0.069
-0.087
-0.081
0.151
-0.010
-0.017
0.041
0.036
0.061
-0.007
-0.037
-0.057
0.060
0.083
0.071
0.028
-0.085
0.037
-0.085
0.041
0.069
0.010
0.041
0.057
0.038
-0.032
0.102
-0.022
-0.033
0.000
-0.006
0.071
0.056
0.046
-0.116
0.062
-0.041
0.037
-0.045
0.177
-0.046
0.007
-0.006
0.050
0.032
0.050
0.045
-0.064
0.035
0.044
0.048
0.034
0.102
0.027
-0.003
0.009
-0.019
0.152
-0.029
-0.073
0.058
-0.053
-0.008
0.010
-0.072
0.195
-0.041
0.073
-0.132
-0.087
0.025
-0.024
0.098
0.139
-0.019
-0.045
0.013
0.072
-0.050
0.057
0.029
-0.022
0.035
0.071
0.060
0.032
0.091
0.022
0.061
0.121
0.115
0.005
-0.033
0.032
-0.049
-0.027
0.019
0.052
0.047
0.037
0.057
0.038
-0.075
-0.020
0.034
0.028
0.035
-0.008
0.106
0.061
-0.061
-0.019
0.136
0.097
-0.129
0.093
0.009
0.058
0.009
-0.045
0.034
0.067
0.102
0.062
0.021
-0.046
0.096
0.098
0.013
0.121
-0.015
-0.058
-0.045
-0.052
0.088
0.170
-0.066
-0.037
0.094
0.071
-0.126
-0.035
0.024
0.166
0.011
0.105
0.162
-0.015
-0.121
-0.020
0.056
0.034
0.092
-0.027
0.060
0.144
0.090
0.054
-0.134
0.020
-0.054
0.007
0.198
0.087
0.007
0.013
-0.093
0.104
0.023
-0.028
0.054
-0.018
0.055
0.063
0.145
0.064
-0.004
-0.018
-0.064
-0.013
0.104
-0.014
-0.025
0.175
0.164
-0.091
-0.134
0.055
0.087
-0.055
0.052
0.220
0.098
-0.045
-0.188
0.108
-0.013
-0.015
0.032
0.062
0.100
-0.043
0.018
0.059
0.051
-0.033
0.008
-0.027
-0.003
0.008
0.138
-0.078
0.092
0.021
0.132
0.063
0.014
-0.039
-0.014
-0.025
0.058
0.044
0.035
0.066
-0.044
-0.080
-0.068
0.084
0.055
0.028
-0.152
0.008
0.042
0.064
0.065
0.017
0.018
0.073
-0.061
-0.072
0.116
0.042
-0.084
0.012
0.111
-0.101
0.159
0.011
-0.003
-0.026
0.135
-0.050
0.057
-0.023
0.073
-0.035
-0.003
0.071
-0.046
0.013
0.111
-0.075
-0.024
0.066
-0.030
0.093
0.034
-0.032
0.080
-0.090
0.018
-0.019
0.039
0.013
0.001
-0.027
0.053
0.115
0.009
0.066
0.068
0.043
-0.003
0.011
0.122
-0.018
-0.027
0.051
0.010
0.082
0.085
-0.087
0.036
-0.033
0.072
0.163
0.038
-0.023
0.053
-0.014
-0.043
0.036
0.075
0.018
0.041
0.055
-0.116
0.105
0.107
0.039
-0.016
-0.054
0.011
0.084
0.063
0.121
0.044
-0.080
0.061
-0.045
-0.036
0.112
0.153
-0.087
0.145
-0.002
-0.034
0.031
0.140
0.069
0.054
-0.001
-0.030
0.036
0.071
-0.004
-0.018
0.065
-0.028
0.043
-0.007
-0.021
0.029
0.014
-0.020
-0.073
0.094
0.060
0.048
0.078
0.044
-0.033
0.102
0.096
-0.047
0.000
0.030
-0.099
-0.052
-0.019
0.040
0.107
0.025
0.107
-0.011
-0.013
-0.042
0.041
0.054
-0.070
0.010
0.101
0.019
0.069
-0.002
-0.042
0.110
0.041
-0.091
-0.135
0.111
-0.005
0.001
0.059
0.134
-0.008
-0.007
-0.044
0.050
0.004
0.020
0.054
-0.050
0.047
-0.008
0.048
-0.002
-0.127
0.096
0.020
-0.061
-0.010
-0.027
0.012
0.019
0.052
0.015
-0.056
-0.002
0.018
-0.030
0.090
0.168
-0.061
-0.009
0.034
-0.026
0.073
0.020
-0.028
-0.053
0.127
0.038
0.049
0.031
0.023
0.066
0.063
-0.004
-0.027
-0.019
0.104
0.038
-0.080
0.113
0.022
-0.040
0.011
0.061
0.113
0.047
0.015
-0.056
-0.043
0.162
0.009
-0.083
-0.011
0.021
-0.018
0.094
0.072
-0.079
0.028
0.048
0.024
0.096
0.032
0.021
-0.049
-0.040
-0.130
0.049
0.064
0.144
0.115
0.010
0.036
-0.007
-0.005
0.069
-0.004
0.028
0.031
0.049
0.129
0.032
0.071
-0.038
0.019
0.036
0.060
-0.054
0.029
-0.010
0.006
-0.011
0.096
0.101
0.000
-0.052
0.105
0.007
0.028
0.065
-0.098
0.011
0.071
-0.014
-0.002
0.023
0.101
0.055
0.056
-0.091
-0.046
0.052
-0.004
0.037
-0.033
0.072
0.071
0.038
0.032
-0.096
-0.050
0.100
-0.044
0.004
0.027
0.077
0.065
-0.007
0.030
-0.034
0.089
0.107
-0.016
-0.079
0.054
0.095
-0.040
0.089
-0.029
-0.017
0.107
-0.006
0.073
-0.160
0.218
-0.107
0.095
0.040
-0.042
0.191
-0.014
0.056
-0.022
-0.059
-0.045
-0.048
0.123
0.148
-0.037
-0.051
0.030
0.017
0.096
-0.076
-0.060
0.036
-0.144
0.057
0.030
-0.043
0.020
0.208
-0.014
-0.120
0.068
-0.004
-0.023
0.074
0.063
0.082
0.001
0.028
0.150
0.041
0.011
-0.116
0.068
0.007
-0.096
-0.028
0.033
0.002
-0.091
0.077
0.060
-0.050
0.072
-0.024
0.024
0.024
0.053
0.132
-0.090
0.041
-0.016
-0.052
0.028
-0.004
0.074
-0.035
-0.122
0.023
0.010
0.100
-0.020
0.028
0.049
0.053
-0.113
0.031
-0.079
0.013
0.095
0.073
0.009
-0.054
0.027
0.067
0.068
-0.097
0.101
0.053
0.014
-0.026
0.036
-0.150
0.015
-0.050
0.111
0.101
-0.118
0.031
0.035
0.023
-0.099
0.079
0.062
-0.019
0.080
-0.070
0.008
0.154
0.005
-0.058
0.129
-0.040
-0.041
0.024
0.094
0.076
0.067
0.153
-0.081
0.015
-0.043
-0.039
0.028
0.091
0.126
-0.050
0.028
0.061
0.094
0.035
0.134
-0.053
-0.077
-0.011
0.011
-0.027
-0.015
0.039
0.037
0.016
0.102
0.049
0.127
-0.098
-0.065
0.127
0.017
0.077
-0.016
0.096
-0.022
0.132
-0.068
0.018
-0.122
-0.008
0.171
0.147
-0.041
-0.044
0.070
0.038
-0.007
0.108
0.062
-0.048
-0.045
0.014
0.178
-0.009
0.080
0.100
-0.068
-0.045
0.014
0.056
-0.132
0.125
-0.011
0.142
0.110
-0.020
0.022
-0.003
0.015
0.086
0.058
0.055
-0.015
-0.035
0.077
0.016
0.019
-0.003
0.006
0.100
0.019
0.028
0.085
-0.036
-0.003
0.008
0.018
-0.023
0.096
0.080
0.008
-0.062
-0.047
-0.016
-0.034
-0.016
-0.063
0.028
0.106
0.096
0.066
-0.019
-0.067
0.097
0.029
0.068
0.006
0.130
0.142
-0.054
0.061
0.049
0.065
0.022
-0.066
0.038
0.005
0.037
0.055
-0.020
0.075
0.173
-0.147
-0.060
0.170
-0.049
0.055
-0.093
-0.046
-0.045
0.062
0.105
0.090
0.031
0.066
0.095
-0.011
0.075
-0.087
0.094
0.084
0.023
-0.005
0.008
0.058
0.069
-0.015
0.059
-0.040
0.029
-0.021
-0.005
0.134
-0.040
0.031
-0.037
0.087
0.082
0.014
0.042
0.065
0.067
0.024
-0.048
0.113
-0.048
0.004
0.065
0.029
-0.024
-0.094
0.137
0.121
-0.108
0.012
0.107
0.120
0.074
0.023
0.069
0.019
0.009
0.045
0.080
0.153
-0.075
-0.005
0.017
0.075
-0.061
0.009
0.162
0.166
-0.084
-0.030
0.045
0.024
0.063
0.022
0.054
0.065
-0.007
0.093
-0.096
-0.094
0.022
0.081
-0.035
0.038
0.088
0.070
0.036
0.047
-0.136
0.008
0.114
0.022
-0.025
-0.029
0.145
0.089
-0.004
0.014
0.047
0.068
-0.099
0.052
0.160
0.017
0.050
-0.029
-0.011
0.076
0.095
-0.109
0.027
0.139
0.073
0.037
-0.149
0.072
0.021
0.009
0.068
-0.082
0.099
0.039
-0.063
-0.048
-0.024
0.062
0.051
0.040
0.055
-0.058
0.086
0.103
-0.006
-0.035
-0.078
0.017
0.097
0.047
0.099
0.033
0.030
-0.063
0.018
0.069
0.025
0.080
-0.013
0.107
-0.010
-0.030
0.042
0.009
0.028
0.073
0.031
-0.057
-0.052
0.048
0.016
-0.036
0.069
-0.022
-0.036
0.095
-0.040
0.005
-0.012
0.049
0.103
-0.039
-0.031
0.003
0.064
0.152
0.029
0.075
-0.033
0.023
-0.024
0.111
0.026
0.100
-0.016
-0.002
-0.003
-0.044
-0.005
0.132
-0.042
-0.047
-0.078
0.111
0.084
0.035
-0.011
0.028
0.067
0.067
-0.107
0.118
-0.041
-0.008
0.108
-0.040
0.114
-0.034
0.006
0.110
-0.073
0.027
-0.016
-0.051
0.018
-0.077
0.043
-0.060
0.054
0.090
0.009
0.044
0.058
0.115
0.036
0.034
0.114
-0.040
0.021
-0.097
-0.008
0.158
0.083
0.039
-0.041
-0.044
-0.040
0.151
-0.031
-0.043
0.051
-0.016
0.008
0.051
0.059
-0.041
0.041
0.043
-0.055
0.001
0.046
0.046
0.025
-0.101
0.058
0.040
-0.053
-0.037
0.135
0.097
0.073
0.125
-0.059
0.052
-0.018
0.002
0.050
0.094
-0.019
-0.014
-0.006
0.154
0.049
-0.025
-0.074
-0.032
0.047
0.109
0.005
-0.041
0.139
0.059
0.035
0.062
0.101
0.022
-0.034
-0.057
0.035
-0.018
0.045
0.064
-0.028
0.039
-0.102
0.006
0.095
-0.020
0.037
0.057
0.110
-0.008
-0.018
-0.042
-0.042
0.099
0.089
0.041
0.045
-0.070
0.054
0.037
-0.014
-0.026
-0.084
0.076
-0.014
0.167
0.000
0.096
-0.040
-0.011
0.116
0.125
-0.006
-0.019
0.067
-0.032
0.006
0.018
0.080
-0.030
0.031
-0.055
-0.075
0.061
-0.043
-0.029
0.065
-0.045
0.043
-0.001
-0.061
-0.071
0.107
0.123
-0.002
-0.006
0.066
0.076
-0.104
-0.019
0.145
0.071
0.044
-0.078
0.122
0.007
0.017
-0.096
0.034
0.043
0.161
-0.054
0.019
-0.002
0.014
0.073
-0.137
0.056
-0.093
-0.010
-0.020
0.038
-0.088
-0.014
-0.237
-0.365
-0.619
-0.913
-3.001
-1.590
-0.826
-0.643
-1.006
-0.820
-0.612
-0.618
-0.746
-1.336
-2.744
-2.316
-0.529
1.188
2.097
1.990
1.568
1.219
1.492
1.412
1.164
1.722
2.226
2.064
1.753
1.487
1.125
0.878
0.489
0.352
-0.127
-0.182
-0.472
-0.659
-1.069
-1.196
-1.330
-1.323
-1.154
-1.158
-0.948
-0.874
-0.771
-0.688
-0.389
-0.346
-0.281
-0.054
-0.173
-0.063
0.106
0.144
0.197
0.279
0.276
0.383
0.323
0.480
0.425
0.637
0.673
0.556
0.597
0.749
0.602
0.674
0.802
0.617
0.610
0.734
0.621
0.596
0.625
0.550
0.533
0.437
0.433
0.400
0.416
0.386
0.378
0.309
0.338
0.183
0.097
0.233
-0.024
0.001
0.069
-0.071
0.090
-0.047
-0.158
-0.123
-0.183
-0.184
-0.212
-0.221
-0.194
-0.206
-0.171
-0.319
-0.284
-0.399
-0.292
-0.190
-0.257
-0.315
-0.330
-0.317
-0.209
-0.198
-0.219
-0.285
-0.141
-0.065
-0.306
-0.172
-0.052
-0.103
-0.170
-0.045
-0.055
-0.050
-0.189
-0.033
-0.090
0.069
0.074
0.082
0.096
-0.059
0.007
0.155
0.035
0.047
0.166
0.048
0.112
0.126
-0.036
0.089
0.166
0.191
-0.018
0.001
0.092
0.120
0.120
-0.032
0.008
0.081
0.105
0.048
0.061
0.077
-0.004
0.117
0.030
0.071
0.091
-0.086
-0.100
-0.039
0.117
0.074
-0.159
0.046
0.105
-0.068
0.076
0.064
-0.041
0.011
0.008
0.093
0.113
-0.040
0.181
-0.091
0.029
0.120
-0.009
0.021
0.091
0.104
0.058
0.097
0.130
0.104
-0.017
0.098
0.135
0.206
0.051
0.064
0.164
0.170
0.102
0.018
0.161
0.055
0.129
0.078
0.039
0.094
-0.016
0.102
0.072
0.057
0.043
0.002
0.064
-0.023
-0.083
-0.009
0.059
0.026
0.024
-0.044
0.008
-0.171
-0.019
0.047
-0.014
-0.070
-0.136
-0.120
0.021
-0.183
-0.112
-0.154
0.014
-0.074
-0.121
-0.034
0.025
0.007
-0.074
-0.054
-0.043
-0.020
-0.053
0.017
-0.043
-0.026
0.014
-0.004
-0.103
0.002
0.041
0.014
0.053
0.077
0.107
0.044
-0.130
0.047
0.002
-0.022
0.095
0.106
0.108
0.132
0.081
0.006
0.108
0.050
0.129
0.023
0.031
0.046
0.212
0.102
0.082
0.034
0.028
0.072
0.071
0.087
0.200
0.044
0.066
0.041
-0.030
0.066
0.154
0.133
-0.037
0.049
0.040
-0.040
0.001
0.165
0.039
-0.079
0.046
0.036
0.061
-0.027
-0.004
0.032
-0.067
-0.052
0.093
-0.057
-0.028
0.016
-0.101
-0.070
-0.064
0.022
-0.069
-0.018
0.011
-0.084
-0.074
-0.077
0.079
-0.082
-0.134
-0.049
0.070
-0.029
0.037
0.044
-0.036
0.053
0.062
-0.113
-0.080
-0.019
0.126
-0.124
0.131
0.090
-0.052
-0.045
-0.015
-0.002
0.131
-0.008
0.078
-0.012
0.168
0.010
0.014
0.046
-0.074
0.054
0.050
-0.023
0.170
-0.019
0.044
0.070
0.043
0.108
-0.016
0.039
-0.056
0.059
0.115
0.072
0.076
0.149
-0.097
-0.119
0.066
0.151
0.101
-0.025
-0.003
0.038
-0.031
-0.048
-0.030
0.004
0.068
0.034
-0.088
0.104
0.108
0.149
-0.051
0.023
-0.051
-0.062
0.020
0.036
-0.060
-0.058
-0.073
-0.014
0.120
-0.025
0.056
0.043
0.056
0.087
-0.039
-0.079
0.039
0.071
-0.013
-0.014
0.011
0.095
-0.004
-0.004
-0.024
-0.012
-0.031
0.058
0.084
0.034
0.009
-0.190
0.120
0.062
0.125
-0.037
-0.050
-0.047
-0.098
0.159
0.065
0.013
-0.040
0.057
0.073
-0.037
0.044
0.007
0.137
-0.083
-0.027
0.024
0.100
0.026
0.022
0.103
0.053
0.079
0.102
-0.033
-0.042
0.036
0.022
0.018
0.082
0.116
0.074
0.049
-0.038
-0.031
-0.029
0.060
0.018
0.037
0.040
-0.052
0.001
0.114
0.075
0.083
-0.005
0.033
0.007
0.034
0.012
0.069
0.065
0.047
0.071
-0.041
0.147
-0.003
-0.006
0.019
0.022
-0.088
0.149
-0.045
0.030
0.023
0.004
-0.023
0.040
-0.092
0.016
0.040
-0.011
0.015
0.103
-0.011
-0.061
0.075
0.064
0.039
-0.003
0.083
0.077
-0.069
0.052
0.085
0.025
0.065
-0.141
0.110
0.075
-0.128
0.026
0.117
0.074
-0.064
-0.067
-0.056
0.004
0.056
-0.045
0.046
0.036
-0.001
-0.103
-0.059
0.164
0.097
0.090
-0.147
-0.078
0.146
0.109
-0.002
-0.022
-0.094
0.055
0.107
0.005
0.030
0.115
0.060
-0.061
-0.030
0.073
0.068
0.015
0.042
0.045
-0.063
-0.023
0.081
0.030
0.075
0.029
-0.047
0.017
0.050
0.053
-0.040
-0.004
-0.002
0.147
0.067
0.001
0.042
0.089
-0.046
0.010
0.025
0.018
0.110
0.016
0.054
0.005
-0.049
0.020
0.164
-0.020
0.067
0.039
-0.028
-0.026
0.002
-0.026
0.052
0.099
-0.041
0.011
-0.049
-0.034
-0.037
0.093
0.075
0.119
-0.001
0.130
0.064
-0.027
-0.007
0.029
0.062
-0.037
-0.047
0.087
0.176
-0.004
-0.013
0.122
-0.096
-0.006
0.025
0.005
0.011
0.156
-0.026
0.064
0.118
0.002
0.002
0.025
0.015
0.101
-0.119
0.065
-0.050
0.108
-0.011
-0.019
0.056
0.001
-0.040
-0.021
0.076
0.029
0.041
0.084
0.049
0.095
-0.007
-0.045
0.023
0.087
-0.021
0.148
0.070
0.027
0.005
0.149
0.082
-0.042
-0.004
0.050
-0.060
-0.002
0.044
0.029
-0.023
0.067
-0.082
0.011
-0.036
0.094
-0.036
0.069
0.031
0.060
0.068
-0.045
-0.105
0.032
0.071
0.041
0.069
0.042
0.006
0.023
0.075
-0.013
0.063
0.062
-0.038
0.047
0.077
0.009
0.019
-0.043
-0.094
0.052
0.012
0.043
-0.043
0.095
0.047
-0.064
-0.028
0.087
-0.033
0.179
0.010
0.047
-0.028
-0.019
0.060
-0.080
0.059
0.024
-0.096
-0.060
0.043
0.017
0.067
-0.008
-0.017
0.015
-0.005
-0.089
0.068
0.096
-0.007
0.037
0.060
-0.092
-0.026
0.113
0.104
0.136
0.041
0.027
-0.016
0.106
0.035
0.019
-0.004
-0.091
-0.024
0.088
-0.021
0.069
-0.058
-0.009
-0.047
0.008
0.081
0.077
-0.236
0.140
0.018
-0.006
0.117
0.048
0.045
0.006
-0.004
0.013
0.095
-0.091
0.034
0.149
0.034
-0.070
-0.018
0.088
0.057
-0.098
-0.020
0.138
-0.020
0.009
0.014
0.060
-0.003
0.021
-0.049
0.152
0.063
-0.016
0.001
-0.010
0.099
0.025
-0.082
0.053
-0.005
-0.033
0.171
0.070
0.035
-0.026
-0.067
-0.006
0.072
0.029
-0.108
0.095
0.034
0.036
-0.120
0.027
0.090
-0.091
-0.049
0.074
0.002
0.102
-0.005
0.081
0.016
-0.032
-0.038
-0.030
0.107
0.097
-0.031
0.015
-0.018
-0.037
0.056
0.103
0.118
-0.051
-0.108
0.080
0.110
0.023
0.081
-0.023
0.017
-0.092
-0.050
-0.025
-0.036
0.059
0.090
0.024
0.036
0.006
0.076
0.029
0.037
0.041
-0.100
-0.100
0.027
0.032
0.017
0.036
-0.071
0.151
0.015
-0.000
0.152
0.033
-0.014
0.015
-0.078
-0.018
0.094
0.016
0.114
0.010
-0.064
-0.103
-0.036
0.029
0.128
0.036
-0.058
-0.014
-0.055
-0.035
0.227
-0.017
0.078
0.023
-0.034
0.021
-0.014
-0.033
-0.002
-0.069
0.106
0.114
-0.059
0.023
0.116
-0.078
0.108
0.019
-0.035
0.057
-0.024
0.039
0.103
0.042
0.004
0.082
0.075
-0.103
-0.018
-0.150
0.017
-0.020
0.012
-0.027
0.017
0.157
0.056
0.007
0.131
-0.054
0.080
-0.166
0.022
0.091
0.048
-0.022
0.074
0.054
0.104
-0.052
-0.031
-0.058
-0.003
-0.007
0.098
0.164
-0.097
-0.065
0.034
0.024
-0.010
-0.012
-0.058
0.078
-0.038
-0.008
0.107
0.096
0.036
0.001
0.064
-0.170
0.028
-0.007
0.076
0.117
-0.018
-0.054
0.057
0.005
0.078
0.096
-0.040
-0.008
-0.019
0.007
