-1.559
-0.177
0.540
0.765
0.461
-0.060
-0.171
-0.221
-0.240
0.186
0.320
-0.116
0.242
0.349
0.332
0.331
0.343
0.300
0.140
0.132
0.095
0.042
-0.025
-0.021
-0.050
-1.369
-2.660
-0.013
1.556
1.204
0.774
0.269
-0.264
-0.406
-0.589
-0.253
0.141
0.534
0.630
0.753
0.152
0.672
0.723
0.533
0.003
-1.187
-2.049
0.240
0.635
0.232
-0.270
-0.480
-0.442
-0.690
-2.058
-0.406
0.975
1.251
1.221
0.603
0.297
0.236
0.236
0.219
0.327
0.442
0.482
0.533
0.514
0.443
-0.865
-1.352
-1.330
1.119
1.568
0.726
0.108
-0.574
-0.785
-0.699
-0.337
0.094
0.299
0.338
0.405
0.529
0.466
0.183
0.245
0.070
0.021
-0.087
-0.187
-0.184
-0.174
-0.108
-0.128
-0.171
-0.018
0.175
-0.069
0.168
-2.364
-2.104
1.714
3.253
2.387
1.176
-0.062
-0.779
-0.948
-0.894
-0.199
-2.139
-0.549
1.609
2.610
1.918
1.139
0.579
0.009
-0.389
-0.412
-0.446
0.085
-0.709
-0.484
0.042
0.113
0.294
0.241
0.299
0.179
0.075
0.451
-0.055
0.040
-0.289
-0.056
0.085
0.059
0.155
0.179
0.036
0.110
0.144
0.071
0.098
0.268
0.597
-0.370
-0.470
-0.119
0.291
0.393
0.614
0.737
-0.122
-0.836
-0.207
0.312
0.284
0.231
0.062
0.336
0.102
-0.239
0.144
0.026
0.096
0.108
0.155
0.120
0.206
-0.005
0.042
0.401
0.285
-0.000
-0.143
-0.178
0.046
-0.061
-0.154
0.132
0.093
-0.076
-0.411
-0.049
0.243
-0.046
-0.096
-0.182
-0.168
-0.006
0.174
0.208
0.019
-0.305
-0.592
-0.075
0.083
-0.065
-0.019
0.264
0.036
-0.126
-0.149
-0.483
-0.356
-0.058
0.109
0.213
0.308
0.308
0.118
0.304
-0.148
0.109
0.392
0.122
-0.331
-1.216
-0.159
0.545
0.663
0.215
-0.086
0.033
-0.158
-0.137
0.046
-0.000
0.178
0.220
0.224
0.198
0.196
0.198
0.194
-0.012
0.095
-0.241
0.051
0.080
-0.197
-0.161
-0.099
-0.147
-0.201
0.091
0.126
-0.106
-0.160
0.125
0.047
-0.011
-0.044
-0.078
-0.005
0.054
0.174
-0.152
0.050
0.041
0.110
-0.071
0.084
0.109
0.131
0.158
0.081
0.066
0.095
-0.016
0.086
0.298
0.012
-0.088
0.150
-0.024
0.120
0.196
0.043
0.180
0.091
0.041
-0.031
0.035
0.057
-0.025
0.180
-0.002
0.035
0.036
-0.046
-0.031
0.004
0.149
0.095
-0.005
0.084
-0.092
-0.022
0.030
-0.083
0.114
0.045
-0.207
-0.186
0.169
0.078
-0.043
0.018
-0.128
0.142
-0.002
0.082
0.004
0.050
-0.003
-0.023
0.035
0.012
0.032
0.011
0.050
0.004
-0.005
0.053
-0.070
-0.080
0.106
-0.001
-0.029
-0.015
0.107
-0.103
-0.075
0.093
0.118
0.085
-0.060
0.093
0.168
-0.058
0.041
0.049
0.056
0.045
-0.045
0.066
0.169
0.072
-0.226
-0.014
0.197
-0.014
-0.053
0.040
-0.034
0.027
0.070
0.033
0.060
-0.018
0.034
0.013
-0.018
0.072
0.033
-0.017
0.122
-0.018
0.124
0.050
-0.022
0.051
-0.100
-0.104
0.028
-0.009
0.132
0.103
0.011
-0.052
-0.006
-0.011
-0.047
0.019
-0.102
-0.072
0.008
0.062
0.011
0.055
0.048
-0.035
-0.015
-0.020
0.079
0.142
-0.106
-0.008
0.124
0.104
0.038
-0.020
0.032
0.160
-0.055
0.006
-0.030
0.075
-0.058
0.006
0.026
0.104
-0.010
0.015
-0.005
0.048
0.008
-0.059
0.102
0.078
0.062
-0.048
-0.050
0.023
0.071
0.032
-0.016
0.037
0.109
-0.151
0.037
0.091
-0.026
0.041
0.001
-0.075
-0.041
-0.006
-0.042
-0.001
0.060
-0.011
-0.010
0.060
0.051
0.095
0.168
-0.137
0.071
0.005
-0.086
0.080
0.095
-0.014
0.060
0.028
-0.074
0.039
0.085
0.042
0.120
-0.048
-0.061
-0.003
0.155
0.153
0.160
-0.118
0.004
-0.119
-0.011
0.020
0.022
0.050
-0.011
0.039
0.073
-0.089
-0.175
-0.012
0.091
-0.126
-0.002
0.012
0.144
0.116
0.173
-0.013
-0.051
-0.021
-0.019
0.158
0.090
0.042
0.020
0.027
0.149
-0.013
0.073
-0.009
0.042
-0.112
0.048
-0.072
-0.107
0.022
0.114
0.236
0.054
-0.127
0.085
0.002
-0.150
0.043
0.179
0.065
0.174
0.081
-0.237
-0.162
0.022
0.161
0.051
0.079
-0.007
-0.074
-0.181
-0.048
0.040
-0.053
0.155
0.018
0.001
0.011
0.076
0.104
-0.011
0.080
-0.056
0.120
0.043
-0.047
0.039
0.107
0.008
-0.005
0.030
0.020
0.051
-0.081
0.130
0.055
-0.013
-0.077
0.023
0.091
0.044
0.038
-0.054
-0.069
0.088
0.044
-0.006
-0.055
0.131
0.030
0.094
-0.004
0.057
0.040
0.045
0.006
0.014
0.030
-0.036
0.101
0.072
-0.006
-0.024
0.011
0.015
0.029
0.009
0.004
-0.049
0.040
0.023
-0.018
-0.004
0.051
0.024
-0.012
0.051
0.037
0.037
0.077
-0.107
0.027
-0.029
0.096
0.123
0.055
-0.043
-0.071
0.053
0.156
0.011
0.067
-0.021
0.047
0.043
-0.017
0.013
0.036
0.073
-0.090
0.033
-0.012
0.101
-0.097
0.141
0.050
0.002
-0.036
-0.091
0.060
0.034
-0.049
0.011
0.017
0.077
-0.059
-0.023
0.079
0.071
0.001
-0.081
0.068
0.100
0.004
-0.075
0.100
0.077
0.128
0.109
-0.023
-0.117
0.080
0.041
0.004
-0.026
-0.007
0.070
-0.024
0.010
0.120
-0.001
0.041
-0.014
0.032
0.021
-0.017
-0.028
0.105
0.098
0.013
-0.015
0.013
0.071
-0.036
-0.026
-0.008
0.052
-0.008
0.110
-0.067
0.021
-0.021
0.030
0.087
-0.003
-0.038
0.031
0.065
0.055
-0.030
-0.010
0.163
0.021
-0.089
0.020
0.077
0.050
-0.004
0.015
-0.058
-0.063
0.053
0.028
0.089
-0.073
0.014
-0.015
0.077
0.016
0.019
0.051
0.008
0.010
0.035
-0.018
0.003
0.103
0.072
0.077
0.003
-0.129
0.028
0.036
0.075
0.048
-0.026
-0.083
0.053
-0.060
0.074
0.184
0.007
-0.069
0.104
0.068
0.024
-0.033
-0.134
0.075
0.014
-0.049
0.102
0.029
-0.042
-0.039
0.028
0.036
0.067
0.034
0.053
-0.023
0.059
0.025
-0.015
-0.015
0.036
-0.023
0.138
0.002
0.043
0.036
0.046
-0.084
0.072
0.016
0.059
0.024
0.069
0.105
0.077
-0.203
-0.033
0.133
0.135
0.035
0.082
0.048
-0.081
-0.024
0.049
-0.033
0.058
0.004
0.158
-0.033
-0.090
0.056
-0.022
-0.030
-0.012
0.007
0.162
-0.003
-0.053
-0.021
0.090
-0.030
-0.061
0.063
0.006
0.017
-0.003
0.036
0.020
0.065
0.039
-0.034
-0.023
0.039
0.015
-0.008
0.120
0.034
0.003
-0.038
0.038
0.105
0.005
-0.020
0.050
0.032
-0.006
0.046
-0.014
-0.072
0.054
0.003
-0.041
0.025
0.044
-0.004
0.040
0.073
-0.021
0.019
-0.151
0.109
-0.002
0.041
0.059
0.103
-0.040
-0.054
-0.037
-0.033
0.153
0.092
-0.006
-0.079
0.068
-0.111
0.074
0.006
0.036
-0.048
-0.019
0.055
-0.020
-0.006
0.019
0.032
0.008
0.065
0.091
-0.058
0.022
0.057
-0.090
0.065
0.129
0.109
-0.037
-0.044
0.059
0.118
-0.081
-0.084
0.088
-0.017
0.151
-0.028
0.053
-0.049
-0.006
-0.010
0.024
0.021
0.014
0.102
0.009
0.013
-0.004
-0.026
0.071
0.108
-0.046
0.021
-0.099
-0.093
0.027
0.164
0.137
-0.024
-0.134
-0.010
0.088
0.020
-0.062
0.085
0.007
0.068
-0.050
0.038
-0.034
0.052
-0.030
0.096
0.077
0.037
-0.073
0.037
0.036
0.058
0.080
-0.029
-0.039
-0.051
0.034
0.077
0.028
0.037
0.094
0.017
-0.085
0.071
0.136
-0.078
-0.065
0.035
0.096
-0.062
0.005
0.113
0.020
0.044
-0.017
-0.054
0.056
0.042
-0.063
0.078
-0.067
0.148
-0.004
-0.062
0.080
-0.009
-0.033
0.092
0.040
-0.032
0.051
0.044
0.071
0.057
-0.073
0.004
0.045
0.037
-0.005
0.112
0.003
0.011
-0.007
-0.106
0.094
0.008
-0.050
-0.008
0.003
0.001
0.054
0.099
-0.165
0.100
0.038
0.004
-0.041
0.038
0.037
-0.043
-0.057
-0.050
0.053
0.079
0.103
0.023
0.037
-0.074
-0.006
0.066
0.154
-0.070
-0.014
-0.013
0.079
0.104
0.064
-0.076
0.028
-0.075
0.045
0.073
-0.105
0.034
0.024
-0.014
-0.053
0.002
0.009
0.047
0.077
-0.046
0.045
0.071
-0.033
0.045
-0.020
-0.029
0.060
0.040
-0.023
0.112
0.095
-0.058
-0.051
0.127
0.073
-0.055
-0.054
-0.050
-0.013
0.052
-0.032
0.074
0.137
0.011
-0.029
-0.003
0.113
0.073
-0.007
-0.107
0.001
0.055
-0.114
0.037
0.088
0.026
0.077
0.048
-0.075
-0.048
-0.065
0.156
0.023
0.033
0.050
0.098
0.092
-0.137
-0.105
0.087
0.036
0.102
-0.099
0.049
0.046
0.116
-0.068
0.026
0.026
0.028
-0.045
0.067
-0.009
-0.063
-0.002
0.103
-0.056
-0.029
0.022
-0.035
0.106
-0.052
0.083
0.087
0.001
-0.029
-0.075
-0.020
0.072
-0.135
0.063
0.154
-0.021
0.030
-0.017
0.017
0.045
-0.020
-0.059
0.017
-0.017
-0.036
-0.064
0.183
-0.020
0.088
0.052
-0.064
0.096
-0.031
0.092
0.008
0.025
-0.028
0.108
-0.116
0.081
-0.019
0.118
-0.039
-0.052
0.007
0.013
0.043
0.082
-0.063
0.032
0.020
0.065
-0.036
0.057
-0.021
0.031
0.020
-0.015
-0.093
0.029
0.061
-0.007
0.076
0.052
-0.028
0.003
0.075
0.036
-0.005
-0.083
-0.009
0.002
0.105
0.083
-0.059
0.091
-0.003
0.090
0.012
0.089
0.015
0.051
-0.052
-0.001
0.161
0.040
-0.049
-0.008
-0.075
0.096
-0.010
0.084
-0.026
0.036
-0.079
0.064
0.077
0.005
0.012
0.030
0.036
0.047
0.050
0.002
0.006
0.087
-0.027
0.091
0.043
-0.075
0.001
0.024
0.034
0.084
-0.018
-0.074
0.054
0.032
0.084
0.058
0.129
-0.066
0.011
0.133
0.068
-0.004
0.049
0.044
-0.002
0.054
0.006
0.107
0.048
0.001
0.037
0.095
-0.108
-0.034
-0.038
0.165
-0.013
-0.101
0.067
0.101
0.086
0.014
0.115
0.014
-0.076
0.069
-0.016
0.135
0.044
0.234
0.401
-0.116
-0.556
0.238
0.475
0.537
0.287
0.134
-0.459
-0.130
0.313
0.231
0.340
0.079
-2.500
-1.375
0.617
1.674
1.216
0.204
-0.273
-0.357
-0.344
-0.296
0.107
-0.116
-0.529
0.071
0.466
-0.633
-0.010
0.681
0.704
0.389
-0.009
-0.519
-0.769
-0.858
-0.493
0.072
0.403
0.635
0.365
0.228
0.177
0.229
0.194
0.099
-0.016
0.012
0.042
0.227
0.334
-0.516
-0.347
0.443
0.807
0.676
0.393
0.180
0.150
-2.866
-1.260
0.534
1.033
0.744
0.203
-0.223
-0.534
-0.570
-0.388
-0.316
-0.203
-0.071
0.245
0.292
0.422
0.326
0.183
0.221
0.167
1.030
1.456
1.032
0.637
0.249
0.037
-0.273
-1.024
0.665
1.225
1.515
1.008
0.423
-2.351
-3.994
-0.190
3.016
3.023
1.388
-0.432
-1.544
-1.870
-1.516
-0.880
-0.121
0.609
1.216
1.565
1.857
1.230
1.053
0.887
0.564
0.368
0.132
-0.247
-0.240
-0.206
-0.278
-0.210
-0.125
-0.116
0.111
0.252
0.211
0.343
0.261
0.243
0.290
0.339
0.265
0.152
0.246
0.202
0.275
0.047
0.276
0.076
0.162
0.180
0.073
-0.056
0.182
0.169
0.546
1.733
1.550
-1.071
-2.400
-0.320
1.251
1.880
1.384
0.327
-1.224
-2.174
-0.230
1.358
1.731
-2.032
-2.289
-0.457
0.796
0.992
0.399
0.039
-0.109
-0.303
-0.209
0.280
1.438
1.424
0.829
0.470
0.267
0.321
0.326
0.430
0.471
0.324
0.384
0.065
-0.060
-0.585
-0.707
-0.747
-0.847
-0.878
-0.834
-1.033
-0.937
-0.743
-0.597
-0.487
-0.940
-0.906
-1.232
-1.632
-1.431
-0.728
-0.125
0.960
1.454
1.152
0.657
0.382
0.337
0.510
0.802
1.265
1.313
1.396
1.311
1.269
0.935
0.704
0.475
0.180
-0.129
-0.419
-0.592
-0.626
-0.627
-0.585
-0.593
-0.632
-0.720
-0.125
-0.190
-0.246
-0.301
-0.406
-0.875
-1.503
-0.358
0.316
0.317
0.101
-0.205
-0.277
-0.200
-0.080
-0.617
-0.245
-0.017
0.283
0.397
0.572
0.345
0.208
0.109
-0.168
0.016
0.122
0.123
0.253
0.643
1.215
1.325
0.595
-0.824
-2.943
-1.016
0.240
1.300
1.288
1.414
0.984
-0.386
-1.416
-1.468
-0.382
0.435
0.680
0.663
0.441
0.352
0.317
0.355
0.201
0.128
0.154
0.235
0.244
0.195
0.236
-0.032
-0.088
0.009
-0.016
-0.090
-0.094
-0.081
-0.069
-0.111
-0.049
-0.010
-0.095
-0.044
-0.002
-0.081
-0.271
-0.081
-0.148
0.022
-0.169
-0.134
-0.084
-0.061
-0.005
-0.097
0.026
-0.097
-0.025
-0.025
-0.001
-0.069
0.111
0.392
0.266
-0.137
0.277
0.800
1.087
0.885
0.298
-1.291
-0.834
-0.000
0.122
1.132
0.835
0.206
-0.060
-0.648
-0.938
-1.021
-0.923
-1.116
-1.516
-1.011
-0.189
0.760
0.995
0.541
0.115
-0.258
-0.278
-0.064
0.237
0.571
0.683
0.914
0.874
0.786
0.704
0.612
0.246
0.061
-0.035
-0.152
-0.277
-0.207
-0.335
-0.235
-0.272
-0.346
-0.091
-0.099
0.014
-0.114
-0.349
-0.132
-0.089
-0.123
-0.086
-0.039
-0.059
-0.103
-0.009
-0.064
-0.109
-0.066
-0.002
-0.019
-0.062
0.064
0.050
0.074
0.137
0.089
0.075
-0.026
0.096
0.108
0.035
0.185
0.058
0.054
0.086
0.143
0.186
0.187
0.170
0.048
0.062
0.222
0.039
-0.007
0.123
0.142
-0.025
0.099
0.203
0.161
0.082
0.089
0.165
-0.110
0.051
0.098
0.007
0.050
0.107
0.085
-0.039
0.077
0.069
-0.022
0.008
0.051
-0.024
-0.129
-0.058
-0.088
-0.115
0.080
-0.049
0.014
-0.067
-0.059
-0.040
-0.042
-0.066
-0.044
-0.025
0.101
0.104
-0.067
-0.041
-0.053
0.035
0.074
-0.120
0.017
-0.017
0.006
-0.047
0.090
0.030
-0.080
0.024
0.021
0.107
-0.033
-0.034
0.112
0.073
0.128
0.014
0.012
0.075
0.015
0.115
0.125
0.079
0.029
0.098
0.098
0.059
0.116
0.015
-0.067
-0.070
0.035
0.096
0.026
0.177
-0.032
0.035
-0.090
-0.030
0.103
0.092
-0.015
0.017
-0.046
0.083
0.025
0.046
0.055
0.103
-0.044
0.005
0.070
0.026
-0.079
0.042
0.035
0.010
-0.090
-0.057
0.109
0.015
0.025
0.005
0.049
-0.055
-0.116
0.092
-0.027
0.066
0.163
-0.033
0.097
0.045
0.018
0.076
0.046
0.036
0.071
0.141
0.026
-0.024
-0.069
-0.045
0.025
0.126
0.054
0.001
0.039
-0.033
0.131
-0.073
0.097
0.056
-0.001
0.074
0.071
0.053
0.089
0.047
-0.026
-0.026
-0.010
0.054
0.064
0.098
0.020
-0.028
-0.007
0.010
0.048
-0.026
0.083
-0.013
0.024
0.104
0.049
0.028
-0.061
-0.056
0.053
-0.018
-0.028
-0.038
0.095
-0.031
-0.097
-0.008
-0.008
0.011
0.006
0.100
0.038
-0.026
0.054
-0.035
0.107
-0.033
-0.139
0.026
0.087
-0.031
0.002
-0.073
0.089
-0.012
0.089
0.091
-0.051
0.042
-0.068
-0.002
-0.009
0.016
0.001
0.077
-0.045
0.114
0.038
0.026
0.031
-0.023
0.002
0.020
0.115
-0.012
0.110
0.008
-0.022
0.058
-0.099
0.051
0.076
0.166
0.052
0.078
0.039
-0.113
0.072
0.075
0.109
-0.055
0.073
0.051
0.046
0.027
0.060
0.152
0.032
0.067
-0.028
-0.128
0.115
0.046
0.038
0.068
0.074
0.121
-0.083
-0.075
0.041
0.025
0.032
0.094
-0.181
0.141
0.010
0.014
0.076
-0.131
0.070
-0.030
-0.009
-0.093
0.101
0.119
-0.120
0.020
0.160
0.015
-0.068
-0.048
0.013
0.004
0.066
0.015
-0.011
-0.102
-0.077
0.191
-0.092
0.148
0.031
0.006
-0.067
0.203
0.053
-0.083
-0.039
-0.047
0.008
-0.011
-0.042
0.102
0.066
0.050
-0.012
0.134
0.078
-0.154
-0.256
-0.030
0.093
0.238
0.320
0.105
-0.036
0.035
0.043
-0.269
-0.434
-0.339
-0.107
0.144
0.326
0.157
-0.031
-0.207
-0.035
-0.068
-0.118
-0.062
0.002
0.109
0.189
0.177
0.205
0.191
0.175
-0.031
0.091
0.088
-0.020
-0.041
-0.007
-0.007
-0.012
0.011
0.092
0.479
-0.132
0.491
0.589
0.321
0.233
-0.066
0.002
-1.501
-2.298
0.369
1.000
0.711
0.551
0.384
0.993
-0.046
-0.261
-0.242
-0.983
-3.080
-0.009
2.596
1.220
0.417
0.250
-0.110
-0.064
-0.364
-0.370
-0.268
-0.279
-0.106
0.002
0.262
0.403
0.240
0.415
0.344
0.309
0.187
0.130
0.027
-0.115
-0.093
-0.060
0.049
-0.111
-0.011
-0.135
0.005
-0.048
0.024
0.065
0.077
-0.045
0.057
0.081
-0.027
0.032
-0.044
0.032
-0.009
-0.047
-0.090
-0.030
0.108
0.039
0.195
0.587
0.017
0.568
0.947
0.717
0.537
0.222
0.208
0.372
0.334
0.429
0.359
0.258
0.218
0.015
0.029
-0.070
-0.246
-0.267
-0.272
-0.365
-0.247
-0.117
-0.055
-0.227
-0.218
-0.124
-0.065
0.083
0.074
0.021
-0.040
0.139
0.136
0.083
0.163
0.115
0.209
0.139
0.190
0.198
0.164
0.081
0.246
0.236
0.147
0.102
0.237
0.387
0.310
0.218
0.278
0.300
0.023
-0.245
-1.228
-1.584
-0.368
1.473
1.420
0.661
-0.340
-1.478
-2.383
-1.944
-0.821
-2.212
-3.656
-4.019
-1.116
3.234
4.486
4.489
1.621
-2.351
-3.664
-4.013
-1.498
1.461
3.566
4.260
4.243
3.955
3.615
2.664
1.409
0.223
-0.635
-1.156
-1.260
-1.239
-1.133
-0.950
-0.987
-3.547
-4.515
-0.697
2.019
2.316
0.748
-0.935
-1.872
-2.132
-1.832
-0.968
-0.119
0.749
1.372
1.655
1.752
1.777
1.517
1.114
0.967
0.642
0.341
0.211
0.095
0.031
0.070
0.111
0.257
0.341
0.493
0.521
0.560
0.660
0.641
0.629
0.499
0.626
0.627
0.461
0.469
0.361
0.412
0.506
0.417
0.223
0.301
0.252
0.206
0.409
0.090
0.221
0.170
0.038
0.250
0.169
-0.039
-0.040
-0.087
0.052
0.091
-0.008
-0.131
-0.128
-0.005
-0.170
-0.172
-0.133
-0.189
-0.192
-0.201
-0.228
-0.008
-0.126
-0.107
-0.106
-0.284
-0.075
-0.119
-0.121
-0.047
-0.219
-0.212
0.077
-0.072
-0.051
-0.185
-0.078
-0.046
-0.011
-0.156
-0.126
-0.082
-0.053
-0.031
-0.004
0.083
-0.105
-0.008
-0.031
-0.038
-0.068
0.100
0.103
-0.041
-0.096
0.058
0.001
0.085
0.055
-0.085
0.126
0.106
0.088
0.003
-0.147
0.062
0.065
0.076
0.120
-0.094
-0.013
0.072
0.075
0.037
0.039
-0.062
-0.014
0.102
0.015
-0.027
0.076
0.126
0.014
0.051
0.009
0.037
-0.055
0.136
0.049
-0.073
0.210
0.009
0.025
0.032
0.028
0.062
0.134
0.068
0.065
0.230
0.068
0.062
0.143
0.058
0.147
0.164
0.161
-0.014
0.043
0.067
0.084
0.046
0.021
0.179
0.026
0.181
0.194
0.081
0.161
0.010
0.016
-0.025
0.048
0.064
-0.030
0.039
-0.002
0.011
-0.000
-0.065
-0.130
-0.070
0.049
-0.002
-0.012
0.025
0.068
-0.006
-0.108
-0.087
0.009
-0.084
0.132
-0.023
0.129
0.270
0.658
1.007
0.700
0.376
0.116
0.072
0.149
0.280
0.299
0.305
0.268
0.107
0.021
0.003
-0.332
-0.314
-0.292
-0.443
-0.356
-0.348
-0.379
-0.350
-0.180
-0.184
-0.033
0.115
0.202
-0.346
-0.418
0.063
0.201
-1.484
-3.331
1.358
3.970
4.546
2.347
-0.453
-2.206
-2.455
-1.651
-0.419
1.267
3.226
3.969
3.627
-0.228
1.430
3.270
3.047
1.763
0.535
-0.194
-0.806
-1.043
-1.375
-0.934
-0.504
-1.530
-1.023
-0.225
0.514
0.754
0.281
-0.386
-1.205
-1.652
-1.113
-2.842
-3.819
-0.330
3.459
4.127
2.446
0.581
-1.142
-2.285
-1.502
-0.038
1.519
3.000
3.397
2.936
2.532
1.877
1.747
1.429
0.944
0.720
0.398
0.142
-0.275
-0.469
-0.424
-0.569
-0.642
-0.603
-0.533
-0.616
-0.332
-0.597
-2.099
-3.718
0.935
3.691
4.313
2.028
-0.796
-2.308
-2.571
-1.907
-0.782
0.500
1.623
2.280
2.668
2.683
2.321
1.895
1.370
0.739
0.368
-0.286
-0.546
-0.729
-0.674
-0.550
-0.550
-0.265
-0.292
0.012
-0.013
-0.019
0.107
0.183
0.243
0.296
0.313
0.223
0.287
0.778
0.313
-0.858
0.277
0.904
-0.492
-0.429
0.121
0.536
1.671
1.386
0.877
0.347
-0.703
-2.710
0.501
2.659
2.238
-1.498
-1.848
0.092
0.982
0.711
0.962
-0.642
-0.293
-0.754
-1.829
-0.489
0.913
0.742
0.690
1.165
1.593
1.401
0.907
0.318
0.090
0.030
-0.494
-0.693
-0.925
1.743
1.208
-2.323
1.370
-1.225
1.012
0.760
-2.182
-0.454
0.517
0.497
0.205
0.157
0.359
0.708
0.954
1.259
1.383
1.155
0.873
0.691
0.287
0.067
-0.346
-0.486
-0.383
-0.475
-0.252
-0.351
-0.144
-0.176
0.018
0.243
-0.288
-1.371
-2.106
-3.515
1.503
3.823
3.035
1.827
-0.104
-1.397
-1.987
-1.627
-0.633
0.765
2.052
3.040
3.743
3.399
3.344
-0.022
1.525
2.552
0.284
0.321
-2.998
-1.948
-0.334
0.197
-0.493
-0.825
-0.739
-0.736
-0.638
-0.238
-0.115
0.014
0.238
0.335
0.341
0.339
0.375
0.206
0.226
0.074
-0.016
0.043
0.211
-0.009
0.017
0.195
0.012
0.045
0.182
0.017
0.273
0.233
0.274
0.336
0.479
0.759
0.027
-0.094
0.348
0.425
0.507
-0.248
0.132
0.972
1.340
1.130
0.570
0.307
0.041
0.085
0.170
0.277
0.415
0.257
0.159
0.098
-0.033
-0.090
-0.217
-0.259
-0.311
-0.548
-0.817
-2.003
-3.625
-4.002
-0.094
3.114
3.270
1.637
-0.014
-1.295
-1.559
-1.038
-0.293
0.570
1.144
1.774
1.980
1.904
1.808
1.191
0.869
0.423
0.049
-0.252
-0.532
-0.660
-0.669
-0.707
-0.608
-0.232
-0.460
-0.333
-0.101
0.068
0.026
0.072
0.056
-0.001
0.216
-0.462
-0.261
-0.005
0.134
0.144
0.270
0.124
1.077
0.991
-0.806
-2.367
-0.789
0.666
1.080
0.587
0.224
0.100
0.125
-0.041
-0.028
-0.024
0.078
0.032
0.175
0.117
0.271
0.268
0.456
0.289
0.222
0.127
0.109
0.155
0.040
0.032
0.077
0.084
-0.079
0.130
0.122
-0.086
-0.044
-0.044
0.071
0.101
0.042
-0.080
0.027
0.001
-0.012
-0.007
0.045
-0.082
-0.024
-0.089
0.029
-0.114
0.044
-0.134
-0.006
-0.046
-0.011
-0.065
-0.054
0.024
0.101
-0.055
-0.003
-0.005
-0.050
-0.004
0.051
-0.007
0.048
-0.017
0.096
-0.144
0.100
-0.053
-0.016
0.030
0.118
-0.036
0.096
0.041
-0.057
0.100
0.044
0.054
0.069
0.000
0.103
-0.014
0.126
-0.048
0.170
0.074
0.119
0.011
-0.046
0.091
0.110
0.003
0.121
0.140
0.030
-0.001
0.029
0.005
0.094
-0.074
0.024
0.032
-0.009
0.144
-0.075
-0.022
-0.042
0.059
0.015
-0.088
0.060
0.003
0.009
0.044
0.065
-0.029
0.200
-0.061
0.001
0.017
-0.007
0.126
0.084
-0.032
0.061
-0.004
-0.013
0.128
0.128
0.126
0.007
0.051
0.026
0.087
-0.077
0.127
0.023
0.116
0.075
-0.005
-0.037
0.029
0.093
-0.005
0.073
-0.074
0.021
0.028
0.114
0.019
0.149
-0.029
0.039
0.073
0.008
0.091
0.082
0.122
0.111
0.519
0.007
-0.320
-0.296
-0.143
0.164
0.243
0.111
0.274
0.253
-0.082
-0.443
-0.288
-0.098
0.117
0.030
0.129
0.109
0.100
-0.080
-0.015
-0.078
0.018
-0.014
-0.105
-0.084
0.169
0.098
-0.003
0.057
0.067
-0.026
-0.067
-0.003
0.080
-0.014
0.067
0.036
-0.047
-0.109
0.073
-0.031
0.103
0.027
0.121
0.021
-0.094
0.037
0.094
0.036
-0.050
0.108
0.991
1.272
0.724
0.237
-0.195
-1.009
-1.754
0.628
1.485
-1.326
-2.587
0.217
1.479
1.229
0.320
-0.487
-0.959
-0.996
-0.654
-0.357
0.130
0.501
0.675
0.755
0.737
0.617
0.574
0.334
0.289
0.030
-0.106
-0.072
-0.186
-0.243
-0.109
-0.118
-0.040
-0.079
-0.012
0.099
-0.017
-0.036
0.029
-0.015
0.002
0.063
0.134
0.035
-0.089
0.072
0.015
-0.102
-0.014
-0.110
0.073
0.072
-0.048
0.026
0.108
0.073
-0.071
0.063
0.107
0.000
0.038
0.049
0.016
-0.063
0.188
0.053
0.026
-0.002
-0.078
0.082
0.047
-0.007
0.046
0.017
0.054
0.092
0.098
-0.012
-0.112
0.094
0.059
0.066
0.033
0.082
0.006
0.014
-0.021
0.078
0.017
0.024
-0.040
0.024
-0.003
0.044
0.006
-0.087
0.077
0.057
-0.015
0.038
0.019
0.101
-0.015
-0.019
0.076
0.006
-0.027
0.004
-0.106
0.150
0.038
0.031
0.028
0.000
0.060
-0.006
0.037
0.062
-0.070
0.021
0.025
-0.019
0.064
0.089
-0.019
-0.011
0.070
-0.032
0.057
-0.054
-0.020
-0.047
0.032
0.051
0.060
0.096
0.024
-0.022
-0.073
0.130
-0.058
0.033
0.025
0.161
-0.029
0.041
-0.023
-0.078
0.063
-0.002
0.014
0.096
0.042
-0.039
0.110
-0.043
0.099
0.188
0.058
0.090
-0.004
-0.015
-0.014
0.006
0.011
0.130
-0.013
0.106
0.004
-0.075
-0.125
-0.024
0.150
-0.010
-0.056
-0.035
-0.070
-0.048
0.117
0.036
0.007
-0.059
0.053
0.074
-0.054
0.040
0.025
0.129
0.082
0.103
-0.012
0.027
-0.122
0.109
-0.017
-0.062
0.053
0.114
0.004
0.019
0.043
-0.054
0.007
-0.040
0.032
0.103
0.001
0.052
0.078
0.029
-0.063
-0.185
-0.022
0.137
0.073
-0.028
-0.020
0.004
0.002
0.047
0.128
0.062
-0.053
-0.025
0.013
0.012
-0.050
0.007
-0.014
-0.022
-0.043
0.030
0.088
-0.004
0.037
0.004
-0.001
0.048
0.023
-0.057
0.052
-0.030
-0.037
0.089
0.110
0.129
-0.024
-0.006
0.016
0.044
-0.042
0.016
0.030
0.062
0.066
-0.032
0.154
-0.126
-0.002
-0.004
-0.100
-0.050
0.047
0.099
0.026
-0.002
-0.067
-0.002
-0.065
0.153
0.140
-0.009
0.003
-0.046
-0.088
0.073
0.101
0.076
-0.056
0.038
0.054
-0.082
-0.010
0.072
0.000
0.125
0.040
0.057
0.106
-0.076
-0.007
0.105
0.022
0.062
-0.005
0.034
0.085
-0.083
-0.060
-0.003
0.074
-0.028
0.039
-0.042
0.015
-0.002
0.010
0.088
0.038
0.046
0.001
-0.028
0.032
0.060
0.112
-0.052
0.124
-0.024
-0.062
0.060
0.065
0.054
-0.034
0.141
-0.030
0.078
0.094
-0.139
0.126
0.166
-0.115
0.008
0.077
0.042
0.164
1.128
1.354
0.780
0.245
-1.770
-0.623
1.216
1.432
1.023
0.268
-1.248
-2.017
-0.688
1.127
1.496
0.860
-0.090
-0.558
-0.416
-0.259
-0.135
0.213
0.262
-0.194
-0.141
0.665
0.895
0.568
0.371
0.047
-0.084
-0.147
-0.232
-0.134
0.185
0.041
0.173
0.262
0.153
0.257
0.171
0.196
0.181
0.102
0.072
0.226
0.168
0.024
0.165
0.037
0.121
0.113
0.124
0.001
0.103
0.070
-0.004
-0.015
0.113
0.017
0.095
-0.065
-0.917
-3.161
-3.945
-3.726
1.163
3.767
0.002
-0.580
2.534
3.198
1.044
-0.742
-1.106
-0.035
1.620
3.062
3.753
3.990
3.923
3.230
2.337
1.155
-1.805
-4.509
-2.710
1.771
2.960
1.158
-1.798
-3.555
-4.001
-3.564
-2.173
-0.626
0.783
1.860
2.499
2.766
2.537
2.097
1.502
0.910
0.434
0.017
-0.274
-0.433
-0.338
-0.317
-0.273
-0.043
0.282
0.413
0.369
0.553
0.902
0.727
0.870
0.804
0.851
0.828
0.818
0.762
0.601
0.723
0.691
0.685
0.622
0.685
0.595
0.613
0.535
0.537
0.489
0.447
0.453
0.472
0.374
0.228
0.233
0.233
0.268
0.192
0.119
0.047
0.099
0.215
1.057
1.124
0.752
0.275
0.104
-0.137
-0.128
0.232
0.320
0.066
0.072
-0.933
-0.513
-0.021
0.062
-0.107
-0.502
-0.736
-0.771
-0.768
-0.584
-0.460
-0.182
-0.116
-0.137
-0.023
0.172
0.038
0.124
-0.044
-0.157
-0.140
-0.102
-0.615
-0.722
-1.110
-1.932
-2.358
-2.747
-0.622
0.539
-2.124
-2.634
-0.233
0.853
1.738
1.206
0.495
0.403
0.558
1.007
1.512
1.914
2.166
2.252
2.241
1.677
1.445
0.986
0.373
-0.118
-0.534
-0.613
-0.770
-1.153
-1.025
-1.099
-1.073
-0.841
-0.664
-0.578
-0.342
-0.376
-0.310
0.086
0.353
0.228
0.196
-0.006
-0.063
0.018
0.112
0.130
0.003
0.128
0.180
0.183
0.209
-0.044
-0.012
0.110
0.111
0.169
0.042
0.205
0.183
0.240
0.251
0.388
0.391
0.643
0.596
0.550
0.501
0.611
0.599
0.566
0.640
0.485
0.265
-0.837
-1.677
-3.219
-3.592
-2.629
2.977
4.744
4.243
1.112
-1.656
-2.790
-2.317
-1.093
0.670
2.256
3.230
3.801
3.837
3.421
2.707
1.767
0.915
-0.255
-0.928
-1.295
-1.598
-1.705
-1.562
-1.369
-1.342
-1.214
-0.942
-0.849
-0.640
-0.404
-0.352
-0.364
-0.406
-0.274
-0.313
-0.232
-0.297
-0.181
-0.204
-0.257
-0.174
-0.100
0.021
0.145
0.200
0.116
0.159
0.228
0.311
0.379
0.373
0.388
0.417
0.437
0.291
0.540
0.491
0.421
0.419
0.432
0.403
0.406
0.454
0.487
0.442
0.456
0.458
0.346
0.333
0.316
0.243
0.250
0.350
0.225
0.068
0.246
0.064
0.081
0.165
0.014
-0.090
-0.008
-0.022
0.027
-0.075
-0.127
-0.089
-0.082
-0.247
-0.101
-0.137
-0.165
-0.164
-0.154
-0.124
-0.203
-0.222
-0.217
-0.267
-0.178
-0.005
-0.148
-0.100
-0.165
-0.051
-0.103
-0.078
-0.023
-0.124
0.030
0.009
-0.068
-0.012
-0.039
0.040
0.094
0.030
0.003
0.049
0.192
0.033
-0.073
0.122
0.011
0.131
0.102
0.038
-0.040
0.119
0.170
0.072
0.107
0.186
0.143
-0.066
0.128
0.094
0.080
0.157
0.139
-0.040
-0.006
-0.083
-0.035
0.080
0.038
0.026
-0.028
-0.070
-0.087
-0.050
-0.021
-0.067
0.038
0.197
0.151
-0.334
-0.419
-0.095
0.364
0.835
0.883
0.502
0.423
-0.123
0.039
-1.904
-2.838
0.421
2.461
2.680
0.670
-1.380
-2.367
-0.905
-0.477
0.010
0.151
0.212
0.324
0.299
0.308
0.374
0.385
0.760
-0.018
-0.209
1.237
1.678
0.369
-2.415
0.247
0.177
-0.154
0.799
1.836
1.377
0.727
-0.090
-2.264
-2.857
-0.715
2.065
2.003
0.188
-0.157
-0.148
-0.222
-0.379
-0.294
-0.271
-0.161
0.070
0.231
0.527
0.602
0.084
0.094
0.269
0.406
0.273
0.129
0.278
0.358
1.114
-1.665
-1.219
-0.152
0.267
0.383
0.098
0.080
-0.129
-0.204
-0.150
-0.038
0.644
1.165
0.866
-0.428
-2.419
-1.137
0.282
1.141
0.939
0.454
-0.124
-0.216
-0.462
-0.440
-0.398
-0.194
0.010
0.087
0.344
0.337
0.187
0.175
0.307
0.247
0.224
0.403
1.192
1.165
-0.295
-2.612
-0.673
1.418
1.967
1.136
-0.600
-1.930
-0.260
1.331
1.390
-2.679
-1.175
0.693
1.128
0.750
0.060
-0.285
-0.280
-0.432
-0.184
0.039
0.151
0.398
0.387
0.512
0.390
0.793
0.731
1.382
0.757
-0.861
0.507
0.804
0.561
-1.641
-0.380
0.438
-0.471
-3.138
-0.648
1.236
1.516
0.846
-0.917
-1.025
-0.958
-0.578
0.546
-0.020
0.073
1.351
2.056
1.668
1.029
-1.821
-2.329
0.533
1.650
1.345
0.701
-0.071
-0.532
-0.826
-0.735
-0.578
-0.384
-0.007
0.082
0.357
0.393
0.422
0.506
0.329
0.237
0.122
0.089
-0.046
-0.020
-0.018
-0.127
0.006
-0.021
-0.088
-0.184
0.036
0.195
-0.006
0.038
0.063
0.074
0.098
0.023
0.014
0.055
-0.007
0.108
0.079
0.093
-0.020
0.049
-0.130
0.087
0.060
0.033
0.082
0.066
0.050
0.029
0.017
0.000
0.054
0.134
-0.001
0.057
-0.067
0.032
0.039
-0.062
-0.032
0.032
-0.071
0.038
0.106
-0.015
-0.067
-0.035
0.001
0.040
0.379
1.093
1.041
-0.143
-0.783
0.470
0.858
0.666
0.488
0.367
0.246
0.147
0.166
0.178
0.055
-2.422
-2.830
2.216
3.593
2.530
0.691
-0.941
-1.617
-1.516
-0.886
-0.129
0.444
1.056
1.298
-2.628
-0.792
3.033
4.140
2.735
1.355
0.041
-1.250
-1.914
-1.601
-0.576
0.362
1.328
2.038
2.270
2.305
1.923
1.395
0.806
0.204
-0.151
-0.342
-0.739
-0.811
-0.868
-0.642
-0.249
-0.209
0.043
0.160
0.242
0.174
0.327
0.309
0.424
0.367
0.380
0.412
0.473
0.489
0.374
0.344
0.223
0.311
0.323
0.319
0.373
0.309
0.334
0.234
0.349
0.277
0.199
0.164
0.154
0.027
0.039
-0.183
-0.016
-0.016
-0.014
-0.056
-0.085
-0.144
-0.040
0.039
-0.066
-0.187
-0.066
-0.033
-0.186
-0.079
0.019
0.113
0.241
0.196
-0.040
-0.027
-0.124
-0.228
-0.219
-0.159
0.059
0.084
-0.089
-0.116
-0.325
-0.269
-0.356
-0.772
-2.707
-4.082
-4.384
-0.720
3.171
4.274
4.085
-0.650
-3.467
-4.241
-4.185
-1.912
1.359
3.747
4.480
4.578
4.460
4.283
3.975
3.077
1.667
0.237
-1.009
-1.795
-2.189
-2.245
-2.120
-1.923
-1.421
-1.047
-0.556
-0.214
-0.014
0.214
0.357
0.460
0.316
0.303
0.327
0.295
0.193
0.181
0.201
0.351
0.247
0.535
0.445
0.460
0.458
0.484
0.499
0.616
0.610
0.585
0.503
0.478
0.624
0.586
0.564
0.455
0.554
0.366
0.413
0.435
0.289
0.352
0.413
0.473
0.287
0.297
0.278
0.279
0.094
0.142
0.192
0.130
0.006
0.028
0.139
-0.041
-0.084
-0.025
-0.237
-0.211
-0.106
-0.132
-0.188
-0.132
-0.215
-0.291
-0.276
-0.103
-0.204
-0.286
-0.248
-0.170
-0.163
-0.249
-0.202
-0.137
-0.239
-0.157
-0.190
-0.239
-0.157
-0.082
-0.206
-0.168
-0.132
-0.189
-0.087
-0.071
-0.026
-0.017
-0.206
-0.007
-0.022
-0.052
-0.031
0.059
0.038
-0.011
-0.057
0.039
-0.061
0.105
0.095
0.150
0.078
0.043
0.010
0.121
-0.002
0.078
0.025
0.080
0.136
0.027
0.119
0.023
0.125
-0.003
0.101
0.035
0.048
0.087
0.063
0.048
0.108
0.186
0.010
0.203
0.056
-0.007
0.092
0.045
0.088
0.121
0.165
-0.022
0.006
0.069
0.003
0.122
0.049
0.034
0.096
0.102
0.110
0.064
0.061
-0.067
0.058
0.007
-0.028
0.086
0.045
-0.049
0.075
0.076
-0.081
-0.085
0.065
0.167
0.132
-0.005
-0.021
0.029
-0.014
-0.022
0.114
0.045
0.082
-0.006
-0.070
-0.078
0.065
0.057
0.025
-0.072
-0.087
0.024
0.021
0.018
-0.048
-0.144
0.012
0.015
-0.075
-0.117
-0.001
0.033
-0.124
0.072
-0.046
-0.145
-0.072
0.114
-0.132
-0.042
-0.036
-0.145
0.023
-0.058
-0.016
-0.094
0.030
-0.012
0.054
-0.169
0.103
0.088
0.061
-0.043
-0.159
-0.002
-0.011
0.043
0.082
-0.060
0.061
0.088
0.040
-0.050
0.085
0.030
0.074
0.194
0.024
0.048
0.115
0.053
0.149
0.101
0.065
0.109
0.016
0.027
0.102
0.192
0.139
0.174
0.181
0.266
0.396
0.575
0.342
0.141
0.133
0.383
-0.031
-0.089
-0.121
0.077
0.074
0.017
0.002
-0.110
-0.306
-0.259
-0.280
-0.229
-0.408
-0.206
-0.084
-0.088
-0.053
-0.006
-0.027
-0.035
0.058
0.150
-0.044
0.114
-0.188
-0.235
-1.027
-0.727
0.439
1.740
1.857
0.953
0.105
-2.610
-3.163
-0.095
1.967
2.118
1.323
0.651
0.348
0.113
0.164
0.380
0.124
0.101
0.226
0.475
0.603
0.648
0.515
0.524
0.259
-0.020
-0.082
-0.398
-0.430
-0.546
-0.736
-0.421
-0.333
-0.305
-0.437
-0.270
-0.194
-0.080
0.146
0.106
0.162
0.128
0.154
0.215
0.164
0.271
0.264
0.133
0.268
0.261
0.167
0.193
0.357
0.288
0.267
0.327
0.156
0.157
0.218
0.303
0.275
0.221
0.163
0.185
0.201
-0.010
0.110
0.021
-0.101
0.014
0.000
0.013
-0.145
-0.575
-1.620
-2.918
-3.737
-4.061
-3.660
-2.229
2.328
4.050
2.977
0.645
-1.111
-1.407
-1.082
0.111
1.352
2.391
2.937
3.211
2.936
2.270
1.640
0.840
0.105
-0.643
-1.117
-1.376
-1.590
-1.588
-1.593
-1.273
-1.060
-0.961
-0.790
-0.487
-0.559
-0.353
-0.258
-0.125
-0.227
-0.190
-0.213
-0.167
-0.043
-0.110
-0.031
-0.004
0.175
0.083
0.128
0.245
0.240
0.305
0.364
0.342
0.377
0.446
0.397
0.479
0.553
0.571
0.465
0.408
0.452
0.415
0.439
0.509
0.439
0.494
0.415
0.465
0.312
0.355
0.429
0.337
0.281
0.398
0.539
0.965
1.203
0.936
0.388
0.111
0.182
0.106
0.129
0.398
-0.336
-3.293
-1.944
1.652
2.529
2.165
1.179
-0.338
-1.399
-1.698
-1.416
-0.614
0.227
0.552
0.809
0.858
0.889
0.819
0.448
0.023
-0.202
-0.666
-0.715
-0.867
-0.933
-0.746
-0.624
-0.431
-0.130
0.128
0.134
0.057
0.073
0.315
0.276
0.199
0.255
0.190
0.380
-0.051
-0.050
0.348
0.093
-0.355
0.225
0.403
-0.112
-2.671
-0.807
1.127
1.687
1.244
0.411
-0.179
-0.371
-0.348
-0.090
0.254
0.539
0.792
0.587
0.489
0.422
0.258
-0.048
-0.046
-0.165
-0.412
-0.395
-0.531
-0.524
-0.405
-0.374
-0.403
-0.369
-0.120
-0.244
-0.168
-0.189
-0.077
-0.088
-0.046
-0.058
0.098
-0.152
-0.040
0.083
-0.041
0.060
0.032
0.163
0.185
-0.052
0.020
0.248
0.175
0.202
0.271
0.268
0.069
0.085
0.316
0.242
0.171
0.130
0.211
0.199
0.281
0.238
0.197
0.218
0.282
0.095
0.136
0.230
0.180
0.194
0.091
0.075
0.168
-0.032
0.023
0.120
-0.011
0.055
0.001
0.045
-0.068
-0.049
-0.042
-0.030
-0.022
-0.000
-0.013
-0.136
-0.161
-0.127
0.009
0.115
-0.067
-0.226
-0.163
-0.178
-0.049
-0.083
0.010
-0.038
-0.101
-0.033
-0.194
-0.272
-0.064
-0.020
0.041
0.009
-0.113
-0.090
-0.057
-0.050
0.100
0.090
0.065
-0.085
0.057
0.095
0.172
0.144
0.411
0.498
0.492
0.257
0.065
-0.129
-0.068
0.548
1.266
0.762
-0.232
-2.803
-3.257
-1.013
1.257
1.639
1.027
0.120
-0.517
-0.576
-0.826
-0.444
0.108
0.374
0.598
0.479
0.629
0.953
0.656
0.606
0.359
0.167
0.053
-0.151
-0.220
-0.260
-0.129
-0.206
-0.066
-0.114
-0.096
-0.158
-0.043
-0.052
0.087
-0.001
0.071
-0.053
-0.069
-0.157
-0.100
0.026
-0.082
-0.152
0.024
-0.178
-0.075
-0.011
-0.043
-0.017
0.024
-0.084
-0.035
-0.030
0.110
0.010
-0.114
0.066
0.085
-0.008
0.120
-0.011
0.021
0.111
0.318
-0.211
0.094
-0.056
0.882
1.423
1.108
0.636
0.323
-2.205
-2.812
0.348
2.026
1.834
0.901
-0.138
-0.630
-0.959
-0.873
-0.650
-0.337
0.065
0.392
0.382
0.389
0.457
0.472
0.415
0.327
0.276
0.038
-0.020
0.006
-0.209
-0.048
-0.167
0.068
0.016
0.027
0.049
0.018
0.119
-0.003
0.082
0.088
-0.016
0.194
0.208
-0.007
-0.031
0.121
0.059
0.115
-0.090
0.173
0.013
0.102
0.085
0.106
0.038
0.089
0.054
0.063
0.055
0.077
0.036
-0.007
-0.046
0.100
0.066
0.063
0.095
0.065
0.024
-0.008
-0.030
0.155
-0.045
-0.013
0.013
0.049
0.161
-0.029
-0.078
0.030
0.027
0.087
-0.034
-0.032
0.127
-0.042
0.050
-0.018
0.039
-0.059
0.061
0.041
-0.037
0.089
-0.064
-0.008
-0.075
0.025
-0.070
0.096
0.034
-0.058
0.005
-0.020
0.017
0.020
0.043
-0.012
0.023
0.030
0.026
-0.094
-0.058
0.040
0.217
0.056
-0.033
-0.058
-0.037
0.062
0.076
-0.097
-0.020
0.077
-0.073
-0.002
0.152
0.060
-0.014
0.076
0.077
0.040
0.071
0.016
-0.037
0.095
0.068
0.033
0.094
0.041
-0.077
-0.061
0.067
0.149
0.024
0.035
0.099
0.106
0.109
-0.060
0.044
-0.120
0.109
0.087
0.092
-0.106
-0.043
0.073
0.051
-0.102
0.010
-0.020
0.106
0.090
0.093
0.010
-0.110
0.019
0.056
-0.014
0.084
0.037
0.008
-0.015
-0.002
-0.022
0.054
-0.053
0.149
0.015
-0.040
0.049
-0.066
0.064
0.046
0.051
-0.040
0.143
0.137
-0.073
-0.136
-0.095
0.132
0.070
-0.076
0.248
0.040
0.653
1.403
0.506
-2.380
-0.802
0.269
1.284
2.122
0.653
-0.728
-0.711
-2.836
0.002
2.189
0.388
0.818
-2.308
-1.654
0.097
2.058
2.368
0.235
-2.802
-0.528
1.928
1.238
0.345
-0.962
-1.578
1.218
1.282
1.353
-1.815
-1.134
0.057
0.281
0.484
0.425
-0.035
-0.256
-0.174
0.685
-0.365
0.907
-0.912
-0.315
0.634
1.633
1.012
-1.869
-0.952
0.138
0.442
0.479
0.176
0.126
-0.278
-0.064
-0.053
-0.019
0.056
0.112
0.137
0.256
0.135
0.135
0.188
0.249
0.004
-0.036
0.025
0.052
-0.081
-0.061
0.031
0.078
-0.064
0.016
-0.006
0.097
-0.092
0.009
0.041
-0.059
-0.140
0.011
-0.004
0.152
0.058
0.007
-0.001
0.007
0.023
-0.056
0.120
0.042
-0.133
-0.055
-0.009
0.014
0.031
0.132
-0.063
0.044
0.080
0.723
1.454
1.113
-2.227
-2.110
-0.053
0.874
1.098
0.607
-0.033
-0.264
-0.260
-0.455
-0.324
0.484
0.877
-1.080
-0.891
0.144
0.935
-0.264
0.191
0.402
0.338
0.189
0.106
-0.153
-0.180
0.081
0.896
1.237
0.966
0.451
0.337
0.383
0.132
0.412
0.649
0.588
0.661
0.525
0.153
0.045
-0.215
-0.290
-0.206
-0.458
-1.712
-3.412
2.098
3.607
-1.866
-0.869
0.061
-0.248
-0.873
-1.082
-0.735
-0.102
0.712
1.500
1.937
2.096
2.121
2.439
1.504
1.161
-0.115
-0.386
-0.193
-0.009
-0.066
-0.329
-0.365
-0.084
0.653
1.059
0.774
0.406
-0.508
-3.320
-2.110
1.234
2.205
1.811
1.557
1.127
-2.208
-2.364
-0.782
0.173
0.902
1.306
1.612
1.446
0.807
0.515
0.533
0.488
0.748
0.674
0.763
0.749
0.497
0.261
0.150
-0.008
-0.237
-0.362
-0.363
-0.389
-0.296
-0.143
-0.076
-0.007
-0.150
0.070
0.123
0.135
0.159
0.214
0.221
0.159
0.128
0.208
0.258
0.207
-0.026
-0.623
-0.705
-1.481
-0.424
0.244
-0.026
-0.866
-1.025
-0.821
-0.345
-0.047
-0.186
-0.684
-0.313
0.143
0.325
0.541
0.579
0.518
0.681
0.678
0.598
0.427
0.490
0.244
0.312
0.272
0.044
-0.069
0.006
-0.364
-0.520
-0.565
-0.483
-0.353
-0.228
-0.251
-0.302
-0.528
-0.451
-0.482
-0.478
-2.502
0.388
2.357
1.908
0.741
-0.060
-0.520
-0.365
-0.147
0.106
0.379
0.477
0.538
0.258
0.292
-0.052
-0.363
-0.463
-0.439
-0.311
-0.310
-0.487
-0.409
-0.427
-0.278
-0.270
0.200
0.277
0.617
0.612
0.527
-0.267
-2.903
-1.071
3.334
4.649
2.874
-2.029
-3.439
-1.909
-0.164
1.033
2.048
2.546
3.107
3.117
3.481
3.858
3.586
3.268
2.180
1.224
0.213
-0.462
-0.966
-1.202
-1.535
-1.458
-1.422
-1.150
-0.618
-0.613
-0.429
0.155
0.042
0.153
0.053
0.116
0.230
0.176
0.270
0.428
0.746
-0.176
-0.540
0.041
0.463
0.664
0.587
0.490
0.385
0.270
0.389
0.309
0.247
0.216
0.469
0.643
0.450
0.476
0.490
0.427
0.409
0.475
0.261
0.247
0.291
0.290
0.253
0.249
0.148
0.347
0.102
0.172
0.138
0.258
0.110
0.040
-0.123
-0.287
-0.253
0.010
-0.016
0.012
-0.073
-0.161
-0.259
-0.251
-0.241
-0.220
-0.169
-0.250
-0.189
-0.111
-0.116
-0.235
-0.166
-0.153
-0.372
-0.230
-0.163
-0.238
-0.226
-0.184
-0.179
-0.113
-0.059
-0.133
-0.163
0.007
-0.144
-0.118
-0.027
-0.003
0.007
0.150
-0.019
-0.002
0.156
0.130
0.153
-0.005
-0.099
0.148
0.169
0.126
0.062
0.093
0.048
0.150
0.268
0.165
0.096
0.182
0.263
0.048
0.029
0.194
0.111
0.136
0.069
0.181
0.097
0.186
0.030
0.115
0.107
-0.032
0.061
0.138
0.209
-0.017
-0.082
0.045
0.025
0.061
-0.005
0.013
-0.015
0.013
-0.064
-0.150
0.135
-0.034
-0.040
-0.247
-0.053
-0.016
0.068
0.006
-0.087
-0.109
-0.115
-0.027
0.031
-0.135
-0.081
0.011
0.004
-0.018
0.040
0.088
-0.040
-0.056
0.056
0.013
0.078
0.086
-0.046
0.145
-0.087
0.024
-0.020
0.141
-0.025
-0.060
0.044
0.181
0.108
-0.130
-0.090
0.029
-0.069
0.079
0.200
0.164
0.074
0.074
-0.072
-0.043
0.049
0.122
0.007
0.162
0.080
0.139
0.018
-0.030
0.003
0.031
0.029
0.084
-0.053
-0.013
-0.046
-0.093
-0.059
0.060
-0.022
0.025
-0.059
0.018
0.107
0.044
0.041
-0.053
-0.089
0.034
0.084
0.092
-0.086
0.094
-0.013
0.015
0.076
-0.006
0.077
0.029
-0.093
0.069
0.071
0.043
0.039
0.081
0.114
0.005
0.086
-0.029
0.063
0.078
0.087
-0.050
0.099
0.123
0.013
-0.033
0.023
0.068
0.092
0.062
0.004
-0.033
0.017
0.028
0.110
0.090
-0.057
0.040
0.053
0.039
-0.010
0.109
0.018
0.046
0.049
-0.113
-0.038
0.038
0.063
-0.110
0.014
-0.017
0.083
0.023
-0.095
-0.017
-0.017
0.117
0.043
0.038
-0.024
0.020
-0.167
0.119
-0.069
0.035
0.036
-0.062
-0.078
-0.037
0.074
-0.005
0.043
-0.041
-0.028
0.131
-0.017
-0.062
0.190
-0.044
-0.038
0.025
-0.003
0.010
0.056
0.060
-0.081
0.111
0.056
0.001
0.025
0.004
-0.043
0.014
0.112
0.057
0.010
0.016
0.084
0.063
-0.095
0.128
0.120
-0.121
-0.042
0.120
0.087
-0.075
0.075
0.031
0.041
-0.018
0.016
0.004
0.073
0.028
-0.043
0.130
0.037
-0.023
0.008
-0.025
-0.009
-0.057
0.058
0.086
0.035
-0.057
-0.035
0.008
-0.055
0.082
0.030
0.061
0.035
-0.227
0.030
0.054
0.066
0.067
0.031
0.106
-0.006
-0.037
-0.126
0.007
0.040
0.102
0.002
-0.033
-0.096
0.032
-0.001
0.057
0.005
0.008
-0.178
-0.014
0.052
0.050
-0.090
0.161
-0.109
0.042
0.127
0.033
-0.096
-0.086
0.113
-0.105
0.048
0.102
-0.030
0.035
0.029
0.045
-0.031
0.056
0.067
-0.042
0.059
0.068
-0.047
-0.028
0.062
-0.087
-0.031
-0.024
0.074
0.016
-0.076
-0.022
0.082
0.075
-0.036
0.071
0.052
0.065
0.031
-0.103
0.010
0.109
0.040
0.037
-0.040
0.066
0.098
-0.035
-0.082
-0.022
0.026
0.107
-0.010
0.109
-0.075
-0.040
-0.049
-0.064
0.012
0.161
0.097
0.003
0.006
0.020
-0.007
0.115
0.014
-0.039
-0.044
0.101
0.087
-0.067
0.014
-0.026
-0.052
0.112
0.063
-0.063
-0.044
0.013
-0.052
0.111
0.168
-0.075
-0.077
-0.005
0.259
0.117
-0.131
0.041
0.545
1.307
0.739
-2.546
0.021
0.224
-0.939
-0.131
0.605
0.550
0.498
0.392
-0.565
-0.939
-0.554
-0.115
0.164
-0.001
0.278
0.231
0.285
0.342
0.102
0.009
0.131
0.077
-0.019
0.045
0.121
-0.068
-0.008
0.048
0.061
0.040
-0.010
0.012
0.087
0.136
-0.161
-0.013
-0.068
-0.012
-0.080
0.037
-0.023
0.120
-0.047
0.006
0.027
0.040
-0.032
0.004
0.018
0.025
0.033
0.091
0.076
-0.082
0.013
0.037
0.117
-0.017
0.107
-0.005
0.103
0.048
-0.107
-0.008
-0.010
-0.039
-0.030
0.061
-0.029
0.101
0.059
-0.018
-0.082
0.057
0.023
0.066
-0.070
0.049
-0.012
-0.045
0.210
0.091
0.198
0.091
0.100
0.054
0.010
0.208
0.081
0.162
0.035
0.071
0.272
0.389
0.240
-0.068
-0.208
-0.036
-0.038
0.174
0.011
-0.302
-0.277
0.052
0.102
0.005
-0.069
0.049
-0.111
-0.118
-0.073
-0.166
-0.066
-0.131
-0.073
0.061
0.247
0.293
0.062
-0.163
-0.009
-0.063
0.104
0.078
-0.085
-1.426
-2.240
-0.182
1.360
1.430
1.033
0.928
0.379
-0.337
-0.622
-2.789
-1.025
1.090
1.685
1.547
0.789
0.281
-0.064
-0.439
-0.431
-0.266
-0.270
-0.092
-0.022
0.054
0.047
0.073
-0.061
0.117
0.158
-0.032
-0.069
-0.129
-0.080
-0.155
-0.093
-0.176
-0.210
-0.130
0.128
-0.109
0.035
0.134
0.374
0.840
0.417
-1.177
-0.944
-0.943
0.046
0.547
0.710
0.475
-0.011
-0.232
-0.109
-0.344
-0.221
-0.013
0.003
0.271
0.450
0.721
1.389
0.617
0.254
0.190
-0.034
-1.093
-2.385
-0.072
1.369
1.100
0.202
-0.204
-0.364
-0.525
-0.350
-0.305
-0.192
0.107
0.153
0.407
0.332
0.374
0.379
0.356
0.239
0.104
0.104
0.002
-0.071
-0.224
-0.045
-0.027
-0.022
-0.221
-0.089
-0.023
0.081
-0.099
-0.007
-0.009
0.051
-0.101
-0.035
-0.057
0.122
-0.055
-0.125
-0.042
-0.076
-0.108
-0.010
0.095
0.005
-0.017
-0.098
-0.028
0.063
0.055
0.020
0.031
0.099
-0.015
0.001
0.027
0.027
0.057
0.003
-0.017
-0.049
0.020
0.065
0.060
0.011
-0.012
0.039
0.095
-0.136
0.013
0.104
0.039
0.122
-0.079
0.135
0.059
0.060
-0.112
0.081
-0.012
0.015
-0.015
0.172
0.010
-0.151
0.039
0.054
0.035
0.086
-0.001
0.034
-0.016
0.032
-0.115
0.002
0.015
0.057
-0.011
0.012
-0.031
0.064
0.098
-0.006
0.043
-0.110
0.044
0.062
-0.008
0.004
-0.039
0.027
0.044
0.052
0.121
-0.075
-0.072
0.001
0.018
0.151
0.020
0.142
0.089
-0.124
0.009
0.112
0.094
0.052
-0.065
0.038
-0.043
0.191
0.053
-0.115
-0.072
0.110
-0.015
-0.079
0.039
0.061
0.069
-0.050
0.046
0.050
-0.007
0.011
-0.034
0.063
0.065
0.068
0.073
0.059
-0.111
-0.006
-0.030
0.051
-0.062
-0.049
-0.120
0.064
0.104
0.108
0.003
0.016
-0.057
-0.039
0.004
0.064
-0.040
0.006
0.117
-0.010
-0.123
0.093
0.078
-0.031
0.059
0.110
-0.050
-0.014
0.035
-0.023
-0.029
0.019
0.008
0.084
0.000
0.112
-0.030
-0.090
-0.061
0.033
0.061
0.084
-0.030
0.015
0.081
0.028
-0.001
0.102
0.144
0.046
-0.008
-0.041
0.065
-0.034
0.068
0.191
0.195
-0.047
-0.062
0.005
0.054
0.018
-0.041
0.020
0.174
0.212
0.200
-0.202
-0.180
-0.136
0.007
-0.030
-0.009
0.214
0.064
0.251
0.542
1.043
-0.053
-1.407
-1.733
-0.767
0.686
1.566
2.141
1.414
0.556
0.017
-0.476
-2.606
-3.261
0.608
2.428
2.397
1.170
0.038
-0.713
-0.990
-1.001
-0.894
-0.339
-0.020
0.170
0.539
0.789
1.924
1.887
1.127
0.626
0.303
0.140
0.139
0.318
0.494
0.468
-2.260
0.410
-1.132
1.277
1.663
0.986
-0.411
-1.481
-1.808
-1.454
-0.919
-0.223
0.596
0.997
1.283
1.516
1.505
1.320
0.940
0.570
0.351
0.135
0.014
-0.164
-0.267
-0.062
-0.226
-0.138
-0.090
0.107
0.158
0.244
0.335
0.240
0.877
0.367
0.670
0.533
-1.404
0.865
-0.531
-1.221
0.107
0.882
0.640
0.270
0.030
-0.265
-0.397
-0.209
-0.194
0.118
0.199
0.402
-0.002
0.143
0.692
0.621
1.261
0.918
0.564
0.405
-0.512
-0.307
-3.246
-0.407
2.980
3.232
1.807
-1.521
-1.048
-0.470
-0.149
-2.909
-2.117
1.554
2.775
1.957
1.264
1.108
0.343
-0.518
-2.354
-1.241
0.843
0.944
-2.774
0.198
2.562
2.953
2.456
1.373
-2.214
-2.742
-1.216
-0.131
0.302
0.372
0.341
0.402
0.323
0.386
0.529
0.553
0.497
0.383
0.389
0.349
0.210
0.225
0.314
0.240
0.241
0.155
0.217
0.115
0.289
0.146
0.175
0.304
0.264
0.358
0.242
0.236
0.164
0.248
0.223
0.184
0.190
0.667
-0.031
0.020
-0.479
0.000
0.786
1.270
0.943
0.846
0.488
0.288
-2.950
-1.386
1.283
2.126
2.602
1.731
0.364
-2.353
-3.498
-1.100
1.010
1.626
0.977
1.079
-1.467
-0.553
1.513
1.669
1.008
0.350
0.071
-0.375
0.149
0.478
0.566
0.464
0.478
0.301
0.094
-1.370
-2.031
1.700
2.428
1.422
0.169
-0.643
-0.967
-0.760
-0.420
-0.058
0.083
-2.451
-3.535
2.009
4.118
4.412
1.956
-0.738
-2.254
-2.619
-1.855
-0.665
0.630
1.706
2.512
2.704
2.741
2.358
2.013
1.323
0.827
0.246
-0.185
-0.509
-0.618
-0.678
-0.674
-0.466
-0.387
-0.207
-0.170
-0.090
0.120
0.101
0.053
0.151
0.259
0.123
0.121
0.171
-0.042
0.006
0.163
0.092
0.051
0.145
0.081
0.114
-0.004
0.136
0.119
0.158
0.163
0.292
0.075
0.050
0.150
0.149
0.239
0.076
0.127
0.288
0.259
0.252
0.638
1.274
0.959
0.761
0.225
-2.660
-2.350
0.406
1.677
1.412
0.696
-0.138
-0.615
-0.843
-0.745
-0.620
-0.330
-0.045
0.041
0.342
0.401
0.362
0.324
0.406
0.330
0.307
0.284
-0.779
-0.706
-0.150
0.014
0.120
0.163
-0.145
-0.052
0.708
1.176
0.898
0.456
0.203
-0.785
-3.445
-0.540
2.208
2.559
1.722
1.378
0.014
-0.963
-0.708
-0.362
-0.039
0.142
0.288
-0.925
-3.441
-0.856
2.569
3.214
2.044
0.184
-0.936
-1.430
-1.501
-1.246
-0.517
0.149
0.677
1.032
1.391
1.067
1.179
1.010
0.723
0.549
0.345
0.137
-0.047
0.017
-0.070
-0.015
-0.162
-0.045
0.079
0.147
0.064
0.234
0.196
0.140
0.214
0.168
0.144
0.078
0.124
0.026
0.005
-0.089
0.108
0.110
-0.051
-0.046
0.085
0.150
-0.099
0.025
0.022
-0.116
0.064
0.088
-0.021
-0.053
-0.039
0.038
-0.072
-0.070
0.092
-0.075
-0.028
-0.085
0.010
0.049
-0.047
0.014
0.065
0.047
0.143
-0.062
-0.074
-0.176
-0.181
-0.148
-0.075
-0.079
0.051
0.045
0.019
0.158
0.328
-0.998
-0.708
0.066
0.363
0.209
0.168
0.092
-0.023
0.038
0.049
0.041
0.084
0.210
0.512
1.092
1.176
-1.569
-0.324
1.467
1.396
0.894
0.006
-2.686
-3.104
0.051
1.687
1.679
0.684
-0.210
-0.771
-0.998
-0.899
-0.653
-0.113
0.155
0.520
0.758
0.609
0.768
0.565
0.482
0.364
0.250
0.157
-0.076
0.045
-0.156
-0.105
-0.066
-0.126
-0.069
0.014
0.073
0.107
0.337
1.276
1.241
-0.309
-2.793
-0.806
0.748
1.063
0.934
0.413
-0.222
-0.247
-0.333
-0.346
-0.322
-0.026
0.093
0.175
0.237
0.156
0.208
0.338
0.231
0.226
0.112
0.083
-0.012
0.054
0.001
-0.020
-0.021
-0.078
0.048
-0.062
0.013
0.103
0.014
0.038
-0.040
-0.049
-0.063
-0.012
0.096
0.075
0.072
0.008
-0.032
0.062
-0.051
-0.072
0.081
0.159
-0.073
-0.086
0.020
-0.021
0.094
-0.039
0.054
-0.173
-0.004
0.044
0.062
-0.047
0.049
0.020
0.053
0.060
-0.065
-0.009
0.008
-0.018
-0.121
0.095
0.047
0.023
0.010
0.054
0.031
0.055
0.004
-0.055
0.021
0.000
0.024
-0.012
0.051
0.027
0.044
-0.003
0.004
0.006
0.032
0.057
0.102
0.083
-0.010
0.009
-0.038
0.106
0.057
-0.022
0.041
0.025
-0.015
-0.033
0.076
0.110
-0.083
-0.028
0.142
0.118
-0.003
0.068
0.073
-0.131
-0.044
-0.010
0.055
0.038
-0.019
0.017
0.055
-0.071
-0.013
-0.131
0.126
0.040
0.023
-0.002
0.053
-0.166
0.067
-0.019
0.049
0.119
-0.027
-0.077
0.030
0.202
0.361
0.541
0.346
-0.658
-1.040
-0.378
0.244
0.297
0.289
0.250
-0.017
-0.018
-0.091
-0.060
-0.172
-0.197
-0.107
0.088
0.242
0.207
0.148
0.058
0.243
0.355
0.138
0.120
0.634
1.197
0.920
0.445
-0.417
-0.537
-0.569
-0.190
0.422
0.300
-1.170
-1.670
-0.849
0.003
0.211
-0.043
-0.270
-0.388
-0.513
-0.567
-0.346
0.141
0.318
0.450
0.609
0.684
0.772
0.724
0.489
0.351
0.320
0.240
0.052
-0.129
-0.017
-0.096
-0.049
-0.098
-0.927
-0.772
-0.134
0.335
0.398
0.193
-0.015
0.019
-0.098
-0.163
0.020
0.128
0.096
0.167
0.216
0.215
0.520
0.614
0.222
-0.160
-0.270
-0.376
-0.305
-0.228
0.437
0.233
0.056
-0.146
-0.255
-0.181
-0.219
-0.278
-0.012
-0.017
0.006
0.038
0.050
-0.005
0.100
0.054
0.133
0.001
-0.012
0.034
-0.003
0.053
0.025
0.024
0.036
0.037
0.067
0.135
0.103
0.075
0.102
-0.076
0.288
0.350
0.107
0.198
0.106
-0.031
0.047
0.169
0.263
0.099
-0.086
-0.021
0.061
0.132
0.025
0.083
0.005
-0.047
0.119
0.042
0.034
-0.019
-0.013
0.114
0.111
0.153
-0.191
0.056
-0.015
0.103
0.080
0.123
0.096
-0.039
0.007
-0.141
-0.164
-0.091
0.077
0.136
0.073
-0.036
-0.072
0.027
-0.007
-0.118
-0.065
-0.033
0.006
0.011
0.152
0.379
0.303
-0.130
0.024
0.018
-0.043
-0.094
-0.028
0.046
0.068
-0.092
-0.019
0.089
0.040
-0.054
0.105
-0.076
-0.004
-1.237
-0.271
0.148
0.318
-0.533
-0.567
-0.222
-3.061
-0.865
2.925
3.602
2.168
0.306
-0.885
-1.160
-0.849
-0.356
0.282
0.861
1.332
1.463
1.380
1.300
0.970
0.425
0.174
-0.268
-0.601
-0.619
-0.679
-0.534
-0.544
-0.417
-0.476
-0.322
-0.297
-0.180
-0.030
-0.070
0.026
-0.000
0.175
0.211
0.109
0.155
-0.022
0.087
0.196
0.176
0.037
0.164
0.228
0.243
0.329
0.212
0.255
0.354
0.257
0.321
0.219
0.260
0.296
0.295
0.179
0.289
0.062
0.310
0.185
0.278
0.242
0.344
0.235
0.070
0.078
0.020
0.127
0.010
0.136
0.145
0.084
-0.007
0.091
0.100
0.034
-0.026
-0.076
-0.055
0.011
0.042
-0.077
-0.125
-0.069
-0.125
-0.124
-0.008
-0.038
-0.066
-0.084
0.009
-0.130
-0.220
-0.135
-0.032
0.006
-0.194
-0.038
0.068
-0.097
-0.007
-0.074
-0.145
-0.038
-0.011
0.058
-0.047
-0.040
-0.036
-0.076
-0.093
0.019
0.026
0.105
0.229
-0.021
-0.106
0.006
0.036
0.141
0.085
0.028
0.131
0.105
0.024
-0.037
0.040
0.140
0.090
0.052
0.112
0.065
-0.081
-0.063
0.050
-0.051
0.105
0.034
-0.081
-0.026
0.083
0.078
-0.074
-0.063
-0.090
0.086
0.058
-0.018
-0.148
0.113
0.110
0.023
0.103
0.143
0.077
0.010
-0.100
0.396
0.572
0.103
-0.396
-0.226
-0.097
0.072
-0.277
-0.288
0.037
0.119
0.162
0.112
0.003
-0.227
-0.161
-0.134
0.046
0.065
0.073
0.158
0.033
0.127
0.096
0.309
0.166
0.005
0.024
0.149
-0.163
-0.005
-0.090
0.059
-0.021
0.058
0.000
0.116
-0.116
-0.057
0.038
0.056
0.090
-0.016
-0.023
-0.055
-0.027
0.127
0.024
0.037
0.108
-0.057
-0.060
-0.040
-0.046
0.026
-0.063
0.124
0.129
-0.085
-0.033
-0.051
-0.089
0.099
0.046
0.053
-0.106
-0.099
-0.022
0.042
-0.053
0.050
-0.002
-0.120
0.063
-0.098
0.040
0.068
-0.040
0.084
-0.089
0.069
0.027
-0.008
0.080
0.036
0.130
0.067
-0.025
-0.066
-0.040
0.098
-0.020
-0.039
0.079
0.142
0.123
-0.041
0.028
-0.020
0.160
-0.102
-0.017
0.004
0.056
0.002
0.019
0.126
0.027
0.081
-0.029
0.041
0.023
0.104
0.011
0.033
-0.008
0.101
-0.052
0.034
0.093
0.068
-0.013
0.112
-0.032
0.041
-0.030
0.111
-0.043
-0.014
-0.037
-0.035
0.005
0.103
0.101
-0.051
0.148
0.042
-0.011
-0.121
-0.119
0.004
-0.027
-0.024
0.117
-0.015
0.061
-0.039
-0.043
0.058
-0.051
0.010
0.051
-0.003
0.013
0.268
0.958
1.353
0.979
0.433
-0.141
-2.984
-2.070
1.002
2.209
1.939
2.115
1.030
-0.229
-0.674
-0.917
-0.488
-1.054
-1.625
-2.603
1.252
3.398
2.940
1.311
0.024
-0.721
-0.808
-0.603
-0.329
0.030
0.416
0.480
0.667
0.633
0.648
0.405
0.192
0.076
-0.001
-0.053
-0.136
-0.012
-0.058
-0.138
-0.039
0.105
0.187
0.150
0.175
0.196
0.151
0.225
0.238
0.348
0.170
0.178
0.123
0.425
0.222
0.164
0.090
0.250
0.093
0.012
0.187
0.213
0.133
0.117
0.051
0.161
0.158
0.081
0.030
-0.062
0.016
-0.229
-0.157
-0.327
-0.922
-1.021
-0.811
-0.820
-2.152
-3.157
-3.913
-1.865
-0.210
0.372
-0.056
-1.189
-3.147
-2.576
-0.690
1.155
2.040
1.902
1.726
1.611
1.298
1.515
1.653
1.882
1.792
1.906
1.479
1.027
0.754
0.320
-0.156
-0.405
-0.806
-0.993
-1.217
-1.218
-1.232
-1.135
-0.987
-0.946
-0.809
-2.378
-2.287
0.969
2.260
1.089
-0.169
-0.881
-1.069
-0.908
-0.398
-0.559
-1.748
-0.427
0.803
1.502
1.411
0.742
0.049
-0.153
-0.161
0.074
0.205
0.465
0.712
0.717
1.123
1.099
1.037
0.914
0.751
0.709
0.721
0.638
0.537
0.828
1.321
1.363
-0.160
0.413
0.946
0.829
1.005
1.217
0.969
0.622
0.221
0.413
-0.088
-0.306
-0.162
-0.223
-1.175
-2.856
-2.095
-0.528
0.206
0.216
-0.167
-0.465
-0.756
-0.913
-0.666
-0.202
0.261
0.913
-1.078
-0.503
1.249
1.844
1.504
0.797
0.307
-0.113
-0.317
-0.301
-0.160
-0.106
-0.047
-0.073
-0.013
0.046
0.024
-0.148
-0.256
-0.089
0.671
-1.053
-0.673
-0.353
-0.201
-0.107
-0.377
-0.260
-0.307
-0.280
-0.192
-0.143
-0.201
-0.195
-0.155
-0.134
-0.124
0.001
0.005
-0.049
0.014
-0.003
0.494
0.991
-1.211
-0.942
-0.117
0.451
0.567
0.421
1.261
0.834
-1.121
-1.278
-0.515
0.269
0.586
0.608
0.529
0.074
0.613
-0.554
-0.421
0.140
0.329
0.334
0.290
0.240
0.236
0.170
0.182
0.217
0.293
0.190
0.197
0.206
0.175
0.228
0.124
0.191
0.185
0.195
0.513
0.746
1.153
0.518
-1.741
-2.570
-0.328
1.696
1.527
0.680
0.052
-0.524
-1.324
-0.536
0.461
0.344
0.401
0.203
-0.230
0.717
1.277
1.107
0.401
0.141
-0.258
-3.057
-2.264
1.550
2.701
1.764
0.381
-0.727
-1.174
-1.236
-1.064
-0.617
-0.096
0.329
0.668
1.086
1.694
1.531
0.286
0.453
0.998
0.813
0.399
0.051
-0.299
-0.317
-0.166
0.112
-0.018
-0.209
-0.348
-1.277
-1.619
-0.186
0.405
-0.321
-1.652
-0.894
-0.090
0.000
-0.266
-0.586
-0.078
0.010
-0.042
0.039
0.018
0.404
0.693
0.045
-0.142
0.549
0.465
0.526
0.288
0.301
0.425
0.480
0.335
0.322
0.220
0.266
0.224
0.046
0.561
0.613
0.426
0.225
0.233
0.098
-0.119
-0.053
-0.123
-0.190
-0.130
0.110
-0.129
-0.340
-0.799
-0.567
-0.024
0.124
-0.313
-0.323
-0.348
-0.351
-0.460
-0.324
-0.132
0.074
-0.249
-0.273
0.005
0.010
0.019
0.026
0.071
-0.133
-0.027
0.308
0.591
0.300
0.060
-0.034
0.014
0.070
0.096
0.125
0.186
0.125
0.299
0.109
0.120
0.190
0.612
-0.863
-0.928
-0.027
0.560
1.603
1.633
0.992
0.322
-0.054
-0.153
0.217
0.378
0.248
0.280
-1.506
-3.690
-1.239
2.572
3.238
1.984
0.459
-1.776
-3.701
-2.387
-0.562
0.830
1.141
1.165
1.009
0.953
0.929
0.804
0.696
0.467
0.372
0.108
0.099
0.018
-0.066
-0.083
-0.069
-0.013
-0.023
0.027
0.039
0.097
0.124
0.096
0.105
0.074
0.091
0.151
0.145
0.070
0.050
0.042
0.066
0.067
0.138
0.105
0.069
0.014
0.042
0.187
0.150
0.077
-0.000
0.141
0.162
0.033
0.133
0.023
0.053
0.063
0.164
-0.082
-0.013
0.060
0.034
-0.106
-0.003
0.015
-0.108
-0.030
-0.057
-0.049
-0.026
-0.064
0.022
-0.017
-0.054
-0.052
0.022
-0.058
-0.004
-0.084
-0.015
0.054
-0.004
-0.160
0.010
0.024
0.130
-0.191
-0.053
-0.054
0.025
0.053
-0.033
-0.024
0.065
-0.067
-0.029
-0.098
0.041
-0.011
-0.099
0.166
0.085
-0.018
-0.013
0.085
0.058
0.146
0.102
0.015
-0.030
0.039
0.036
0.102
0.160
0.094
0.118
0.107
0.044
0.049
0.053
0.056
0.048
0.089
0.044
0.069
0.068
0.043
0.094
0.007
0.131
0.052
-0.062
0.127
0.072
-0.017
-0.030
0.105
0.033
0.105
-0.083
0.012
0.002
0.120
-0.044
-0.057
0.077
0.048
-0.063
-0.050
0.030
-0.011
-0.029
-0.098
0.015
-0.002
-0.003
-0.005
-0.034
-0.009
-0.034
0.014
-0.083
-0.046
0.087
0.034
-0.088
-0.004
0.016
0.025
0.119
0.048
-0.075
-0.039
0.001
0.049
-0.020
-0.053
0.080
-0.017
0.076
0.053
0.028
-0.150
0.094
0.093
0.002
-0.038
0.035
0.018
0.056
-0.078
0.048
0.005
0.003
0.056
-0.006
-0.178
0.061
0.210
0.057
0.034
-0.097
0.002
0.027
0.000
0.072
0.099
-0.093
0.032
0.074
0.107
-0.009
-0.079
-0.067
0.012
-0.019
0.062
0.021
0.203
0.017
0.087
-0.048
-0.069
0.067
0.064
0.008
-0.002
0.042
0.086
0.071
0.006
-0.052
-0.032
0.034
0.157
-0.006
-0.002
0.033
-0.002
0.034
0.003
0.064
-0.013
0.040
-0.034
0.011
0.169
-0.067
-0.072
0.108
0.035
0.049
0.061
-0.036
0.028
0.088
0.062
-0.003
-0.046
0.127
0.073
-0.080
0.106
0.017
-0.085
-0.050
0.006
0.093
0.079
0.159
-0.035
0.078
0.016
-0.135
-0.110
0.032
0.125
-0.127
0.090
-0.056
0.058
0.042
0.054
-0.028
0.099
-0.005
0.033
-0.023
-0.051
0.095
0.054
0.028
0.054
-0.096
0.060
0.135
-0.050
-0.002
0.063
-0.035
0.046
-0.044
0.072
0.153
0.079
0.008
0.065
-0.001
-0.055
-0.025
0.048
0.046
-0.003
-0.027
-0.024
0.106
0.069
0.035
0.115
0.071
0.027
-0.064
-0.019
0.129
-0.004
-0.086
0.136
0.081
0.119
-0.121
0.020
0.027
0.004
0.042
-0.007
-0.011
0.095
0.032
-0.076
-0.014
0.026
0.029
0.108
-0.090
0.004
0.074
0.040
0.041
0.054
0.100
0.013
-0.068
0.047
-0.034
0.078
-0.022
0.005
0.032
-0.030
-0.078
0.015
-0.002
0.156
-0.026
0.097
0.031
-0.095
-0.031
0.007
0.060
0.084
0.115
-0.029
0.014
-0.038
0.076
0.039
-0.004
0.014
-0.059
0.107
0.052
0.050
0.047
0.021
0.049
-0.039
0.050
0.128
-0.028
-0.055
-0.006
0.029
0.125
0.033
0.017
0.018
-0.107
0.085
0.023
0.066
0.065
-0.062
0.077
-0.053
0.004
0.073
0.163
-0.127
-0.027
0.118
0.071
0.082
0.104
-0.057
0.025
-0.003
0.117
0.017
0.022
0.057
-0.030
-0.027
0.036
0.149
0.064
0.026
-0.016
-0.041
0.067
-0.066
0.201
0.010
0.034
-0.055
0.068
-0.016
0.015
0.107
-0.010
-0.046
0.026
-0.013
0.076
0.103
0.026
-0.051
0.003
0.073
0.056
-0.089
-0.085
0.020
0.005
-0.063
0.020
0.048
0.089
-0.029
-0.032
0.066
0.034
0.023
-0.034
-0.034
-0.010
0.040
-0.030
0.066
0.037
0.162
-0.119
-0.034
-0.079
0.178
0.045
-0.002
-0.079
0.043
0.016
0.096
0.081
0.081
0.053
-0.022
-0.169
0.064
0.031
-0.010
0.019
-0.008
0.030
0.010
0.063
-0.097
-0.026
-0.054
0.180
-0.032
-0.063
-0.103
0.083
0.063
-0.006
0.001
-0.049
-0.021
-0.011
0.049
0.065
0.098
0.023
0.057
0.098
0.033
-0.111
0.042
-0.068
0.006
-0.067
0.066
0.163
0.142
-0.232
0.054
0.060
0.075
0.017
-0.072
0.065
0.030
-0.023
0.148
0.048
-0.124
0.054
0.020
-0.019
0.066
0.051
-0.038
-0.040
0.089
0.079
0.040
-0.070
-0.125
0.011
0.053
0.089
0.058
-0.072
0.097
0.007
-0.021
-0.031
0.023
0.022
0.156
-0.042
-0.000
0.070
0.019
0.023
-0.045
0.006
-0.044
0.022
0.034
0.079
0.049
-0.017
-0.067
-0.007
-0.023
-0.002
-0.017
0.097
-0.018
0.063
0.050
-0.088
-0.014
0.134
0.012
-0.093
0.066
0.077
0.097
0.075
0.139
-0.137
-0.004
0.125
0.149
-0.063
-0.081
0.107
0.034
-0.007
-0.029
0.055
0.094
0.067
-0.052
0.042
0.147
0.047
-0.092
-0.025
-0.047
-0.022
0.043
0.162
0.071
0.111
0.021
-0.050
-0.033
0.037
-0.045
0.018
0.149
0.055
0.054
0.066
-0.027
0.001
0.042
0.083
-0.065
-0.035
0.087
0.079
-0.058
0.032
-0.001
-0.024
0.042
-0.042
0.064
0.049
0.042
0.082
0.067
0.016
-0.062
0.075
-0.001
0.076
0.122
0.008
0.064
0.158
0.059
-0.128
-0.015
0.150
-0.032
0.025
0.040
-0.006
0.047
0.057
0.048
-0.011
0.079
-0.061
-0.063
0.162
0.027
-0.082
0.014
0.081
-0.011
0.009
0.055
0.031
-0.150
0.111
0.034
-0.018
-0.056
0.158
0.085
0.073
0.135
0.002
0.059
-0.113
-0.040
0.110
0.001
0.169
1.055
1.333
-0.084
-2.673
-0.954
1.480
2.313
1.662
-0.949
-2.638
-0.565
0.909
1.319
1.348
-0.926
-1.262
-0.542
-0.015
0.076
0.160
0.164
0.113
0.104
0.316
0.029
0.161
0.206
0.188
0.117
0.167
0.204
0.032
0.079
-0.059
-0.099
0.074
0.157
0.179
-0.049
0.063
0.083
0.016
0.027
0.089
0.018
0.169
0.148
-0.096
0.060
0.137
0.072
0.036
0.006
0.026
0.092
0.075
0.021
0.118
0.073
0.069
0.004
-0.107
0.064
0.150
-0.008
0.026
0.003
-0.138
0.004
0.118
-0.019
0.041
0.042
-0.012
0.112
0.010
-0.092
0.051
0.067
0.066
0.100
0.085
-0.095
0.015
-0.016
-0.020
-0.087
-0.044
0.007
0.047
0.008
-0.056
-0.043
-0.099
0.226
-0.079
-0.021
0.014
0.059
-0.095
-0.020
0.001
0.054
0.049
0.025
0.040
0.000
-0.029
0.076
-0.046
-0.035
0.017
0.108
-0.051
-0.026
0.063
0.013
0.098
0.092
0.042
0.174
-0.122
0.043
0.044
0.042
0.038
0.075
0.069
0.042
-0.011
-0.069
0.032
0.025
0.069
0.033
-0.102
0.091
0.129
-0.037
-0.027
-0.000
0.085
0.064
-0.028
0.029
0.080
0.077
0.084
-0.068
0.083
0.262
0.016
-0.053
-0.011
0.013
0.062
0.141
-0.069
-0.052
0.088
0.090
-0.067
0.079
0.054
0.027
0.052
-0.032
0.073
0.017
-0.058
0.059
0.014
0.038
0.034
0.108
0.029
-0.115
-0.004
0.061
0.087
0.076
0.163
-0.121
0.065
-0.090
0.067
0.014
0.027
0.085
-0.055
-0.019
0.080
0.026
-0.076
-0.003
0.006
0.186
0.056
0.008
0.047
-0.012
0.085
-0.033
0.057
-0.017
0.007
0.073
-0.089
-0.082
0.049
0.101
0.041
0.015
0.107
-0.057
0.004
-0.088
0.081
-0.023
0.046
-0.063
0.103
0.109
0.020
0.002
0.151
-0.011
0.018
-0.157
-0.039
0.068
0.043
0.036
0.059
-0.038
-0.026
-0.037
-0.016
0.033
0.063
-0.173
-0.012
0.090
0.053
0.010
0.026
0.011
0.035
0.129
-0.033
-0.010
0.011
0.035
0.050
-0.034
0.158
-0.026
0.010
0.092
0.042
-0.027
0.106
0.079
-0.018
0.003
-0.043
0.083
-0.010
0.011
-0.053
0.049
0.165
-0.112
-0.027
0.145
-0.027
-0.065
0.115
0.029
-0.065
-0.035
0.033
0.019
-0.005
-0.081
-0.082
0.180
0.001
-0.061
0.014
-0.024
0.141
0.021
-0.180
-0.019
0.153
-0.021
0.131
0.027
0.172
1.121
-0.399
-0.961
1.233
1.513
1.082
0.563
-0.707
-1.118
0.133
-0.029
-0.867
-2.083
0.310
1.102
1.293
1.203
-0.749
-0.840
-1.709
-0.928
-0.830
-0.128
0.439
0.803
0.806
1.027
0.643
0.730
0.605
0.377
0.334
0.210
-0.063
-0.169
-0.120
-0.138
-0.103
-0.151
0.020
0.014
0.033
0.133
0.041
0.004
-0.034
0.026
-0.014
0.081
0.071
0.068
0.021
0.052
0.045
-0.039
0.097
0.210
1.371
-0.915
-0.316
-0.548
-0.507
0.135
0.802
0.136
0.144
0.015
0.010
0.441
-0.329
-0.023
0.125
-0.866
-0.328
0.117
0.442
0.394
0.834
-0.383
-0.767
-0.368
0.070
0.126
0.265
1.392
-0.884
0.129
-0.833
-0.267
0.328
0.430
0.230
0.095
0.066
-0.118
-0.085
-0.136
-0.056
-0.001
0.031
-0.022
0.089
0.019
-0.140
0.085
0.201
-0.063
0.139
0.000
-0.134
-0.062
0.047
-0.025
-0.070
-0.026
0.021
-0.057
0.013
-0.052
0.078
-0.053
0.029
-0.053
0.045
0.034
-0.018
0.012
0.085
0.094
0.092
-0.015
0.128
-0.017
-0.021
0.037
0.016
0.048
0.109
-0.073
-0.018
0.110
0.122
-0.047
0.078
-0.044
0.054
0.020
0.102
0.114
-0.154
0.015
0.114
0.066
0.031
-0.043
0.033
0.159
0.032
-0.014
0.070
-0.005
-0.106
-0.035
0.006
0.092
0.117
-0.098
0.099
0.036
0.026
0.086
0.074
-0.016
-0.016
-0.058
-0.005
0.074
-0.017
0.092
-0.031
0.082
0.126
-0.021
-0.023
0.108
-0.030
-0.060
-0.081
0.002
0.039
0.008
-0.131
0.089
-0.086
-0.036
0.121
-0.043
-0.123
-0.025
0.015
-0.051
0.015
-0.090
0.051
0.127
0.059
0.097
0.105
-0.093
0.021
-0.025
0.086
0.069
-0.001
0.040
0.325
-0.304
-0.168
0.024
0.054
0.034
0.098
0.111
-0.087
-0.036
0.412
-0.194
-0.184
-0.024
0.002
0.013
0.059
0.079
0.010
0.246
-0.168
-0.191
-0.013
-0.051
0.010
0.140
0.074
0.366
-0.179
-0.091
-0.124
0.150
0.135
0.064
-0.029
-0.073
0.062
0.085
0.001
0.132
0.127
-0.110
-0.031
0.093
0.005
0.195
-0.066
-0.222
-0.031
0.052
0.150
0.175
0.186
-0.164
-0.146
0.005
0.094
0.022
0.059
-0.031
-0.005
0.089
0.054
-0.121
-0.014
0.149
0.023
0.156
-0.005
0.021
-0.023
0.098
-0.140
0.012
0.056
0.074
-0.109
0.033
0.090
0.088
0.140
-0.166
-0.045
-0.044
-0.061
0.019
0.020
0.073
0.041
-0.049
0.017
0.080
0.141
-0.022
-0.164
-0.063
0.052
0.124
-0.067
0.013
0.065
0.110
-0.147
0.047
0.070
0.062
0.057
-0.056
-0.191
0.177
0.231
0.190
-0.084
-0.019
0.013
-0.031
0.063
0.088
0.059
-0.149
-0.041
0.082
0.117
-0.033
0.037
0.066
0.068
-0.114
0.041
-0.016
-0.029
0.052
-0.092
0.100
0.074
0.103
0.048
0.080
0.017
0.017
-0.247
-0.048
0.165
0.023
-0.063
0.131
0.060
0.049
-0.096
-0.063
0.302
0.019
-0.112
0.045
0.093
0.045
0.165
0.072
-0.146
0.064
0.123
0.123
0.044
-0.006
-0.089
-0.058
-0.039
0.084
-0.083
0.009
0.030
0.086
0.125
-0.091
-0.069
-0.014
0.138
-0.007
-0.090
0.050
0.173
0.050
0.092
0.043
-0.046
-0.074
0.071
0.005
-0.151
-0.008
0.325
0.167
0.212
-0.056
-0.157
-0.085
-0.024
0.153
0.025
-0.083
0.043
0.116
0.157
-0.038
-0.042
-0.060
0.066
0.036
-0.026
-0.057
0.055
-0.021
-0.277
0.161
0.296
0.155
0.014
-0.066
0.028
-0.010
-0.268
-0.168
0.139
0.162
0.107
0.029
0.105
-0.061
0.019
0.027
0.012
0.139
0.132
-0.041
0.119
0.046
0.188
0.138
-0.008
0.020
-0.035
0.050
0.001
-0.164
-0.017
0.213
0.121
0.219
0.069
-0.028
-0.168
-0.162
0.087
0.070
0.062
-0.046
-0.014
-0.004
0.091
0.026
-0.106
-0.046
0.016
0.021
-0.054
-0.127
0.063
-0.025
0.054
-0.094
0.097
0.075
-0.020
0.236
0.086
0.064
0.025
-0.006
-0.026
-0.056
-0.069
-0.108
0.169
0.273
0.055
0.011
-0.032
-0.036
-0.043
-0.102
0.209
0.125
0.061
-0.405
0.322
0.222
0.110
-0.442
0.085
0.219
0.023
-0.221
0.135
0.122
-0.072
-0.085
-0.077
0.086
0.179
-0.144
0.144
0.095
-0.073
-0.384
0.264
0.244
0.068
-0.143
0.008
-0.005
0.072
-0.180
0.051
0.171
0.013
0.068
-0.007
-0.013
-0.036
-0.346
0.319
0.158
0.093
-0.030
0.027
-0.009
-0.038
0.102
-0.069
-0.044
0.054
0.120
0.074
-0.005
0.088
0.049
-0.032
-0.081
0.060
0.160
0.023
-0.024
0.043
0.086
0.114
-0.050
-0.019
0.099
0.129
-0.015
0.006
-0.063
-0.037
0.102
0.061
0.025
-0.027
-0.044
-0.143
0.075
0.085
-0.025
0.033
0.082
-0.018
-0.070
0.072
-0.016
0.047
-0.137
0.014
0.072
0.016
-0.003
0.108
-0.024
-0.018
0.067
-0.055
-0.011
0.131
0.135
-0.077
0.137
0.151
0.022
-0.013
-0.048
-0.020
-0.044
-0.051
0.152
0.110
0.019
-0.103
-0.036
-0.029
0.094
-0.019
-0.009
-0.118
0.020
0.102
-0.016
0.122
0.000
-0.015
-0.036
-0.052
-0.085
0.006
0.074
0.001
0.063
0.143
-0.015
-0.126
0.025
0.063
-0.020
0.079
0.010
0.039
0.089
-0.115
0.110
-0.061
0.080
0.107
0.011
-0.037
0.088
0.004
0.049
-0.063
0.144
0.024
0.057
0.067
0.007
0.021
-0.048
0.016
0.047
0.063
-0.073
-0.015
0.063
-0.152
0.079
0.003
0.102
0.052
-0.081
-0.051
0.090
0.050
-0.063
0.020
0.127
-0.045
-0.018
0.043
0.112
0.049
0.151
-0.013
0.029
-0.072
-0.062
0.014
0.112
0.047
0.023
-0.017
-0.039
-0.024
0.009
-0.047
0.104
-0.005
0.067
0.092
-0.059
0.216
-0.000
0.089
-0.007
0.082
0.031
0.044
0.117
0.135
0.059
0.127
0.196
0.783
1.213
0.825
0.532
0.090
0.219
0.204
0.165
0.329
0.590
0.246
0.250
0.176
-0.010
0.020
-0.266
-0.364
-0.356
-0.277
-0.385
-0.287
-0.130
-0.096
0.024
0.048
-0.037
0.087
0.164
0.212
0.134
0.196
0.192
0.160
0.242
0.219
0.152
0.217
0.164
-1.139
-3.323
1.468
3.889
4.531
2.942
-1.013
-2.978
-2.465
-1.620
-0.410
1.100
2.454
3.778
4.292
4.291
3.941
3.178
2.194
1.019
-0.048
-0.923
-1.556
-1.956
-2.197
-2.006
-1.817
-1.434
-0.932
-0.863
-0.235
0.103
0.230
0.208
0.279
0.398
0.355
0.573
0.556
0.140
-0.487
-0.657
-1.921
-3.306
-2.683
-0.138
1.770
-1.077
-1.678
0.456
1.296
0.938
0.706
0.599
0.827
1.233
1.833
2.391
2.881
2.797
3.489
4.032
3.293
2.030
0.950
0.177
-0.028
-0.243
-0.397
-0.492
-0.654
-0.744
-0.772
-0.907
-1.080
-0.896
-0.964
-1.731
-3.919
-0.571
0.994
0.717
-0.097
-0.678
-0.835
-0.949
-0.667
-0.364
0.087
0.306
0.363
0.534
0.375
0.315
0.239
0.333
0.290
-0.014
0.188
0.221
0.031
0.019
0.227
0.250
0.552
0.457
0.326
0.518
0.454
0.452
0.463
0.623
0.417
-1.045
-3.150
-3.552
2.307
4.354
4.856
2.500
-1.688
-3.558
-3.585
-1.103
1.300
2.765
3.951
4.409
4.383
4.212
3.987
3.435
2.243
0.875
-0.212
-1.171
-2.053
-2.331
-2.529
-2.547
-2.115
-1.823
-1.442
-0.974
-0.616
-0.382
-0.387
-0.048
0.004
0.172
0.212
0.140
0.147
0.205
0.269
0.298
0.271
0.219
0.257
0.410
0.600
0.632
0.594
0.570
0.588
0.680
0.719
0.667
0.754
0.666
0.648
0.597
0.535
0.531
0.581
0.507
0.506
0.301
0.300
0.330
0.301
0.229
0.186
0.196
0.246
0.019
0.136
-0.029
-0.044
-0.098
-0.148
-0.020
-0.117
-0.114
-0.388
-0.290
-0.350
-0.182
-0.400
-0.297
-0.361
-0.403
-0.307
-0.318
-0.359
-0.449
-0.486
-0.280
-0.398
-0.366
-0.380
-0.309
-0.236
-0.155
-0.301
-0.164
-0.047
-0.315
-0.241
-0.061
0.015
-0.057
-0.304
-0.065
0.117
0.093
0.222
0.179
0.131
-0.058
-0.016
0.055
0.144
0.237
0.287
0.281
0.245
0.143
0.166
0.043
-0.043
-0.459
-0.026
-0.140
-0.233
0.122
0.532
0.474
0.250
0.088
-0.010
0.076
-0.017
0.171
0.195
0.302
0.427
0.391
0.210
0.225
0.115
0.070
-0.047
-0.076
0.003
-0.136
-0.150
-0.104
-0.092
-0.137
-0.067
0.036
-0.055
-0.110
0.025
-0.113
-0.040
0.039
0.049
-0.015
-0.136
0.062
-0.093
-0.013
-0.024
0.003
-0.014
0.027
-0.015
-0.015
0.071
0.013
0.005
0.131
0.045
-1.908
-3.694
1.726
3.834
4.367
3.346
-1.930
-3.917
-4.420
-3.645
-0.195
2.999
4.223
4.482
4.421
4.268
4.076
3.066
-2.609
1.062
2.914
1.873
-1.024
-3.089
-3.959
-3.924
-3.032
-1.623
-0.187
0.815
1.661
1.826
1.766
1.605
1.189
0.837
0.336
-0.011
-0.231
-0.278
-0.415
-0.326
-0.228
-2.175
-3.450
-0.436
3.631
4.793
5.053
4.761
1.209
-2.242
-3.478
-2.366
0.122
2.984
4.467
4.799
4.771
4.615
4.394
3.445
2.087
0.529
-0.697
-1.529
-1.972
-2.170
-2.256
-1.888
-1.344
-0.979
-0.487
-0.010
-1.808
-3.446
0.215
3.668
4.656
4.844
0.864
-2.801
-3.805
-4.001
-2.427
0.906
3.936
4.863
5.000
4.900
4.730
4.531
4.394
3.326
1.601
-0.091
-1.105
-1.568
-1.631
-1.620
-1.248
-0.924
-0.651
-0.444
-0.238
-0.110
-0.039
0.010
-0.133
0.043
-0.003
0.069
0.049
-0.047
0.134
-0.001
0.132
0.291
0.317
0.181
0.290
0.467
0.299
0.411
0.516
0.436
0.423
0.336
0.282
-0.344
-0.054
0.797
0.773
0.284
-0.060
-0.576
-0.350
0.502
0.646
0.295
0.091
-0.058
-0.354
-1.057
-1.002
-1.671
-2.511
-0.010
1.456
0.433
-0.753
-0.050
0.320
0.039
-0.293
-0.225
0.100
0.215
0.394
0.588
0.987
0.950
0.753
0.759
0.581
0.053
-0.446
-0.933
-0.871
-0.829
-0.781
-0.771
-0.677
-0.605
-0.476
-0.297
-0.386
-0.932
-2.834
-4.188
0.308
3.282
4.103
-0.322
-3.362
-1.834
-1.057
-1.416
-0.573
1.254
3.275
4.267
4.455
4.413
4.258
4.060
3.274
2.071
0.810
-0.582
-1.629
-2.319
-2.606
-2.678
-2.040
-1.531
-0.915
-0.393
0.028
0.263
0.566
0.687
0.700
0.712
0.573
0.550
0.603
0.541
0.465
0.450
0.506
0.514
-1.531
-1.741
0.543
-2.373
1.801
4.391
5.070
3.002
-0.987
-3.108
-3.490
-2.119
-0.036
2.441
4.205
4.824
4.842
4.711
4.459
3.653
2.110
0.980
-0.033
-0.613
-0.993
-1.119
-1.241
-1.179
-3.572
0.429
-1.789
-0.639
1.507
2.526
1.989
0.021
-3.036
-3.766
-1.051
0.928
1.512
1.644
1.601
1.808
0.308
0.364
0.523
0.629
0.508
0.397
0.345
0.383
0.799
1.591
1.281
-0.186
0.400
-2.089
-1.321
2.169
3.403
2.095
0.276
0.683
-0.108
-2.251
0.572
2.645
2.755
1.976
1.014
0.362
0.110
-0.131
-2.136
-1.623
2.623
3.934
2.948
1.253
-0.264
-0.840
-0.756
0.293
0.586
0.239
-0.922
-3.133
-0.434
1.978
2.621
2.114
1.104
0.129
-0.522
-0.829
-0.628
-0.509
-0.451
-0.136
0.122
0.415
0.533
0.653
0.458
0.454
0.395
0.245
0.297
0.103
-0.001
0.058
-0.021
0.190
0.020
0.011
0.077
0.217
0.104
0.173
0.137
0.145
0.124
0.180
0.196
0.146
0.170
0.047
0.073
0.113
-0.051
-0.199
0.325
0.341
0.145
-0.104
-0.164
-0.077
-0.055
-0.055
0.082
0.409
-0.516
-0.445
-0.073
0.103
-0.032
-0.015
-0.013
0.484
1.280
1.032
0.352
-0.047
-0.039
0.041
0.168
0.385
0.344
0.351
0.259
0.081
0.006
-0.108
-2.439
-3.909
1.191
3.513
3.405
1.006
-1.043
-2.114
-2.530
-3.882
-4.171
1.016
3.807
4.342
2.970
1.190
-0.003
-0.765
-0.914
-0.423
-0.023
1.164
1.931
2.324
1.987
1.652
0.827
-1.087
1.286
1.885
1.543
0.750
0.092
-0.172
-0.271
-0.168
-1.424
-1.845
-1.237
-0.481
-0.262
-0.148
0.154
-0.006
-0.216
-0.238
-0.250
-0.291
-0.198
0.136
0.565
0.666
1.199
0.388
-2.419
1.329
3.866
4.029
0.342
-3.038
-1.575
0.729
1.481
1.221
0.695
0.116
0.010
-0.046
0.151
0.340
0.337
0.564
0.927
1.176
1.385
0.750
0.112
-0.224
-2.853
-3.838
-2.540
0.336
1.581
1.271
0.120
-0.868
-1.312
-1.445
-1.095
-0.724
-0.316
0.185
0.533
0.842
0.848
0.597
0.650
0.461
0.386
0.230
0.112
0.040
-0.088
0.066
-0.113
-0.086
-0.049
0.166
0.216
0.133
0.151
0.158
0.244
0.271
0.286
0.221
0.169
0.210
0.103
0.200
0.263
0.067
0.084
0.193
0.089
0.110
0.037
0.064
0.186
0.091
0.126
0.096
0.133
-0.010
-0.053
0.091
0.007
-0.116
-0.034
0.144
0.058
0.071
0.049
-0.127
0.021
-0.038
-0.006
0.047
-0.043
-0.025
-0.097
-0.051
-0.015
-0.046
-0.017
0.010
0.053
-0.037
-0.082
-0.044
-0.057
0.080
-0.057
-0.009
-0.009
0.024
-0.001
-0.092
-0.045
0.072
-0.061
0.101
0.052
0.122
0.011
-0.055
-0.088
0.072
0.075
0.105
0.085
-0.201
0.028
0.005
0.011
-0.113
0.215
0.014
-0.008
-0.038
-0.054
0.052
0.094
0.092
0.024
-0.119
0.045
-0.012
-0.053
-0.009
0.007
-0.079
0.101
0.084
-0.054
0.008
-0.020
0.073
-0.046
0.013
0.025
0.002
0.074
0.060
0.007
-0.030
0.060
0.236
0.005
-0.108
-0.083
0.112
0.098
-0.107
0.112
0.033
0.086
0.042
-0.032
0.039
0.073
-0.022
0.040
0.016
0.155
0.076
0.030
0.022
0.092
0.047
0.051
0.018
0.178
0.092
-0.000
0.041
0.115
0.148
-0.033
-0.066
0.125
0.044
0.020
0.135
0.028
0.014
-0.139
0.192
0.101
0.075
0.033
-0.058
-0.065
0.074
0.010
-0.024
0.002
0.016
0.026
0.025
-0.140
0.008
0.079
-0.102
-0.017
0.046
0.063
-0.055
-0.036
0.057
0.068
-0.046
-0.024
-0.054
0.089
0.073
-0.062
-0.080
-0.053
-0.055
-0.063
0.007
0.001
0.028
-0.046
-0.069
0.050
-0.020
-0.103
0.061
0.117
0.084
-0.038
-0.104
-0.040
-0.014
0.043
0.019
-0.009
0.067
0.047
-0.061
0.056
0.003
-0.050
0.044
0.224
0.054
0.113
-0.021
-0.093
0.069
0.093
-0.091
0.087
0.105
0.102
0.003
-0.028
0.040
0.031
0.192
0.102
0.030
-0.019
0.058
-0.119
0.029
0.023
0.025
0.039
-0.054
0.014
0.032
0.051
0.013
0.006
0.033
-0.099
0.147
-0.015
0.023
0.079
0.027
-0.020
0.013
-0.088
-0.002
-0.002
-0.037
0.031
0.022
-0.036
0.119
0.021
-0.082
0.047
0.043
0.043
-0.128
0.040
-0.028
-0.011
-0.046
0.016
0.118
0.092
-0.054
-0.052
0.099
0.051
0.029
0.080
0.079
0.043
-0.011
0.056
0.032
0.091
0.021
0.040
0.017
-0.051
-0.022
0.034
-0.037
0.040
-0.057
0.108
0.138
-0.044
0.007
-0.022
0.129
0.018
-0.043
-0.011
0.036
0.042
0.077
-0.049
0.117
-0.001
-0.023
0.124
-0.009
-0.023
-0.009
-0.018
0.058
0.047
0.075
0.024
0.040
-0.065
-0.017
0.113
0.008
-0.073
0.167
0.051
0.064
0.101
0.012
-0.071
0.016
-0.053
0.010
0.223
-0.065
-0.147
0.134
0.092
0.007
-0.161
-0.030
-0.047
0.045
0.069
0.008
-0.039
-0.010
0.055
0.057
0.011
0.030
-0.013
-0.003
-0.038
0.063
0.064
0.038
-0.066
0.049
0.072
-0.074
-0.046
0.042
0.113
0.035
-0.039
0.007
-0.013
0.023
0.050
-0.056
-0.063
0.042
0.129
-0.001
0.085
-0.125
-0.053
0.065
-0.079
-0.030
0.081
0.046
0.073
0.007
-0.014
-0.038
-0.150
0.151
0.038
0.024
-0.114
0.031
-0.006
-0.064
0.111
0.069
-0.048
0.011
0.046
0.014
0.027
-0.005
-0.032
-0.025
-0.013
0.040
0.073
-0.005
-0.041
-0.024
0.114
0.046
0.004
-0.025
-0.112
-0.023
0.112
0.113
0.078
-0.099
0.067
0.063
-0.048
0.088
0.018
-0.082
-0.048
0.129
0.047
-0.049
0.180
0.017
0.067
0.004
0.051
-0.002
-0.068
0.066
0.061
-0.014
-0.013
0.114
-0.081
0.112
0.053
0.052
0.009
-0.001
-0.043
-0.071
0.086
0.012
0.159
0.102
-0.067
0.076
0.111
0.099
-0.013
-0.005
0.042
-0.113
0.064
0.005
0.055
0.005
0.097
0.001
-0.032
0.031
0.032
-0.055
0.054
0.091
-0.023
0.035
0.074
0.228
1.101
1.025
0.757
-1.817
-2.058
0.739
1.958
-0.398
-0.043
0.254
0.206
-0.110
-0.363
-0.311
-0.221
0.063
0.178
-0.392
-0.380
0.048
0.473
0.514
0.512
0.172
0.156
0.023
-0.097
-0.089
-0.117
-0.041
-0.043
0.021
0.069
0.053
0.014
0.075
0.129
0.212
1.218
1.098
0.788
0.253
-0.146
-0.917
-3.348
-0.521
2.770
3.041
1.638
0.406
-0.523
-0.599
-0.504
-0.279
0.110
0.361
0.439
0.466
0.610
0.430
0.251
0.189
-0.131
-0.250
-0.293
-0.493
-0.861
-3.051
-3.975
-0.921
3.171
4.368
2.851
0.195
-1.589
-2.404
-1.959
-1.139
0.138
1.307
2.316
2.939
2.982
2.441
2.162
1.535
0.876
0.233
-0.320
-0.505
-0.606
-0.902
-0.801
-0.637
-0.552
-0.345
-0.248
-0.263
-0.039
0.149
0.163
0.142
0.155
-0.063
0.152
0.125
0.189
0.039
0.106
0.130
0.083
0.174
0.169
0.021
0.236
0.122
0.204
0.262
0.294
0.212
0.092
0.113
0.261
0.188
0.068
0.225
0.254
0.187
0.155
0.121
0.080
0.124
0.200
0.105
0.016
0.229
0.104
0.054
0.130
0.016
0.092
-0.011
0.081
-0.062
0.074
0.061
0.087
-0.063
-0.113
-0.070
-0.062
0.014
0.028
-0.041
-0.093
-0.122
-0.041
-0.075
-0.104
0.004
0.126
0.236
-0.679
-0.316
-0.032
0.152
0.093
0.068
-0.142
-0.141
-0.081
-0.037
-0.099
-0.093
-0.064
0.107
0.075
-0.028
-0.005
0.049
0.056
-0.006
0.015
0.003
0.018
0.084
0.099
-0.042
0.068
0.001
0.177
0.002
0.028
0.056
0.084
0.017
0.129
-0.026
0.042
0.067
0.149
0.035
0.098
0.112
-0.012
-0.065
-0.046
0.144
0.116
-0.011
-0.020
0.058
0.082
0.046
-0.145
0.140
0.050
-0.006
0.189
-0.049
0.044
0.097
0.010
-0.046
-0.022
-0.043
0.123
0.092
-0.016
-0.020
-0.040
-0.020
-0.014
0.109
0.030
0.020
0.085
0.150
0.028
0.142
-0.024
-0.016
0.095
0.030
0.166
0.084
0.066
0.011
-0.122
0.026
-0.042
0.007
0.037
0.069
0.000
0.029
-0.125
0.068
-0.075
-0.052
-0.017
0.024
0.018
0.049
-0.006
0.040
0.005
0.085
0.048
0.050
-0.084
0.069
0.059
0.024
-0.046
-0.057
0.145
0.012
0.084
-0.002
0.060
-0.017
0.049
0.021
-0.105
-0.063
0.096
-0.050
-0.035
-0.023
0.113
-0.013
-0.056
-0.005
0.064
0.094
0.033
-0.092
-0.059
0.169
0.126
0.020
0.029
0.023
0.073
0.076
-0.004
-0.309
-0.509
-0.544
-0.069
0.521
1.555
1.492
0.357
-2.700
-2.058
-0.215
0.842
1.032
0.922
0.208
-0.054
-0.180
-0.183
-0.112
-0.129
0.030
0.123
0.238
0.261
0.149
0.014
0.130
0.212
0.160
0.053
-0.017
-0.138
-0.046
-0.009
0.064
-0.011
-0.124
-0.038
-0.072
-0.121
0.031
0.009
0.058
0.071
0.138
0.184
1.248
1.367
0.765
0.202
-0.090
0.088
-0.016
-0.128
0.378
0.361
0.101
-0.648
-1.183
-2.862
-3.500
-1.179
1.210
1.162
0.388
-0.370
-0.823
-0.827
-0.427
0.011
0.403
0.914
1.134
1.212
1.389
1.270
0.913
0.760
0.480
0.361
0.036
-0.187
-0.370
-0.405
-0.391
-0.272
-0.184
-0.234
-0.201
-0.186
-0.028
-0.015
-0.094
-0.087
-0.140
-0.040
-0.039
-0.120
-0.206
-0.073
-0.115
0.108
0.019
-0.011
-0.292
-0.194
0.194
1.110
1.387
0.881
0.155
-3.115
-1.064
1.137
1.593
1.138
1.637
1.021
0.170
-0.322
-0.377
-0.244
0.041
0.485
0.475
0.887
0.253
-0.909
-2.004
-3.387
0.987
3.430
3.370
1.257
-0.553
-1.583
-1.647
-2.713
-3.462
1.011
3.772
4.365
4.248
1.507
-0.482
-1.088
-0.645
-1.055
-0.646
-0.609
0.270
0.977
1.264
0.997
0.733
0.663
0.484
0.248
0.881
0.921
0.622
0.505
0.369
0.411
0.536
0.613
-2.054
-2.649
1.738
3.418
2.468
0.609
-0.888
-1.917
-2.091
-1.597
-0.623
-0.082
0.581
1.622
2.747
1.548
1.478
0.258
0.018
1.894
1.971
1.277
-2.066
-2.002
1.715
3.035
2.214
0.529
-2.052
-3.401
-0.709
1.987
3.115
-0.152
-1.820
-0.503
0.583
0.813
1.459
1.659
1.015
-1.967
-1.173
0.035
1.193
1.347
1.027
0.369
-0.077
-0.184
-0.196
0.038
0.072
-0.049
0.126
0.349
0.339
0.256
0.518
0.287
0.507
0.312
0.199
-0.127
0.029
0.181
0.400
0.328
0.048
-0.032
0.045
0.098
0.160
0.155
0.130
0.134
0.151
0.087
0.070
0.180
0.009
-0.051
0.002
-0.122
-0.037
-0.036
0.038
-0.052
-0.164
0.067
0.248
-0.294
0.087
1.396
1.298
0.759
0.322
-0.034
-0.290
0.118
0.474
0.585
0.609
0.277
0.133
-1.411
-3.751
0.027
3.132
3.167
1.204
-0.774
-1.876
-2.271
-1.882
-1.083
-0.157
0.595
1.264
1.568
1.594
1.429
1.292
0.807
0.534
0.299
0.043
-0.135
-0.371
-0.385
-0.221
0.566
-0.256
-0.647
-0.091
0.621
1.075
-0.275
-0.575
0.082
1.222
2.046
0.045
-1.401
0.968
1.513
0.433
0.016
-0.161
-0.220
-0.362
-2.333
1.160
3.343
2.697
1.231
0.097
-0.643
-0.665
-0.581
-0.011
0.422
0.291
-0.573
-2.159
-3.733
-0.140
3.139
2.939
1.021
-0.476
-1.652
-1.780
-1.446
-0.539
-0.045
0.815
1.235
1.492
1.589
1.529
1.179
0.762
0.470
0.124
-0.165
-0.175
-0.434
-0.464
-0.340
-0.418
-0.341
-0.293
-0.226
-0.168
0.107
0.023
-0.063
-0.057
0.065
0.133
-0.035
-0.067
-0.143
0.046
0.032
-0.147
-0.086
-0.156
-0.070
-0.029
0.032
-0.017
0.080
0.064
0.057
-0.071
0.103
0.160
0.125
-0.077
-0.038
0.057
0.127
0.092
0.174
0.318
-0.076
-0.538
-0.558
0.006
0.533
0.159
0.002
-0.010
-0.038
0.076
0.028
-0.199
-0.092
0.125
0.103
0.276
0.163
0.084
0.037
0.067
0.060
0.075
0.109
-0.116
0.026
0.055
0.064
-0.076
0.135
0.034
0.073
-0.027
-0.044
0.031
0.064
-0.026
0.013
0.026
0.080
-0.064
0.111
0.044
-0.123
0.131
-0.046
-0.030
0.008
0.032
-0.005
0.050
0.164
-0.034
-0.042
-0.010
-0.037
0.065
-0.024
0.050
-0.038
0.005
0.130
0.006
0.027
-0.035
0.027
0.087
-0.084
-0.136
-0.074
0.179
0.805
0.872
-0.628
-0.397
-0.259
-0.272
-0.009
0.212
1.066
1.440
-1.754
-0.937
0.433
0.458
-1.403
-0.645
0.303
0.489
0.290
0.036
-0.056
-0.214
-0.117
-0.084
0.008
0.200
0.245
0.375
0.295
0.261
0.182
0.018
0.097
0.065
-0.152
0.001
-0.000
-0.087
-0.001
-0.001
-0.034
-0.048
0.024
-0.034
0.163
-0.017
-0.043
0.137
0.076
-0.152
-0.029
0.096
0.062
0.176
-0.099
0.159
0.049
0.062
-0.022
-0.039
0.053
0.093
-0.008
0.151
0.028
0.002
0.125
-0.096
0.040
0.161
0.102
-0.038
0.011
-0.001
0.067
0.058
0.035
0.005
0.039
0.074
-0.025
0.013
0.047
-0.037
0.023
-0.028
0.085
0.031
-0.006
0.154
-0.106
-0.012
0.014
0.030
-0.046
0.002
0.041
-0.043
-0.004
0.090
0.018
0.031
-0.009
-0.023
-0.049
0.105
0.089
-0.010
0.094
0.030
-0.042
0.067
0.107
-0.035
-0.004
0.156
0.002
0.009
-0.022
-0.052
0.037
0.064
-0.042
0.022
-0.069
-0.002
0.052
0.073
0.024
-0.042
-0.029
0.036
0.008
0.012
0.024
0.112
0.109
0.003
0.033
0.130
0.082
-0.019
-0.024
0.065
0.007
0.041
0.044
0.058
0.101
-0.114
0.093
0.085
0.054
0.009
0.036
-0.086
-0.041
-0.083
0.117
-0.097
0.094
0.035
-0.060
0.072
-0.002
-0.028
-0.074
0.023
0.167
0.092
0.015
-0.031
0.064
0.057
-0.023
0.004
-0.005
-0.009
0.085
0.096
-0.055
0.048
0.004
-0.019
0.088
-0.079
0.037
0.057
0.081
0.078
0.033
-0.018
-0.135
-0.026
0.105
-0.032
0.085
0.073
0.041
-0.099
0.100
-0.074
-0.088
0.099
0.111
0.125
0.025
-0.032
0.019
-0.029
0.108
0.048
0.028
-0.074
0.042
0.035
0.005
0.087
-0.044
0.058
0.058
0.072
0.029
0.097
-0.102
-0.028
0.133
0.036
-0.021
0.207
0.158
0.125
-0.156
-0.082
0.138
0.059
-0.099
0.115
0.089
0.121
0.020
0.028
-0.064
-0.047
0.160
0.157
0.587
0.734
1.066
0.785
0.415
0.207
0.198
0.157
0.394
0.373
0.306
0.524
0.383
0.242
-0.099
-0.204
-0.285
-0.310
-0.321
-0.206
-0.363
-0.271
-0.193
-0.071
0.080
-0.032
-0.092
0.057
0.189
0.230
0.082
0.109
0.196
0.226
0.148
0.014
-0.132
-0.051
0.109
0.216
-0.016
0.174
-1.643
-3.438
0.672
3.700
4.544
2.874
-1.248
-3.389
-2.624
-3.711
-1.912
1.218
3.305
4.116
4.183
3.912
3.404
2.395
1.451
0.719
-0.209
-0.505
-0.930
-1.193
-1.265
-1.263
-0.923
-0.762
-0.610
-0.651
-0.483
-0.318
-0.148
-0.067
0.004
0.002
0.214
0.709
0.852
0.413
-0.887
-1.100
-0.446
0.332
0.656
0.600
0.402
0.035
-0.219
-0.017
0.291
0.335
0.300
0.124
0.410
0.502
0.598
0.548
0.570
0.546
0.663
0.672
0.492
0.585
0.520
0.441
0.383
0.492
0.250
0.035
0.124
0.280
0.143
0.103
0.032
-0.018
-0.105
0.088
-0.013
-0.036
-0.278
-0.061
-0.094
-0.141
-0.212
-0.111
-0.057
-0.143
-0.178
-0.172
-0.249
-0.333
-0.219
-0.198
-0.167
-0.214
-0.179
-0.071
-0.228
-0.237
-0.172
-0.125
-0.127
-0.155
-0.145
-0.059
-0.001
0.033
-0.035
-0.174
-0.052
-0.012
-0.069
-0.080
-0.060
0.169
0.071
-0.041
0.021
0.134
0.066
0.058
0.029
0.030
0.069
0.140
0.233
0.012
-0.015
0.136
0.040
0.311
0.167
0.051
-0.025
0.008
0.139
0.129
-0.010
0.062
0.144
-0.003
0.036
0.022
0.082
-0.100
0.067
-0.001
0.029
0.003
0.145
0.076
-0.036
-0.015
0.077
-0.009
0.098
-0.038
-0.002
0.027
-0.004
-0.046
-0.196
-0.009
0.052
0.040
0.057
0.004
-0.011
0.002
0.028
0.063
0.043
-0.079
-0.001
0.125
0.082
0.011
0.042
0.101
0.022
-0.031
0.125
0.108
0.116
0.071
-0.024
-0.010
0.104
0.192
0.147
0.042
0.012
-0.050
0.066
0.203
0.091
-0.105
-0.170
0.115
0.178
0.560
1.146
1.138
-1.645
-1.286
-0.260
0.055
0.229
0.587
1.427
1.380
0.145
-2.239
-3.289
-0.800
0.818
1.064
0.678
0.245
-0.128
-0.259
-0.291
-0.332
-0.162
0.027
0.125
0.230
0.233
0.429
0.438
0.211
0.175
0.016
-0.005
0.113
0.016
-0.124
-0.059
-0.156
-0.082
-0.177
-0.095
0.079
0.054
-0.051
0.066
-0.027
-0.030
-0.053
0.156
0.152
-0.023
0.045
-0.012
-0.064
0.099
0.053
0.056
0.102
0.183
0.018
0.041
0.009
0.094
0.025
0.078
0.048
0.100
0.062
0.007
0.120
0.101
0.038
0.040
-0.016
0.122
0.022
0.019
-0.028
0.176
0.044
-0.023
0.032
0.009
-0.014
-0.097
0.111
0.139
0.241
-0.023
-0.054
-0.021
-0.004
0.006
0.070
-0.015
0.064
0.011
0.079
-0.065
0.032
-0.065
0.142
0.079
-0.036
-0.061
-0.052
-0.070
0.013
-0.041
0.029
-0.079
0.052
-0.079
0.037
-0.010
0.006
0.044
0.003
0.062
0.056
-0.006
-0.007
0.112
0.014
0.095
0.025
0.157
0.451
1.045
0.448
-2.224
-0.980
0.327
0.664
0.471
0.164
-0.052
-0.048
-0.172
-0.144
-0.118
-0.093
0.041
0.064
0.234
0.163
0.195
0.143
0.173
0.052
-0.055
0.129
0.029
0.002
-0.047
-0.052
0.079
-0.035
-0.033
0.081
0.106
-0.145
-0.059
0.012
0.021
0.046
0.003
-0.046
-0.037
0.143
0.021
0.024
0.023
-0.099
0.020
0.062
-0.035
-0.059
-0.013
0.037
0.051
-0.026
-0.030
-0.040
0.110
0.016
-0.027
0.032
0.000
0.050
0.011
-0.045
0.011
-0.006
-0.003
-0.102
-0.015
0.025
0.185
0.067
-0.028
-0.039
-0.059
0.041
-0.062
0.012
0.081
0.114
0.022
0.030
-0.107
0.150
-0.057
-0.028
0.105
-0.012
0.157
-0.049
0.106
-0.020
0.046
0.038
0.016
0.185
-0.189
-0.040
-0.001
0.152
0.086
0.033
-0.027
0.061
-0.116
0.026
-0.005
0.097
0.130
0.015
-0.002
0.106
0.011
-0.095
0.109
-0.025
0.043
0.100
0.152
0.017
-0.056
-0.050
0.005
0.065
-0.022
0.051
-0.093
0.042
0.083
0.029
0.073
-0.053
-0.099
0.037
-0.051
0.138
0.072
0.018
0.010
-0.112
0.044
0.051
-0.003
0.116
-0.069
0.006
0.022
0.016
0.042
-0.036
0.115
0.059
-0.151
0.004
0.200
-0.009
-0.051
-0.013
-0.003
0.057
0.001
0.002
0.082
0.063
-0.081
-0.032
0.087
-0.049
0.034
0.020
0.149
0.051
-0.042
-0.008
0.054
-0.071
0.057
-0.088
0.028
0.051
-0.031
-0.004
0.087
-0.031
-0.082
0.021
-0.037
-0.038
0.038
-0.002
0.055
0.093
-0.086
0.014
-0.001
0.064
0.027
0.037
-0.103
-0.155
0.004
0.155
-0.059
0.130
0.102
0.056
-0.036
-0.006
-0.022
-0.065
0.001
0.032
0.063
0.179
0.043
0.058
0.003
-0.140
-0.095
0.071
0.139
0.002
0.043
-0.025
0.108
0.036
0.079
-0.030
-0.010
0.126
0.022
0.005
0.077
-0.036
0.125
0.066
-0.067
-0.069
-0.039
-0.069
0.127
0.048
-0.107
0.035
0.016
0.020
0.085
-0.132
0.050
0.032
-0.028
0.055
0.009
0.068
0.065
-0.003
0.065
-0.010
0.126
-0.030
0.036
-0.030
0.020
0.070
0.052
0.053
-0.052
0.082
-0.037
0.009
0.010
-0.083
-0.022
-0.006
0.151
0.052
-0.055
0.026
-0.060
0.117
0.002
0.058
0.083
-0.049
0.113
0.017
-0.015
0.132
-0.047
0.021
-0.040
-0.108
0.037
0.040
-0.069
0.044
0.041
0.077
0.010
-0.043
-0.074
0.127
-0.020
-0.056
0.104
0.044
0.083
0.081
-0.145
0.237
0.346
-0.080
-0.445
0.613
1.503
1.044
0.677
-1.554
-2.728
-1.543
2.094
0.714
-0.544
0.080
0.255
0.026
-0.518
-0.586
-0.526
-0.304
-0.233
0.171
0.435
0.818
1.784
-1.115
-0.218
0.463
0.949
0.224
0.299
0.228
0.130
-0.742
-0.006
0.123
0.457
-1.370
-0.195
1.611
1.619
0.969
-2.198
-1.052
1.738
-1.400
-0.360
0.560
0.886
0.445
0.878
-1.301
0.184
0.880
0.685
0.323
0.290
-1.391
-0.919
1.882
1.921
-0.420
-0.813
-1.977
-1.218
0.234
0.496
0.008
-0.302
-0.528
-0.531
-0.352
0.123
0.425
0.686
1.560
2.182
1.865
1.182
0.588
0.381
0.279
0.234
0.219
-1.179
-2.427
1.999
2.363
0.091
-0.305
-0.608
-0.957
-1.157
-1.147
-0.852
-0.407
0.230
0.476
0.859
1.092
1.065
1.451
1.270
-0.569
-0.009
-0.081
0.054
0.192
-0.003
-0.048
-0.121
-0.135
0.041
-0.137
-0.082
0.004
-0.059
0.137
0.219
0.330
0.361
0.379
0.632
-0.485
-0.257
0.588
-0.105
0.053
0.803
-0.295
-0.625
0.076
0.253
0.498
1.675
1.230
-2.137
-1.589
0.049
0.784
0.820
0.442
0.126
0.003
-0.223
-0.197
-0.320
-0.094
0.037
0.048
0.137
0.191
0.092
0.204
0.081
0.290
0.531
0.083
-0.539
-0.355
-0.180
0.062
-0.011
0.126
0.075
0.090
0.982
1.213
0.037
-2.731
0.102
2.155
1.857
0.645
-2.480
-2.825
-0.987
0.834
1.491
1.257
1.205
0.768
0.013
-0.390
-0.222
-0.053
0.349
0.659
0.724
0.845
0.816
0.669
0.292
0.314
0.039
-0.308
-0.353
-0.381
-0.488
-0.493
-0.429
-0.166
-0.204
-0.058
0.055
0.130
0.084
0.162
0.192
0.108
0.252
0.225
0.253
0.147
0.153
0.212
0.324
0.140
0.026
0.109
0.124
0.226
0.145
0.105
0.159
0.190
0.312
0.145
0.214
0.066
0.111
0.037
0.183
0.062
0.121
0.073
-0.204
-0.238
0.391
0.481
0.316
0.007
-0.138
-0.178
-0.113
0.001
-0.032
-0.184
-0.203
-0.030
-2.787
-4.037
0.494
3.396
4.213
3.320
-1.332
-3.809
-4.453
-3.611
0.069
1.506
-0.076
3.050
4.101
4.298
4.238
3.887
2.581
0.974
-0.438
-1.198
-1.940
-2.135
-2.027
-1.748
-1.327
-0.966
-0.588
-0.238
-0.071
0.188
0.311
0.510
0.291
0.307
0.364
0.394
0.232
0.170
0.310
0.198
0.154
0.435
0.394
0.318
0.323
0.540
0.524
0.512
0.557
0.419
0.431
0.524
0.516
0.524
0.422
0.371
0.520
0.549
0.454
0.397
0.237
0.244
0.330
0.210
0.272
0.254
0.266
0.118
0.196
0.183
0.104
0.036
0.070
-0.021
-0.147
-0.047
0.162
-0.144
-0.140
-0.121
0.159
-0.082
-0.266
-0.204
-0.104
-0.099
-0.185
-0.243
-0.199
-0.122
-0.188
-0.100
-0.093
-0.235
-0.158
-0.163
-0.113
-0.155
-0.106
-0.080
-0.238
-0.023
-0.134
-0.115
-0.031
-0.117
-0.014
-0.101
-0.091
-0.035
-0.030
-0.049
-0.078
0.073
-0.009
0.136
-0.054
-0.037
-0.063
0.095
0.067
0.086
-0.040
-0.000
-0.026
0.036
0.179
0.164
0.113
-0.113
-0.080
0.123
0.038
0.088
0.113
-0.075
0.055
0.043
-0.026
0.030
0.127
-0.051
0.045
-0.001
0.038
0.063
-0.142
0.086
0.153
0.040
0.035
0.035
-0.106
0.081
0.117
0.008
0.116
0.019
0.159
0.090
-0.129
0.035
0.094
0.160
0.044
0.069
0.028
0.043
0.070
0.176
0.018
0.078
0.087
0.027
0.123
-0.032
0.007
0.030
0.150
0.084
0.017
0.076
-0.050
-0.027
0.099
-0.007
0.028
0.052
0.073
0.056
-0.071
0.060
0.069
0.126
-0.049
-0.074
-0.052
-0.021
0.047
-0.002
-0.073
-0.035
0.012
-0.033
-0.029
-0.029
0.004
-0.050
0.062
-0.078
-0.094
-0.154
0.026
-0.008
-0.075
-0.055
0.015
0.067
0.083
-0.092
-0.150
-0.046
-0.073
-0.044
0.045
-0.087
-0.077
-0.035
0.082
-0.005
-0.013
0.014
0.037
0.032
-0.055
0.005
0.094
0.018
0.095
-0.031
-0.044
-0.001
0.076
0.177
-0.046
0.128
0.040
0.100
-0.003
0.137
0.050
0.065
0.108
0.058
0.161
-0.024
0.065
0.170
0.069
0.057
0.229
-0.011
0.102
0.042
-0.105
0.133
0.170
0.235
0.046
0.029
-0.061
0.037
0.156
-0.046
-0.012
0.105
-0.005
-0.086
-0.025
0.040
0.027
-0.034
0.065
0.014
-0.008
-0.009
0.075
-0.074
0.008
0.018
-0.052
0.031
-0.021
-0.004
-0.101
-0.037
-0.050
-0.040
0.024
0.081
-0.019
0.056
-0.073
-0.015
0.006
-0.068
-0.053
0.011
0.103
0.077
0.087
-0.043
0.011
-0.029
-0.024
0.043
0.112
-0.000
0.027
0.063
-0.046
-0.039
0.005
-0.006
0.057
0.031
0.060
-0.005
0.026
0.026
0.069
0.029
-0.001
0.040
0.190
0.041
0.011
0.082
-0.105
0.147
0.158
-0.058
0.058
0.043
0.019
-0.005
0.180
0.022
0.020
0.052
0.111
-0.017
0.086
0.067
0.013
-0.005
0.004
0.156
0.101
0.073
-0.090
-0.059
0.055
0.018
-0.007
0.045
0.038
0.026
0.027
-0.062
-0.011
0.079
0.022
0.097
0.037
0.025
-0.009
0.093
-0.017
0.048
0.060
0.049
0.121
0.002
-0.037
-0.076
-0.022
0.039
0.024
0.056
-0.074
-0.028
0.070
-0.008
-0.075
0.054
0.053
-0.028
0.143
0.022
-0.048
0.073
0.029
0.011
0.038
-0.074
0.013
0.098
0.077
-0.041
-0.031
-0.129
0.126
0.019
0.024
0.083
0.030
-0.079
0.032
0.088
-0.014
0.005
0.194
0.114
0.008
-0.069
0.010
0.098
0.123
0.058
-0.041
0.002
-0.053
0.052
-0.064
0.000
0.045
0.019
0.104
-0.042
-0.086
0.047
0.091
0.036
0.054
-0.048
-0.049
0.003
0.000
0.103
0.046
0.083
0.168
-0.051
-0.078
0.005
0.075
0.036
0.078
0.119
0.057
0.062
0.030
0.028
0.137
-0.055
0.027
0.033
0.049
-0.023
-0.026
0.097
-0.017
0.063
0.030
-0.169
0.089
0.038
-0.005
0.015
0.023
0.068
0.012
-0.061
-0.032
0.162
0.085
-0.015
-0.003
-0.018
-0.038
0.010
0.106
0.036
-0.024
0.003
0.088
0.029
0.102
-0.025
-0.020
-0.024
0.043
-0.000
0.037
-0.051
0.038
0.061
0.204
0.220
0.075
-0.139
0.021
-0.394
-0.041
0.051
0.221
1.231
1.393
0.789
-0.021
-1.593
-3.240
-1.658
0.695
1.657
1.382
0.468
-0.127
-0.464
-0.887
-0.750
-0.423
-0.123
0.217
0.315
0.452
0.492
0.393
0.450
0.322
0.275
0.106
0.046
0.052
0.009
-0.132
-0.082
-0.059
-0.088
-0.033
-0.037
0.067
-0.199
0.057
0.100
-0.015
0.039
0.106
0.038
-0.035
-0.030
0.016
-0.006
0.042
-0.042
0.043
0.002
-0.002
-0.073
-0.072
0.106
0.110
-0.034
-0.002
-0.025
-0.051
0.105
0.120
0.040
-0.001
0.115
0.064
-0.082
0.022
0.106
0.096
-0.077
0.107
-0.024
-0.010
0.102
0.074
0.056
0.115
-0.005
-0.015
0.088
0.183
-0.040
0.079
-0.042
0.021
0.052
0.137
0.145
0.087
0.018
-0.170
0.074
0.111
-0.019
-0.006
0.016
-0.077
0.075
0.049
0.036
0.102
0.010
0.058
-0.029
0.086
-0.056
0.057
-0.059
0.049
0.069
-0.037
-0.034
0.002
0.038
0.059
-0.096
0.103
0.045
-0.024
0.011
0.097
0.032
0.035
-0.117
0.111
0.172
-0.031
-0.117
-0.024
0.064
0.034
0.076
-0.015
-0.041
0.010
0.152
0.054
-0.032
-0.121
-0.029
-0.034
0.067
0.077
-0.038
0.025
-0.031
-0.032
0.012
0.005
-0.045
0.033
0.049
0.053
0.113
-0.055
0.034
0.021
0.107
0.066
0.024
-0.073
-0.046
-0.028
0.014
0.036
0.109
-0.052
-0.044
-0.067
-0.004
0.059
-0.022
0.007
0.049
-0.064
-0.035
-0.022
0.174
0.048
-0.070
-0.117
0.029
0.046
0.087
0.007
-0.044
0.005
0.007
0.107
0.044
-0.032
0.091
-0.029
-0.029
0.072
0.010
-0.063
-0.009
0.021
0.001
0.088
0.046
0.066
-0.038
0.003
-0.002
-0.046
0.105
-0.063
0.083
0.011
0.036
0.014
-0.210
0.149
0.133
0.028
-0.001
0.067
0.061
-0.103
-0.086
0.124
0.046
0.038
0.082
0.047
-0.014
-0.124
0.039
0.190
0.005
-0.105
0.041
0.028
0.089
-0.010
-0.060
0.064
-0.034
0.012
-0.048
0.067
-0.020
-0.002
0.122
0.031
0.049
0.066
-0.118
0.228
-0.085
0.004
0.033
0.071
0.070
-0.006
0.086
0.131
-0.083
-0.093
-0.065
0.072
0.002
0.000
0.025
0.040
-0.007
0.107
0.022
-0.015
-0.025
-0.001
0.065
0.074
0.016
-0.036
0.102
0.029
-0.001
0.043
0.058
0.035
0.030
0.040
-0.020
-0.001
0.067
0.170
0.020
0.017
-0.068
-0.117
0.059
0.019
0.136
0.062
0.013
0.062
0.001
0.130
-0.079
0.052
0.106
0.040
-0.006
-0.040
-0.074
0.078
0.020
-0.089
-0.044
0.126
0.055
0.049
-0.106
-0.092
0.038
0.029
0.033
0.114
0.075
-0.004
0.003
0.024
0.119
0.017
-0.088
-0.052
0.040
0.024
0.091
0.046
0.038
-0.034
0.035
0.174
0.099
-0.073
0.051
-0.046
-0.019
0.046
0.026
0.118
0.018
0.030
-0.033
0.058
0.010
0.003
-0.005
-0.061
0.223
-0.081
-0.056
-0.052
0.047
0.089
0.112
0.018
0.022
0.077
0.087
-0.038
-0.030
-0.040
0.028
0.039
0.189
0.908
1.428
0.880
-0.159
-0.253
-2.032
-2.495
0.556
2.012
1.842
0.809
-0.394
-0.969
-0.445
0.778
0.599
0.399
0.170
-0.058
-1.964
-1.154
0.712
2.477
2.280
1.064
-2.260
-2.648
0.144
1.416
1.408
1.448
0.709
-0.172
-0.613
-0.454
0.130
-2.605
-2.038
1.881
3.543
2.794
1.369
-0.126
-0.817
-1.278
-1.129
-0.795
-0.487
0.088
0.296
0.640
0.720
0.742
0.708
0.738
0.328
0.179
0.268
0.098
-0.094
0.039
-0.116
0.015
0.051
0.004
0.061
0.073
0.084
0.037
0.217
0.139
0.110
0.208
0.380
-0.084
-0.125
0.179
0.389
-0.106
-0.040
0.075
0.202
0.212
0.172
1.078
1.315
-0.858
-2.392
-0.538
0.632
0.822
0.576
0.250
-0.027
-0.222
-0.303
-0.398
-0.085
-0.075
0.132
1.141
-0.813
-0.482
0.169
0.376
0.817
0.870
1.300
-1.236
-1.934
-0.434
1.068
2.084
1.454
-0.517
-2.963
-0.892
0.592
0.848
0.859
1.387
1.276
0.415
-1.023
-1.649
-2.562
-1.344
1.468
1.654
-0.801
-0.178
0.436
1.278
1.435
0.675
-0.070
-0.536
-3.254
-0.707
1.477
1.992
1.876
0.771
-0.060
0.013
-0.081
-1.334
-0.991
0.192
1.321
-0.400
-0.542
0.510
1.329
-0.067
-0.404
0.186
0.860
1.610
1.310
-1.597
-2.181
-0.187
1.653
2.413
1.689
0.816
0.079
-0.262
-0.167
0.066
0.386
0.523
0.590
0.559
0.442
-0.243
-1.767
-1.234
2.065
2.468
1.063
-2.357
-3.920
-0.817
1.293
3.492
1.077
-0.180
0.685
0.796
0.502
0.296
-1.608
-0.975
0.715
2.857
3.250
2.465
1.273
0.173
-0.478
-0.975
-0.840
-0.452
0.284
0.550
0.992
-1.229
0.150
0.844
-0.769
-2.003
0.373
1.598
1.595
0.824
-0.070
0.400
0.343
0.231
0.250
0.055
-0.957
-3.274
-1.158
1.756
2.593
2.016
0.952
0.158
-0.399
-0.320
-0.595
0.541
0.694
0.855
0.980
0.900
0.057
-0.025
0.175
0.933
-1.788
-1.011
0.148
0.602
0.013
0.126
0.504
0.178
-0.431
-0.387
0.042
0.172
0.544
0.638
1.121
1.251
1.163
0.882
0.525
0.167
0.061
-0.418
-0.435
-1.256
-3.696
-4.207
-0.087
3.243
3.541
1.429
-0.629
-2.056
-2.279
-1.855
-0.750
0.409
1.409
2.064
2.353
2.282
2.052
1.513
1.148
0.548
0.160
-0.217
-0.100
0.614
0.731
-1.727
-3.197
-0.979
0.543
1.317
2.181
1.564
0.629
0.061
-0.234
-0.081
0.198
0.474
0.685
0.786
0.791
0.519
0.343
0.291
0.068
-0.114
-0.054
-0.153
-0.308
-0.155
-0.165
-0.082
0.165
0.030
0.135
0.260
0.322
0.290
0.330
0.293
0.284
0.293
0.374
0.343
0.278
0.394
0.322
0.265
0.417
0.289
0.155
0.253
0.210
0.303
0.169
0.073
-0.174
-0.286
-0.270
-0.234
0.229
0.488
0.274
0.065
0.079
-0.165
-0.832
-2.775
-3.921
-4.189
1.240
3.808
4.475
2.843
-1.222
-3.603
-4.094
-2.868
-0.870
1.579
3.487
4.199
4.288
4.148
3.766
2.995
1.812
0.565
-0.528
-1.408
-1.776
-2.096
-2.129
-1.860
-1.633
-1.488
-1.044
-0.707
-0.389
-0.260
-0.042
0.037
0.107
0.008
0.027
0.038
0.108
0.089
0.134
0.119
0.241
0.304
0.252
0.361
0.324
0.568
0.581
0.560
0.641
0.674
0.542
0.647
0.577
0.729
0.634
0.539
0.547
0.591
0.599
0.364
0.480
0.684
0.465
0.499
0.296
0.333
0.350
0.274
0.266
0.213
0.194
0.060
0.207
0.149
0.089
0.176
-0.026
0.017
-0.043
-0.085
-0.059
-0.149
-0.203
-0.072
-0.058
-0.181
-0.134
-0.244
-0.196
-0.297
-0.244
-0.101
-0.153
-0.173
-0.095
-0.294
-0.276
-0.314
-0.115
-0.205
-0.305
-0.212
0.086
0.115
0.169
0.350
1.043
0.829
0.369
0.068
0.106
0.204
0.360
0.301
0.530
0.388
0.253
0.327
0.057
-0.084
-0.219
-0.348
-0.636
-0.438
-0.279
-0.187
-0.290
-0.246
-0.226
-0.141
0.073
0.202
0.071
0.078
-0.014
0.082
0.000
-0.234
0.024
0.225
0.158
0.265
0.004
0.085
0.001
0.057
0.234
0.132
0.128
0.043
0.129
0.332
0.199
0.130
0.123
0.079
0.082
0.071
0.089
-0.005
0.045
-0.023
0.045
0.017
-0.069
0.028
-0.004
0.072
-0.156
-0.049
-0.182
-0.262
-0.134
0.057
-0.036
-0.016
-0.014
-0.131
-0.167
-0.142
-0.088
-0.178
-0.103
-0.016
-0.038
-0.124
-0.052
-0.136
-0.179
-0.147
-0.104
0.002
-0.203
-0.166
-0.185
-0.217
0.083
0.016
-0.270
-0.104
-0.061
0.048
-0.103
0.151
0.032
-0.068
-0.102
0.104
0.178
0.054
-0.067
-0.264
-0.057
-0.184
-0.164
-0.122
-0.050
-0.141
-0.158
-0.131
-0.146
-0.090
-0.249
-0.115
0.084
-0.025
0.096
0.132
0.246
0.153
0.232
0.144
0.202
0.070
0.360
0.229
-0.006
0.098
0.241
0.113
0.064
0.058
0.042
-0.107
-0.113
-0.037
-0.105
0.001
0.136
0.143
0.042
0.106
0.016
-0.179
-0.327
-1.332
-0.589
-0.645
-1.499
-1.359
-1.734
-2.940
-1.670
-0.090
0.602
1.150
1.049
0.613
0.167
0.050
0.302
0.909
1.442
1.945
1.948
1.962
1.858
1.647
1.145
0.591
0.302
-0.260
-0.395
-0.710
-0.709
-0.870
-0.949
-0.759
-0.470
-0.417
-0.349
-0.361
-0.377
-0.239
0.199
0.384
0.440
0.260
0.064
-0.074
-0.142
-0.058
-0.184
-0.145
0.075
-0.109
-0.221
-0.392
-0.307
-0.324
-0.384
-0.261
0.120
0.128
0.088
0.012
0.119
0.324
0.313
0.403
0.409
0.543
0.739
0.602
0.597
0.602
0.406
0.374
0.297
0.445
0.434
0.460
0.129
-0.078
-0.475
-2.085
-1.785
-0.305
0.757
1.072
0.754
0.478
0.049
-0.010
-0.169
-0.232
0.138
0.530
0.705
0.808
0.772
0.839
0.732
0.419
0.187
0.069
-0.217
-0.304
-0.288
-0.740
0.035
-0.557
-0.906
-0.877
0.179
-0.440
-0.531
0.161
0.455
-0.010
-0.481
-0.925
-0.442
-0.154
-0.091
-0.257
-0.555
-0.364
-0.232
-0.132
-0.065
-0.111
-0.179
-0.346
-0.623
-0.409
-0.194
-0.012
0.253
0.279
0.332
0.374
0.166
0.068
-0.239
0.124
0.293
0.336
0.325
0.244
0.491
0.503
0.365
0.291
0.159
0.211
0.289
0.191
0.284
0.080
0.099
0.095
0.113
0.212
0.120
0.097
-0.007
-0.217
-0.247
-0.054
-0.062
0.034
0.051
-0.049
-0.064
-0.010
-0.241
-0.357
-0.290
0.111
0.212
-0.002
-0.082
0.074
-0.045
-0.141
0.035
-0.084
-0.079
-0.036
-0.028
0.126
0.016
-0.047
0.145
-0.047
0.039
0.193
-0.048
0.149
0.206
0.037
0.093
0.014
0.035
0.001
0.201
0.188
0.064
0.141
0.149
0.117
0.053
0.028
0.157
-0.007
0.136
0.005
0.050
-0.005
-0.068
-0.007
-0.009
0.028
-0.069
0.075
0.017
0.080
-0.028
-0.090
0.076
-0.050
-0.052
-0.008
-0.084
0.045
-0.021
-0.083
-0.092
0.024
-0.125
-0.066
-0.010
-0.135
0.009
-0.082
-0.062
-0.060
-0.100
-0.003
-0.011
0.037
0.014
-0.107
0.011
0.003
0.119
-0.029
-0.070
0.028
0.002
0.097
0.089
0.082
0.096
0.056
-0.009
0.155
0.096
0.119
0.235
0.063
0.134
0.082
0.020
0.124
0.034
-0.111
-0.006
0.180
0.527
0.472
0.285
-0.071
-0.035
0.375
1.070
1.072
0.679
0.413
0.255
0.215
0.221
0.262
0.492
0.470
0.228
0.130
-0.030
-0.168
-0.349
-0.469
-0.238
-0.170
-0.445
-0.243
-0.116
-0.153
0.009
-0.034
-0.061
-0.073
0.141
0.068
0.237
0.124
0.133
0.304
0.198
0.064
0.170
0.095
0.080
0.099
0.161
0.209
0.033
-0.084
0.053
-2.213
-2.338
-1.044
-0.610
0.325
-0.177
1.558
1.766
0.779
-0.121
-0.176
-0.152
0.303
0.876
1.070
1.452
1.377
1.330
1.033
0.570
0.044
-0.238
-0.474
-0.579
-0.890
-0.827
-0.781
-0.660
-0.753
-0.830
-1.120
-1.009
-1.274
-0.754
-0.673
-1.265
-1.815
-1.544
-0.983
-0.299
-0.737
-1.081
-0.920
-0.671
-0.413
0.323
0.762
0.644
0.424
0.507
0.614
0.864
0.899
0.775
0.631
0.681
0.727
0.615
0.326
0.051
-0.144
-0.347
-0.191
-0.174
-0.106
-0.101
-0.095
-0.161
-0.132
-0.174
-0.176
-0.113
-0.035
-0.082
-0.130
-0.077
-0.151
-0.249
-0.203
-0.307
-0.549
-0.477
-0.412
-0.156
-0.190
-0.095
-0.138
-0.026
-0.130
-0.121
0.039
-0.080
0.310
0.504
0.422
0.149
0.019
0.439
0.821
0.570
0.435
0.556
0.640
0.545
0.652
0.911
0.811
0.693
0.679
0.683
0.479
0.447
0.269
0.222
-0.087
0.042
0.643
-1.138
-3.348
-3.594
-0.313
1.972
2.544
3.367
2.175
0.140
-1.324
-1.470
-0.935
-0.610
-0.970
-0.010
1.221
-0.376
1.527
2.599
2.660
1.377
-0.374
-1.349
-1.844
-1.559
-0.932
-0.386
0.306
0.807
1.129
1.225
1.104
0.830
0.759
0.341
-0.008
-0.227
-0.327
-0.460
-0.545
-0.596
-0.617
-0.451
-0.363
-0.332
-0.179
0.618
0.226
-1.020
-0.675
-0.218
0.239
0.232
0.122
0.137
-0.011
-0.218
-0.087
0.065
0.031
0.210
0.224
-0.029
0.174
0.190
0.307
0.185
0.291
0.305
0.283
0.227
0.113
0.236
0.161
-0.007
0.134
0.194
0.094
0.217
0.082
0.115
0.073
0.050
0.167
0.180
0.057
-0.012
0.112
0.091
0.174
0.087
0.067
-0.043
-0.013
-0.108
-0.056
-0.039
0.033
0.229
0.483
0.775
-0.793
0.048
1.304
0.392
-0.007
-0.168
-0.222
-0.152
0.351
-0.103
-0.779
0.461
1.020
0.431
0.112
-0.549
-1.116
-1.990
-3.666
-1.583
1.725
2.397
1.462
0.417
-0.554
-0.862
-0.697
-0.331
0.240
0.445
0.633
0.903
0.904
0.975
0.707
0.617
0.358
0.223
-0.043
-0.188
-0.309
-0.206
-0.252
-0.196
-0.296
-0.119
-0.219
-0.049
-0.058
0.033
-0.081
-0.107
0.129
0.061
-0.034
0.011
-0.109
-0.049
0.004
0.047
0.024
-0.137
-0.037
0.065
-0.002
0.024
-0.102
0.005
-0.051
0.073
0.040
0.018
0.030
0.040
-0.031
0.113
0.140
0.134
0.290
0.944
0.938
0.550
-0.315
-0.450
0.198
0.532
0.709
0.381
-1.405
-2.628
-0.708
0.385
-0.326
0.512
0.499
0.085
-0.343
-0.537
-0.368
-0.349
-0.089
0.480
0.574
0.835
0.838
0.906
0.717
0.563
0.408
0.218
0.030
-0.019
-0.113
-0.166
-0.345
-0.134
-0.170
-0.119
-0.098
-0.209
0.033
-0.028
-0.050
-0.070
-0.001
0.012
-0.008
-0.141
-0.109
-0.159
-0.054
-0.139
0.081
-0.009
-0.098
-0.105
0.027
0.018
-0.090
-0.119
-0.000
-0.062
-0.041
-0.137
0.011
0.002
0.052
0.022
0.035
0.116
0.044
0.024
0.010
0.591
1.010
0.082
-1.513
0.125
1.531
1.465
0.785
0.320
0.071
0.182
0.188
0.177
0.122
0.155
0.334
0.489
0.371
0.075
-0.145
-0.286
-0.341
-0.155
-0.074
-0.064
-0.031
-0.003
-0.083
0.147
0.128
0.192
0.198
0.232
0.210
0.217
0.188
0.186
0.196
-0.046
0.238
0.170
0.182
0.147
0.160
0.253
-1.932
-3.568
-2.641
1.880
0.639
0.264
0.875
3.124
1.973
0.167
-1.049
-0.955
-2.610
-3.287
2.028
3.990
4.453
3.654
1.274
-0.536
-0.230
-0.152
-2.175
-2.852
1.141
3.219
3.335
2.476
1.507
0.809
0.389
0.065
-0.232
-0.324
-0.338
-0.536
-0.500
-0.671
-3.312
-1.639
2.117
2.792
1.718
-0.167
-1.880
-2.324
-2.083
-1.409
-0.421
0.711
1.470
2.163
2.161
2.188
2.052
1.648
1.361
0.875
0.438
0.303
0.072
0.036
0.072
0.004
0.279
0.398
0.381
0.520
0.729
0.673
0.764
2.043
2.045
1.292
-2.310
0.073
2.583
1.797
-0.983
0.387
1.445
1.676
-0.059
-2.903
-2.206
0.697
1.938
0.707
0.415
-0.220
-0.165
-0.255
-0.119
0.027
0.178
0.243
0.270
0.188
0.206
0.280
0.490
0.274
0.186
-0.479
-0.394
-0.105
-0.319
-0.248
-0.320
-0.168
-0.223
-0.258
-0.210
-0.037
-0.093
0.016
-0.135
-0.151
-0.109
0.052
-0.101
-0.216
-0.102
0.009
-0.178
-0.006
0.030
0.055
0.445
1.122
1.020
0.537
0.208
0.020
-2.748
-2.102
1.116
2.353
1.847
0.804
0.154
-0.999
-2.123
-1.461
-0.721
-0.081
0.288
0.849
1.590
1.945
1.487
0.843
0.573
0.470
0.330
0.345
-1.975
-3.794
-1.169
2.152
2.681
1.284
-0.129
-1.142
-1.461
-1.379
-0.973
-0.296
0.297
0.777
1.196
1.801
2.558
2.175
1.508
0.770
-2.014
-1.953
1.670
3.472
2.392
0.983
-0.151
-0.722
-0.952
-0.643
-0.187
0.325
0.719
0.758
0.750
0.593
-0.861
-2.283
-1.173
1.246
1.787
1.050
-0.053
-0.486
-0.612
-0.541
-0.169
0.296
0.660
0.778
0.842
0.786
0.826
0.630
0.399
0.274
0.040
-0.009
-0.022
-0.155
-2.473
-1.314
2.975
4.210
2.993
0.427
-1.243
-3.614
0.292
3.266
4.105
2.395
-2.711
-0.879
2.697
2.226
-1.598
-0.751
0.266
0.679
1.650
2.367
1.868
1.243
0.998
0.820
0.900
1.002
0.961
0.800
0.503
0.250
-0.148
-0.552
-0.676
-0.694
-0.730
-0.627
-0.491
-0.351
-0.340
-0.004
0.076
0.318
0.430
0.555
0.502
0.677
0.696
0.678
0.810
0.776
0.765
0.697
0.781
0.989
0.757
0.691
0.689
0.839
0.626
0.570
0.345
-0.399
-2.502
-3.347
-3.533
-1.898
3.327
4.880
4.187
1.002
-1.659
-2.650
-1.687
0.213
2.129
3.496
3.932
3.978
3.929
3.468
2.837
1.948
0.871
-0.062
-1.043
-1.652
-2.246
-2.452
-2.488
-2.326
-2.219
-1.766
-1.511
-1.253
-0.969
-0.855
-0.472
-0.538
-0.474
-0.451
-0.257
-0.301
-0.090
-0.087
-0.181
0.002
-0.088
0.011
0.115
0.151
0.356
0.265
0.378
0.409
0.496
0.500
0.440
0.550
0.600
0.629
0.682
0.539
0.581
0.532
0.622
0.608
0.466
0.490
0.422
0.370
0.396
0.336
0.372
0.239
0.254
0.108
0.005
0.083
0.033
0.099
-0.024
0.165
0.033
0.048
-0.063
-0.182
-0.118
-0.210
-0.266
-0.227
-0.266
-0.192
-0.163
-0.476
-0.472
-0.104
0.033
-0.245
-0.269
-0.277
-0.165
-0.288
-0.327
-0.209
-0.109
-0.104
-0.133
-0.157
0.036
-0.102
-0.074
-0.013
-0.203
-0.262
-0.172
-0.084
-0.083
-0.045
0.047
-0.084
0.026
0.047
0.157
0.026
0.152
0.141
0.113
0.196
0.130
0.234
0.084
0.049
0.179
-0.035
0.080
0.079
0.073
0.035
0.048
-0.038
-0.009
0.041
-0.046
0.015
-0.006
-0.027
-0.015
-0.029
0.020
0.005
-0.075
-0.097
-0.125
-0.155
-0.041
-0.084
-0.004
-0.098
-0.227
-0.159
-0.094
-0.205
-0.110
0.051
0.193
0.157
0.134
-0.004
-0.277
-0.123
0.301
0.222
0.112
0.754
0.770
0.462
0.162
0.110
-0.118
-0.094
0.048
0.054
0.133
0.102
0.072
-0.227
0.095
-0.118
-0.607
-0.231
-0.436
-0.236
-0.919
-0.815
-0.784
-0.780
-0.474
-0.253
-0.352
-0.030
0.725
0.568
0.563
0.266
-0.247
-0.455
0.132
0.372
0.453
0.420
0.760
0.799
0.555
0.196
-0.688
0.546
0.871
0.667
-0.504
-0.101
0.583
0.230
-3.177
-4.146
-1.940
0.711
1.475
1.182
0.273
0.207
-0.636
-3.536
-1.114
1.733
3.379
3.341
1.606
0.809
0.910
1.201
1.157
1.180
1.035
0.797
0.466
0.468
0.383
-0.042
-0.642
-2.572
-4.380
-4.745
-1.359
2.258
2.342
0.958
-0.673
-1.489
-1.440
-1.125
-0.078
0.808
1.583
2.175
2.370
2.235
2.123
1.811
1.485
0.957
0.601
0.405
0.059
0.132
0.057
0.112
0.202
0.377
0.376
0.400
0.561
0.540
0.592
0.551
0.604
0.531
0.301
0.400
0.346
0.428
0.405
0.244
0.154
0.196
0.162
0.135
0.087
0.137
0.089
0.124
0.085
-0.054
-0.058
-0.065
-0.054
-0.200
-0.041
-0.029
-0.024
-0.121
-0.189
-0.149
-0.081
-0.113
-0.210
-0.149
-0.215
-0.195
-0.085
-0.190
-0.265
-0.097
-0.113
-0.126
-0.150
-0.113
-0.132
-0.169
-0.167
-0.080
-0.103
-0.070
-0.125
-0.212
-0.037
0.105
-0.131
0.029
-0.023
0.003
-0.012
-0.111
0.007
0.142
-0.001
-0.065
-0.027
0.003
0.101
-0.007
0.084
0.141
0.034
0.027
0.014
0.008
0.062
0.121
-0.067
0.067
0.037
0.084
0.047
0.073
0.072
0.026
0.072
-0.073
0.094
0.032
0.116
0.168
-0.017
0.060
0.055
0.164
0.035
0.034
-0.049
0.084
0.013
0.034
-0.010
0.025
0.057
0.121
0.117
0.025
0.114
0.134
0.130
0.023
-0.014
0.035
0.088
0.077
0.108
0.104
0.241
-0.012
0.109
0.048
0.098
-0.014
-0.030
0.017
0.070
0.123
0.063
0.132
0.067
-0.019
0.024
-0.048
0.041
0.055
0.073
0.078
0.090
0.004
-0.010
0.060
-0.016
0.044
-0.082
0.001
0.029
0.005
-0.003
-0.009
-0.118
0.005
0.141
-0.098
-0.083
0.075
-0.095
0.042
-0.125
-0.075
0.007
-0.011
-0.139
-0.200
-0.110
0.029
-0.107
-0.027
-0.106
0.007
-0.027
-0.030
-0.090
0.020
0.126
0.006
0.035
-0.062
-0.002
0.047
0.009
0.053
-0.001
0.114
-0.089
-0.008
0.070
0.093
-0.007
0.039
0.107
-0.043
0.128
0.102
0.120
-0.043
0.010
0.140
0.005
-0.005
0.101
0.179
0.120
0.110
0.059
-0.027
0.053
0.088
0.207
0.037
0.012
-0.033
-0.004
0.062
0.082
0.023
0.015
0.038
0.069
-0.012
0.127
0.090
0.056
-0.032
0.062
-0.050
0.071
0.023
-0.007
0.067
0.011
0.032
-0.089
-0.040
-0.039
-0.072
-0.135
0.096
-0.073
0.007
-0.093
-0.050
-0.040
-0.060
-0.076
0.022
0.023
0.085
0.005
0.142
0.493
1.009
0.952
0.658
0.253
0.241
0.156
0.264
0.474
0.323
0.406
0.280
0.104
0.112
-0.116
-0.279
-0.244
-0.350
-0.413
-0.540
-0.414
-0.325
-0.313
-0.336
-0.058
-0.191
-0.378
0.029
0.222
0.315
0.223
0.051
0.092
0.148
0.091
0.309
0.350
0.397
0.170
0.301
0.261
0.172
0.257
0.223
0.180
0.163
0.279
0.126
0.033
0.046
0.233
0.162
0.038
0.126
-0.177
-0.111
-0.248
-0.384
-0.771
-3.096
-3.714
-2.004
0.190
1.000
0.934
0.390
-0.573
-0.777
-0.808
-0.524
-0.094
0.406
1.162
1.569
-0.544
-1.874
2.125
3.700
3.298
1.260
-0.340
-0.805
-1.207
-1.044
-0.703
-0.115
0.011
0.203
0.292
0.131
-0.082
-0.337
-0.530
-0.656
-0.771
-0.900
-0.846
-0.493
-0.487
-0.547
-0.508
-0.280
-0.191
-0.104
0.028
0.069
0.134
0.206
0.280
0.620
0.766
0.531
0.175
0.180
0.292
0.556
0.101
-0.064
0.294
0.375
0.240
0.045
0.470
0.867
0.445
0.021
-0.041
0.030
0.123
0.232
0.396
0.195
0.597
0.666
0.447
0.253
0.296
0.118
0.156
0.151
0.076
-0.121
0.058
0.260
0.300
0.120
0.178
-0.095
-0.109
-0.104
-0.177
-0.104
-0.065
0.056
-0.203
-0.154
-0.093
-0.059
-0.164
-0.182
-0.073
0.158
-0.054
-0.295
-0.245
-0.688
-1.997
-0.864
1.370
1.565
0.871
0.340
-0.333
-0.543
-0.687
-0.538
-0.055
0.325
0.427
0.529
0.445
0.331
0.265
-0.065
-0.117
-0.289
-0.400
-0.153
-0.146
0.001
-0.152
-0.247
-0.190
-0.248
-0.168
-0.043
-0.354
-0.865
-0.075
1.179
0.954
0.323
-0.742
-1.041
-0.545
-0.187
0.218
0.309
0.473
0.578
0.221
-0.016
-0.116
0.040
0.067
0.121
-0.010
0.018
0.055
0.132
0.416
0.583
0.424
0.236
-0.189
-0.113
-0.105
-0.090
-0.206
-0.088
-0.438
-0.087
0.271
-0.002
-0.118
-0.170
-0.181
-0.417
-0.325
-0.105
0.112
0.326
0.190
0.149
0.217
0.089
0.211
0.250
0.073
0.146
0.160
0.033
0.032
-0.684
-0.815
-0.050
0.481
0.692
0.307
0.027
-0.092
-0.156
-0.083
-0.001
0.218
0.411
0.737
1.012
0.937
0.809
0.385
0.008
-0.069
0.242
0.842
0.897
0.413
0.222
0.070
-0.105
-0.098
-0.264
-0.013
-0.064
-0.144
-0.196
-0.142
-0.142
-0.233
-0.155
-0.009
-0.219
-0.132
-0.210
-0.148
-0.066
-0.018
0.062
-0.090
0.081
0.055
0.193
0.019
0.274
0.190
0.234
0.139
0.040
0.261
0.330
-0.160
-2.633
-3.697
1.602
4.025
4.654
4.205
0.322
-2.826
-3.911
-2.996
-1.018
1.335
3.096
4.188
4.436
4.136
3.636
2.448
1.181
-0.117
-1.162
-1.777
-2.158
-2.244
-2.191
-1.743
-1.494
-1.118
-0.867
-0.642
-0.405
0.210
-0.613
-3.205
-3.558
1.690
4.014
3.929
1.669
-0.376
-1.276
-1.050
-0.156
0.973
1.761
2.228
2.429
2.240
1.857
1.297
0.679
-1.146
-3.526
-4.226
-4.135
1.056
3.763
3.497
1.028
-1.237
-2.570
-2.482
-1.544
-0.097
1.247
2.106
2.884
2.915
2.658
2.334
1.753
1.009
0.419
-0.254
-0.609
-0.879
-1.088
-1.014
-0.784
-0.552
-0.483
-0.350
-0.230
-0.220
-0.101
0.135
0.046
0.014
0.174
0.086
0.079
0.114
0.065
0.065
0.150
0.008
0.031
0.169
0.234
0.181
0.476
0.965
1.336
1.209
0.795
0.520
0.446
0.506
0.466
0.468
0.497
-1.017
-2.612
0.183
1.513
-0.663
-3.227
0.500
3.230
2.336
-0.754
-3.299
-2.342
0.855
2.122
1.921
1.179
0.538
0.341
0.398
0.681
0.639
0.913
0.405
1.454
1.830
1.346
-0.358
-0.924
-0.053
0.324
-3.119
-1.362
1.420
2.103
2.262
1.108
-0.433
-1.082
-2.277
-2.528
1.770
3.003
1.226
-2.795
-0.752
1.044
1.552
0.945
0.160
-0.457
-0.778
-0.730
-0.450
0.253
1.545
-0.307
-0.684
0.306
1.027
1.153
0.907
0.440
0.341
0.434
0.936
1.289
1.038
0.723
0.286
0.420
0.451
0.654
0.764
0.756
0.254
-3.056
-0.086
3.157
3.250
1.937
1.108
-1.322
-2.158
-3.516
-1.075
1.984
0.240
2.250
2.742
2.149
-0.683
-2.594
0.199
1.727
0.340
0.664
1.821
0.391
-2.455
-0.811
-0.188
-0.495
0.610
0.832
1.197
1.170
-0.184
-1.295
1.214
1.460
1.619
1.151
0.551
0.080
-0.158
-0.115
-0.208
-0.996
-3.313
-2.217
0.298
1.950
2.428
0.148
-2.875
-1.580
1.329
1.945
0.630
-0.372
-2.930
-0.874
1.894
2.735
2.625
1.270
-0.133
-0.449
-0.161
-0.128
-0.118
0.002
0.130
0.254
-0.034
0.222
0.328
0.313
0.150
0.034
0.144
-0.206
-0.371
-0.274
-0.106
-0.025
-0.337
-0.260
-0.044
-0.177
0.061
0.854
0.045
-1.378
-0.632
0.007
0.193
0.404
0.084
0.016
-0.071
-0.031
-0.069
-0.067
-0.199
-0.023
-0.008
0.173
0.148
0.218
0.179
0.752
1.488
1.108
0.678
0.308
0.139
0.202
0.314
0.554
-1.230
0.602
-1.835
-2.174
1.733
3.756
2.915
0.592
-2.057
-3.866
-3.270
1.561
3.201
2.667
1.468
0.865
0.510
0.566
0.056
0.336
-2.526
-2.186
2.258
3.720
2.589
0.515
-0.942
-1.912
-2.045
-1.512
-0.793
-0.034
0.754
1.154
1.402
1.464
1.558
1.416
1.394
1.643
1.057
0.502
-0.004
-0.159
-0.088
0.193
0.370
0.328
0.314
-0.356
-0.577
-1.071
-2.007
-1.616
0.570
1.842
1.672
0.457
-0.147
-0.245
-0.410
-0.362
0.118
0.722
1.311
1.496
1.351
1.134
0.762
0.479
0.211
-0.031
0.051
-0.067
-2.548
-3.865
-0.073
3.351
4.301
2.695
-0.376
-2.601
-3.150
-2.546
-1.258
0.272
1.564
2.517
3.056
3.019
2.551
2.157
1.582
1.040
0.322
0.155
0.130
-0.346
-0.621
-0.766
-0.662
-0.363
-2.116
-4.030
-1.629
2.072
2.789
1.564
0.257
-0.953
-1.459
-1.554
-1.060
-0.403
0.175
0.665
1.112
1.258
1.190
1.157
1.206
0.853
0.677
0.638
0.850
0.894
1.168
0.873
0.525
0.353
0.376
0.534
0.516
0.669
0.777
0.722
0.608
0.491
0.174
0.176
-0.062
-0.217
-0.202
-0.198
-0.122
-0.103
-0.077
-0.046
-0.067
0.059
0.052
0.102
0.182
0.161
0.211
0.205
0.124
-2.385
-3.718
0.953
3.735
4.451
2.625
-0.395
-1.085
-1.676
-1.776
-0.687
0.672
2.123
3.292
3.799
3.797
3.405
2.680
1.778
0.564
-0.290
-0.956
-1.509
-1.832
-1.828
-1.645
-1.462
-1.164
-0.838
-0.513
-0.275
0.034
0.134
0.169
0.328
0.289
0.173
0.279
0.344
0.218
0.374
0.203
0.458
0.284
0.267
0.491
0.488
0.484
0.441
0.411
0.457
0.563
0.513
0.510
0.516
0.518
0.361
0.379
0.370
0.345
0.341
0.278
0.228
0.239
0.257
0.119
0.144
0.185
0.042
0.048
0.086
-0.146
-0.033
0.055
-0.067
-0.313
-0.341
-0.002
0.081
-0.074
-2.736
-4.055
-2.873
2.405
3.976
4.313
0.931
-3.084
-4.301
-4.537
-3.037
0.211
3.144
4.185
4.371
4.286
4.117
3.929
3.676
2.364
1.017
-0.345
-1.278
-1.890
-2.206
-2.303
-2.247
-1.821
-1.663
-1.126
-0.798
-0.430
-0.313
-0.075
-0.045
0.178
0.189
0.342
0.337
0.372
0.276
0.303
0.394
0.293
0.572
0.551
0.529
0.527
0.675
0.566
0.656
0.665
0.748
0.623
0.689
0.479
0.636
0.608
0.660
0.591
0.441
0.491
0.481
0.475
0.304
0.237
0.136
0.350
0.112
0.300
0.108
0.059
0.051
0.077
0.049
-0.129
-0.044
0.032
-0.110
-0.290
-0.245
-0.086
-0.110
-0.323
-0.250
-0.244
-0.450
-0.244
-0.291
-0.327
-0.222
-0.205
-0.335
-0.232
-0.241
-0.213
-0.234
-0.258
-0.376
-0.416
-2.160
-3.858
-3.816
1.982
3.935
4.426
2.691
-2.000
-3.882
-4.366
-3.522
-0.705
2.537
4.170
4.524
4.516
4.351
4.177
3.970
3.093
1.643
0.095
-1.163
-1.845
-2.429
-2.514
-2.364
-2.016
-1.480
-1.033
-0.592
-0.179
0.129
0.220
0.305
0.376
0.332
0.446
0.457
0.446
0.288
0.260
0.277
0.330
0.370
0.363
0.309
0.572
0.496
0.567
0.511
0.704
0.578
0.637
0.549
0.527
0.687
0.694
0.561
0.546
0.538
0.410
0.528
0.541
0.519
0.461
0.396
0.394
0.279
0.206
0.284
0.287
0.352
0.209
0.177
0.093
0.057
0.052
0.021
0.017
-0.000
0.009
-0.007
-0.044
-0.131
0.172
1.201
1.110
0.529
0.026
-0.186
-0.208
-0.094
-2.994
-2.458
1.487
2.627
1.671
0.168
-0.991
-1.689
-1.970
-1.592
-1.104
-0.387
0.116
0.533
0.607
0.663
0.678
0.694
0.504
0.213
0.037
-0.146
-0.199
-0.295
-0.223
-0.159
-0.062
-0.237
-0.042
0.062
0.032
0.033
0.126
0.140
0.133
0.070
0.079
0.377
0.198
0.047
0.146
0.218
0.129
0.150
0.244
0.377
0.416
-0.157
-0.279
0.028
0.222
0.946
1.369
1.161
0.742
0.442
0.270
0.128
0.129
-0.289
-2.222
-3.588
-0.326
2.443
2.353
1.145
-0.194
-0.999
-1.404
-1.187
-0.716
0.014
0.477
0.918
1.096
1.017
0.968
0.903
0.811
0.843
0.400
0.173
-0.105
-0.211
-0.383
-0.189
-0.257
-0.192
-0.179
-0.067
-0.078
-0.105
-0.187
0.017
0.048
-0.092
-0.041
0.087
-0.064
-0.119
-0.134
0.007
-0.146
-0.140
-0.123
0.038
-0.010
0.094
0.082
-0.006
-0.184
-0.111
-0.014
0.088
0.125
-0.179
-0.433
-0.297
-0.300
0.015
0.281
0.335
0.193
0.080
0.036
-0.013
0.001
-0.060
0.008
0.101
0.058
0.066
0.077
0.221
0.238
0.036
-0.089
-0.192
-0.101
-0.088
-0.115
-0.231
-0.101
-0.231
-0.272
0.058
0.013
0.103
0.121
-0.096
-0.068
-0.138
0.064
-0.119
-0.008
0.044
0.193
-0.046
-0.058
0.152
0.217
0.323
0.308
0.199
0.177
0.182
0.202
0.095
0.214
0.228
0.150
0.391
0.098
0.247
-0.038
0.055
0.080
0.001
0.169
-0.120
-0.090
0.006
-0.061
-0.067
-0.053
0.127
0.515
0.733
0.077
-0.089
-0.187
-0.070
-0.262
-0.242
0.071
-0.092
-0.533
-0.446
-0.290
-0.521
-0.228
0.293
0.041
-0.202
-0.288
-0.263
-0.017
0.073
0.198
0.248
0.331
0.287
0.355
0.289
0.319
0.254
0.174
0.012
0.424
0.952
0.842
0.631
0.197
0.164
0.019
0.313
0.353
0.368
0.413
0.312
0.264
0.149
-0.134
-0.146
-0.146
-0.303
-0.304
-0.298
-0.377
-0.193
-0.118
-0.060
-0.059
-0.024
0.147
0.151
0.145
0.172
0.061
0.150
0.304
0.309
0.104
0.217
0.221
0.273
0.196
0.132
0.218
0.307
0.195
0.270
0.288
0.194
0.287
0.178
0.161
0.163
0.383
-0.031
0.239
0.140
0.023
0.072
0.118
0.077
-0.066
0.036
0.150
-0.138
-0.029
0.027
-0.022
-0.028
-0.194
-0.302
-0.219
-0.170
-0.011
-0.045
0.067
-0.033
-1.418
-3.665
-0.898
2.960
4.063
4.190
-0.126
-3.488
-4.435
-4.484
-2.607
1.179
3.665
4.310
4.405
4.280
4.106
3.933
3.316
2.212
1.015
-0.107
-1.188
-1.943
-2.499
-2.341
-2.177
-1.758
-1.448
-1.107
-0.972
-0.448
-0.086
0.038
0.195
0.442
0.610
0.440
0.563
0.573
0.575
0.457
0.546
-0.242
-0.144
-0.436
-2.704
2.107
3.577
-1.488
-0.076
0.359
3.904
3.565
1.510
-0.080
-0.401
0.357
1.240
2.053
2.878
3.121
3.151
2.524
1.956
0.922
0.304
-0.391
-0.882
-1.147
-1.287
-1.178
-1.187
-0.928
-0.831
-0.699
-0.518
-0.538
-0.339
-0.054
-0.234
-0.749
-0.778
-0.127
0.439
0.621
0.307
0.038
-0.212
-0.173
-0.203
0.078
0.083
0.034
0.041
0.224
0.564
0.625
0.111
-0.969
-1.068
0.517
1.208
1.130
0.564
0.096
-0.147
-0.060
0.090
0.377
0.500
0.607
0.634
0.602
0.374
0.154
-0.087
-0.002
-0.081
-0.237
-0.332
-0.326
-0.240
-0.315
-0.186
-0.342
-0.200
-0.133
-0.094
-0.017
-0.160
-0.042
-0.050
-0.069
0.007
-0.115
-0.051
-0.239
-0.080
-0.080
0.007
-0.060
-0.015
-0.116
-0.139
0.001
-0.006
0.101
0.137
-0.032
0.034
-0.002
0.150
0.014
0.040
0.122
0.164
0.061
0.043
0.254
-0.011
0.096
0.140
0.279
-0.222
-3.141
-1.600
2.908
4.232
4.520
2.014
-2.631
-4.080
-4.266
-2.468
1.287
3.762
4.411
4.478
4.375
4.191
4.016
3.823
3.214
1.449
-0.569
-1.948
-2.996
-3.505
-3.551
-3.235
-2.695
-1.980
-1.143
-0.480
-0.022
0.411
0.594
0.634
0.590
0.649
0.738
0.593
0.486
0.525
0.316
0.451
0.385
0.389
0.434
0.444
0.488
0.620
0.789
0.011
-2.099
-3.318
-1.956
3.220
4.731
5.071
1.587
-2.419
-3.678
-3.907
-2.093
1.208
3.823
4.626
4.705
4.557
4.329
3.823
2.480
0.840
-0.511
-1.581
-2.325
-2.680
-2.855
-2.580
-2.177
-1.626
-1.150
-0.866
-0.474
-0.299
-0.021
0.087
0.025
0.087
-0.075
-0.154
-0.077
0.015
-0.037
-0.210
-0.007
-0.006
0.045
0.081
0.024
0.196
0.296
0.265
0.336
0.379
0.249
0.326
0.287
0.439
0.342
0.260
0.344
0.454
0.298
0.287
0.341
0.316
0.354
0.202
0.225
0.197
0.198
0.229
0.139
0.155
0.167
0.041
-0.046
-0.051
-0.003
0.113
-0.033
-0.088
-0.096
-0.175
-1.327
-3.519
-4.222
-4.290
0.746
3.645
4.432
4.322
-0.982
-3.627
-4.335
-4.343
-1.953
2.080
3.945
4.426
4.402
4.262
4.061
3.857
3.364
1.874
0.101
-1.298
-2.373
-2.905
-3.082
-2.928
-2.405
-1.836
-1.235
-0.682
-0.217
0.091
0.318
0.444
0.368
0.602
0.479
0.325
0.316
0.219
0.231
0.433
0.162
0.311
0.346
0.467
0.532
0.545
0.456
0.598
0.659
1.738
0.347
0.906
1.950
1.763
1.131
0.670
-0.721
0.016
1.304
0.162
-1.099
2.596
3.289
1.924
0.485
-0.490
-1.569
-3.112
1.471
3.308
2.483
1.081
-2.520
-3.110
1.553
3.539
1.956
0.048
0.291
-0.071
-0.587
-0.526
-0.785
-3.578
-0.626
2.854
3.683
2.159
0.573
-0.408
-0.563
-0.866
-1.613
-0.769
-0.023
0.130
0.255
0.640
1.189
-0.351
-0.534
0.409
0.940
0.883
0.757
0.827
1.432
1.452
0.628
0.406
0.305
-1.377
-2.368
1.496
3.873
3.827
2.172
0.466
-0.579
-0.904
-0.585
-0.009
0.164
-2.696
-2.546
2.274
4.053
4.278
1.980
-0.699
-3.457
-2.036
-0.147
0.931
0.814
2.131
2.006
0.054
0.272
-0.961
-1.455
2.292
3.238
2.308
0.975
-0.059
-2.993
-1.951
1.710
0.491
0.009
-0.524
1.424
1.218
0.418
-0.834
-0.878
0.184
0.813
0.925
1.055
0.865
1.042
1.048
0.865
0.628
-1.729
-1.926
0.521
1.407
0.962
0.158
-0.248
-0.417
-0.348
-0.086
0.316
0.676
-0.487
-3.005
1.457
3.986
3.146
0.946
1.318
0.284
-1.126
-3.212
-3.885
-1.626
2.144
3.862
4.059
3.368
2.422
1.394
0.674
0.112
-0.162
-0.410
-0.546
-0.472
-0.337
-0.289
-0.277
0.290
-0.558
-0.623
-0.228
-0.046
0.115
-0.098
-0.012
-0.087
0.025
-0.522
-0.305
0.159
1.130
-0.887
-0.283
0.938
1.377
1.135
-1.125
-2.714
-0.431
1.287
1.395
1.050
0.365
-0.329
-0.439
-0.515
-0.250
-0.180
0.178
0.304
0.496
0.544
0.611
1.419
1.551
0.933
0.727
0.419
0.107
-1.025
-2.372
-3.025
0.184
2.115
1.973
0.757
-0.226
-0.754
-1.016
-0.914
-0.435
-0.169
0.169
0.547
0.815
0.864
0.744
0.721
0.534
0.288
0.145
0.057
-0.038
-0.172
-0.124
-0.191
-0.234
-0.123
-0.199
-0.026
-0.152
-0.151
-0.140
0.046
-0.004
0.039
-0.118
-0.089
-0.124
-0.090
-0.043
0.856
0.546
-0.525
-0.807
0.849
0.762
0.400
0.085
-0.599
-0.398
-0.050
0.442
0.630
-0.142
-1.804
-3.353
-0.584
2.449
2.782
1.273
-0.907
-2.098
-1.832
-0.711
0.068
0.748
0.978
0.797
0.712
0.612
0.243
0.152
0.163
0.128
0.124
0.195
0.066
-0.787
-0.069
0.941
0.668
0.208
-0.034
-0.440
-1.547
-0.229
0.456
0.588
0.435
0.228
-0.097
-0.194
-0.083
-0.036
-0.081
-0.002
1.179
1.018
0.265
-0.216
-0.013
0.720
0.522
-0.305
-0.689
-0.080
0.448
0.072
-0.194
-0.420
-0.241
-0.334
-0.416
-0.568
-0.572
-0.230
-0.120
-0.048
-0.005
-0.034
-0.067
0.105
0.124
0.033
0.076
0.117
0.068
-0.528
-1.420
-0.529
0.188
0.567
0.489
0.551
0.160
0.040
0.055
0.148
0.095
0.234
0.355
0.377
0.651
0.635
0.565
0.530
0.288
0.051
0.105
-0.081
0.041
-0.027
-0.130
-0.126
0.377
0.242
-0.115
-0.158
-0.544
-1.034
-1.230
-0.285
0.388
0.227
-0.193
-0.436
-0.721
-0.165
0.057
-0.968
-0.999
-0.489
-0.110
0.342
0.157
0.103
0.288
0.320
0.276
0.144
0.090
0.240
0.208
0.146
0.288
0.221
0.189
0.030
0.080
0.348
0.226
0.125
0.008
-0.062
0.009
0.044
0.042
0.413
0.261
-0.361
-0.258
-0.146
0.220
0.216
0.037
0.159
0.109
0.198
0.736
0.368
-0.121
-0.155
-0.069
-0.070
-0.110
0.224
0.363
0.163
-0.139
-0.066
-0.298
-0.328
-0.465
-0.546
-0.262
0.005
-0.045
0.169
-0.131
-0.043
-0.082
0.011
0.062
0.011
0.229
0.087
0.055
0.239
0.236
0.307
0.214
0.063
0.107
0.018
-0.206
0.048
-0.076
-0.097
-0.065
-0.047
0.181
0.044
0.082
0.019
-0.233
-0.098
0.069
0.176
0.014
-0.037
-0.059
-0.040
0.020
0.063
-0.050
0.202
0.228
0.299
-0.086
-0.060
0.024
0.038
0.110
-0.109
0.024
-0.099
-0.384
-0.004
0.073
0.077
-0.176
-0.138
-0.091
-0.113
-0.118
-0.238
-0.105
0.026
0.215
-0.199
0.017
0.054
0.168
0.243
-0.042
-0.048
-0.095
-0.184
0.001
0.069
-0.015
0.111
0.125
0.172
0.126
0.132
0.204
0.189
0.239
0.048
-0.013
0.036
0.022
0.116
0.002
0.004
-0.047
-0.098
0.143
-0.004
-0.042
-0.082
-0.071
-0.067
-0.054
-0.011
-0.080
0.036
-0.001
0.012
-0.033
0.076
-0.035
0.085
-0.133
0.051
0.018
0.047
0.020
0.165
-0.074
0.030
0.009
-0.009
-0.005
0.032
0.102
0.126
0.044
-0.039
0.135
0.030
0.013
0.104
0.052
0.122
0.011
0.052
0.079
-0.046
0.058
-0.017
0.188
0.128
-0.045
0.077
0.028
0.007
-0.078
-0.050
-0.035
0.094
0.200
0.022
-0.038
-0.181
-0.124
0.037
0.156
0.189
0.099
-0.034
-0.015
0.015
-0.019
0.021
0.028
-0.040
0.081
0.073
0.092
-0.012
0.068
0.104
-0.000
0.058
0.036
-0.026
-0.025
-0.048
0.044
-0.141
0.034
0.136
-0.156
-0.018
0.081
0.065
0.008
-0.009
0.086
0.021
-0.088
0.140
0.022
0.002
0.103
0.047
-0.149
0.065
0.100
-0.042
0.085
0.016
-0.028
-0.033
0.117
-0.010
0.016
-0.001
-0.016
-0.029
0.082
0.031
0.108
0.129
0.016
-0.006
-0.031
-0.120
0.175
-0.044
0.083
-0.032
0.096
0.012
0.086
-0.123
0.014
-0.107
0.065
0.008
-0.019
0.121
-0.104
-0.080
0.045
-0.034
0.026
0.084
0.026
0.086
-0.004
-0.060
-0.001
0.078
0.008
-0.027
-0.049
0.081
0.073
0.017
0.030
0.017
-0.023
0.130
0.047
-0.027
-0.004
-0.071
0.063
0.100
0.077
0.064
0.011
0.066
-0.069
-0.003
0.049
-0.110
0.026
0.032
0.199
0.041
0.048
-0.098
-0.077
0.027
0.063
0.037
0.062
-0.062
0.031
0.096
0.037
0.018
0.050
0.005
-0.025
0.114
-0.001
0.045
-0.011
0.099
-0.080
0.010
0.101
0.003
-0.042
0.098
0.087
-0.005
-0.121
-0.002
0.008
0.007
0.010
0.054
0.050
0.023
-0.045
-0.046
0.101
0.005
0.073
-0.105
-0.010
0.084
-0.067
0.046
0.083
0.031
-0.012
-0.029
0.063
0.112
0.013
0.128
0.134
-0.073
-0.015
0.124
-0.105
-0.020
0.109
0.017
-0.062
-0.128
-0.024
0.154
0.074
0.098
-0.013
-0.032
0.030
0.052
0.006
-0.018
0.056
0.016
0.027
0.072
0.036
0.074
-0.092
0.046
0.030
0.097
-0.052
0.109
-0.044
0.072
0.152
-0.006
-0.016
0.143
-0.007
-0.050
-0.063
0.062
0.000
0.103
-0.034
0.055
0.038
-0.017
0.060
-0.060
-0.048
0.057
0.058
0.087
-0.107
0.073
0.088
-0.022
-0.067
0.078
0.061
0.068
-0.217
-0.117
0.176
0.113
0.138
-0.121
-0.037
0.116
0.070
-0.013
-0.032
-0.016
0.051
0.083
0.084
0.032
-0.020
0.023
0.107
-0.054
0.046
0.017
0.001
0.117
-0.106
0.113
0.021
-0.075
-0.102
0.014
0.161
0.074
-0.164
-0.005
0.112
0.053
0.236
0.718
0.912
0.568
0.555
0.455
0.361
0.187
0.156
0.389
0.313
-1.698
-3.770
-0.843
2.410
2.706
1.391
-0.097
-1.167
-1.414
-1.265
-0.526
0.519
1.160
1.382
1.320
1.463
1.368
1.390
1.284
0.925
0.655
0.262
-0.050
-0.308
-0.448
-0.531
-0.519
-0.514
-0.502
-0.210
-0.241
-0.243
-0.060
0.087
0.118
0.164
0.182
0.205
0.121
0.117
0.176
0.131
0.214
-0.020
-1.484
-3.106
-2.260
-3.394
-2.877
-0.234
2.525
3.298
2.038
0.376
-0.814
-1.187
-0.641
0.305
1.423
2.402
2.923
3.144
2.915
2.604
1.843
1.050
0.490
-0.277
-0.573
-1.092
-1.403
-1.208
-1.212
-1.233
-1.004
-0.846
-0.784
-0.735
-0.372
-0.359
-0.421
-0.328
-0.318
-0.250
-0.426
-0.191
-0.379
-0.267
-0.145
-0.332
-0.142
0.009
0.029
0.076
-0.006
0.050
0.135
0.211
0.208
0.177
0.192
0.264
0.319
0.367
0.360
0.335
0.435
0.317
0.352
0.521
0.232
0.346
0.324
0.371
0.311
0.558
0.967
1.504
1.420
0.812
0.352
0.241
0.018
0.107
-1.325
-3.450
-1.668
1.765
2.555
1.445
0.174
-1.055
-1.538
-1.423
-0.910
-0.208
0.488
1.082
1.135
1.036
1.020
0.732
0.818
1.021
0.927
0.436
-0.167
-0.598
-0.738
-0.743
-0.361
-0.006
0.079
-0.117
-0.467
-0.443
-0.476
-1.136
-1.480
-1.350
-3.166
-1.595
1.014
1.676
1.163
0.355
-0.315
-0.589
-0.443
-0.138
0.394
0.808
1.059
1.270
1.190
1.054
0.895
0.725
0.465
0.245
-0.055
-0.083
-0.386
-0.363
-0.309
-0.169
-0.190
-0.264
-0.118
-0.194
-0.079
-0.192
-0.055
-0.151
-0.002
-0.200
-0.094
-0.070
-0.074
-0.060
-0.194
-0.152
-0.146
-0.013
-0.117
-0.078
-0.124
-0.137
-0.029
-0.031
-0.079
-0.052
0.091
-0.022
0.049
0.080
-0.001
0.087
-0.102
0.037
0.130
0.089
0.106
0.181
0.245
0.139
0.088
0.078
0.239
0.228
0.050
0.140
0.092
0.131
0.118
0.192
0.134
0.178
0.081
0.152
0.135
0.164
0.060
0.131
0.090
0.176
0.122
0.042
0.101
0.108
0.115
-0.029
0.003
0.073
0.082
0.038
0.083
0.071
0.005
-0.048
-0.017
0.065
-0.062
-0.045
-0.142
-0.051
-0.091
0.139
-0.092
0.008
-0.187
-0.062
-0.041
0.024
-0.035
-0.114
-0.015
-0.072
-0.091
0.022
-0.045
0.032
-0.052
-0.075
-0.033
-0.078
-0.049
-0.023
0.014
-0.046
0.012
-0.143
0.105
0.003
-0.015
0.009
0.106
0.210
0.310
0.437
1.020
1.073
0.622
0.336
0.292
0.203
0.228
0.419
0.463
0.401
0.379
0.254
0.035
-0.034
-0.142
-0.169
-0.249
-0.277
-0.285
-0.211
-0.162
-0.163
-0.086
-0.024
0.144
0.142
0.060
0.063
0.021
0.274
0.325
0.171
0.178
0.186
0.282
0.143
0.206
0.155
0.226
0.220
0.166
0.291
0.080
0.095
0.105
0.266
0.143
0.250
0.013
0.185
0.066
0.197
0.115
0.103
-0.043
0.143
0.053
0.009
0.067
-0.099
-0.020
-0.007
0.024
-0.144
-0.385
-1.357
0.076
0.727
0.475
0.124
-0.233
-0.359
-0.229
-0.222
-0.085
0.078
0.032
0.121
0.121
0.062
-0.034
0.036
-0.144
-0.270
-0.294
-0.125
-0.240
-0.284
-0.161
-0.163
-0.122
-0.118
-0.048
-0.168
0.078
-0.047
-0.030
-0.001
-1.451
-3.589
1.074
3.632
4.305
1.566
-2.832
-3.850
-1.342
1.843
3.424
3.920
4.150
4.176
-1.643
1.718
3.288
3.696
3.707
2.640
0.169
-1.528
-3.799
-4.893
-4.165
0.195
2.089
1.433
0.056
-0.370
0.042
-1.142
-3.410
-0.984
1.657
3.235
2.472
1.501
1.730
1.725
2.122
1.822
1.075
0.632
0.658
0.647
0.826
0.899
0.548
-1.776
-2.890
-1.166
3.025
3.817
2.341
0.368
-0.963
-1.445
-1.225
-0.501
0.478
2.293
2.368
2.258
-0.221
-0.229
1.668
2.550
2.636
0.957
-0.257
-0.666
-0.700
-0.528
-0.340
-0.454
0.693
1.312
1.006
0.552
0.183
0.186
-0.006
0.294
0.651
0.477
-0.677
-3.509
0.687
3.147
3.613
1.398
-2.441
-2.623
-1.211
