-0.194
-0.276
-0.293
-0.136
0.020
0.297
0.086
0.026
0.204
0.034
-0.135
-0.224
-0.163
0.101
0.088
0.106
-0.059
-0.007
0.073
-0.168
-0.106
0.037
0.053
0.080
-0.072
-0.188
-0.107
0.108
0.057
-0.140
-0.099
-0.075
0.052
-0.105
-0.104
0.231
0.099
-0.033
0.088
-0.106
-0.287
-0.184
-0.004
0.152
0.165
0.104
-0.047
-0.176
-0.133
-0.127
-0.022
-0.007
0.044
0.198
-0.047
-0.024
-0.205
-0.205
0.019
-0.008
-0.008
-0.027
0.049
0.003
-0.028
-0.177
-0.168
0.074
-0.112
0.004
0.057
0.077
0.148
-0.004
-0.033
-0.061
-0.025
-0.096
0.045
0.224
-0.020
-0.040
-0.097
-0.188
-0.159
0.000
0.347
0.106
-0.366
-0.290
0.016
0.460
0.250
-0.019
-0.227
-0.198
0.038
0.046
0.034
0.076
0.136
-0.198
-0.017
0.054
-0.091
-0.163
-0.010
-0.052
0.052
0.064
-0.060
-0.133
-0.127
0.030
0.100
0.053
0.065
-0.101
-0.104
-0.006
0.048
-0.092
0.019
-0.010
-0.064
-0.123
-0.026
-0.004
-0.004
-0.012
-0.082
-0.130
0.082
0.070
-0.006
-0.130
-0.104
-0.022
-0.123
0.065
0.112
-0.004
-0.007
-0.002
-0.039
-0.142
0.015
0.118
-0.060
-0.105
0.092
0.118
-0.181
-0.167
0.005
0.268
0.162
0.014
-0.089
-0.198
-0.254
-0.026
0.027
-0.012
0.027
0.004
-0.097
0.102
-0.052
-0.070
-0.048
-0.163
-0.130
0.031
0.197
0.061
-0.103
-0.208
-0.127
-0.047
0.477
0.372
-0.088
-0.280
-0.393
-0.003
0.015
-0.076
0.000
0.110
-0.015
0.050
0.012
0.010
0.044
-0.060
-0.115
-0.044
0.003
0.048
0.089
-0.025
-0.086
-0.063
0.049
0.010
0.087
0.078
0.088
-0.163
-0.094
-0.025
-0.055
-0.063
0.012
0.087
-0.157
0.041
-0.065
-0.099
0.264
0.176
0.071
-0.028
-0.020
-0.262
-0.030
0.050
0.240
-0.224
-0.031
0.185
0.063
0.085
0.004
-0.072
-0.114
-0.107
-0.072
0.008
-0.063
0.007
-0.115
0.062
-0.053
0.027
0.038
-0.144
-0.067
-0.175
-0.205
0.079
0.056
0.171
0.068
-0.186
-0.030
-0.109
-0.082
0.013
0.059
-0.014
-0.179
-0.120
0.255
0.160
-0.100
-0.002
0.060
-0.033
0.044
0.035
-0.050
0.099
-0.170
-0.150
0.042
0.287
0.099
-0.098
-0.153
-0.232
0.046
-0.118
0.098
0.195
0.050
-0.211
-0.167
0.173
0.169
-0.129
-0.241
-0.080
0.000
0.048
-0.043
-0.136
-0.108
-0.216
-0.024
0.050
0.228
-0.028
-0.037
-0.118
-0.118
0.084
-0.101
-0.125
-0.117
0.011
0.138
0.217
-0.060
-0.050
-0.094
0.097
0.123
0.167
0.063
-0.122
-0.245
-0.049
0.031
-0.008
0.029
0.055
-0.062
-0.046
-0.003
-0.031
-0.106
-0.045
-0.073
-0.029
-0.074
-0.076
-0.069
-0.167
0.221
0.264
0.051
-0.030
-0.200
-0.094
0.031
0.129
-0.019
-0.106
-0.004
0.011
0.057
-0.039
-0.170
-0.088
0.062
0.004
-0.038
-0.056
0.106
-0.005
-0.111
-0.244
-0.126
0.124
0.028
-0.120
0.115
0.084
-0.189
0.102
-0.011
-0.110
-0.049
-0.132
0.010
0.102
-0.027
-0.024
-0.089
0.095
0.019
-0.068
-0.064
0.088
-0.045
-0.154
-0.179
-0.113
0.098
0.136
0.081
0.031
-0.049
-0.017
-0.026
-0.095
-0.130
0.088
0.122
-0.045
-0.086
-0.075
-0.029
0.031
0.026
0.072
0.019
-0.047
0.035
-0.047
-0.114
-0.054
-0.098
-0.045
0.174
-0.080
-0.142
-0.060
0.075
-0.010
0.033
0.021
0.003
0.040
-0.124
-0.150
0.018
0.005
0.104
0.004
0.082
-0.059
-0.021
-0.019
-0.359
-0.173
0.123
0.233
0.306
0.139
-0.349
-0.284
-0.052
0.045
-0.065
-0.040
0.017
0.109
0.016
0.053
0.063
0.167
-0.023
-0.005
-0.012
-0.189
-0.309
0.002
0.428
0.266
0.048
-0.189
-0.153
-0.011
-0.112
-0.155
-0.148
0.076
-0.207
0.097
0.258
0.057
0.039
-0.351
-0.086
-0.031
0.026
0.064
-0.009
0.093
0.002
0.006
0.042
0.064
-0.139
-0.136
0.042
0.103
-0.120
-0.128
-0.101
-0.082
0.087
-0.019
0.010
0.034
-0.106
-0.013
0.027
-0.049
0.017
-0.148
-0.173
-0.027
0.059
0.004
0.155
-0.053
-0.048
-0.050
0.020
0.030
0.045
-0.046
0.028
0.029
0.043
-0.023
-0.166
-0.107
-0.011
0.010
0.025
-0.012
-0.046
-0.049
-0.009
0.061
-0.071
-0.192
-0.185
0.038
0.125
0.124
0.046
0.021
0.029
-0.105
-0.138
0.067
-0.033
-0.039
-0.101
0.063
0.035
-0.080
-0.045
-0.148
-0.050
0.166
-0.017
0.232
-0.161
-0.411
-0.180
0.158
0.264
0.122
-0.038
-0.052
-0.210
-0.100
-0.115
0.234
0.274
-0.005
-0.217
-0.191
0.038
0.061
0.149
-0.043
0.073
-0.052
-0.091
-0.007
-0.044
0.003
-0.066
-0.073
-0.137
0.132
0.083
-0.084
-0.066
-0.005
-0.127
0.025
0.072
-0.224
-0.120
0.062
0.246
0.094
0.066
-0.056
-0.114
-0.109
-0.005
0.017
0.097
-0.023
-0.033
0.090
-0.075
-0.091
-0.222
-0.013
0.200
0.112
-0.119
-0.217
-0.215
0.010
0.003
-0.036
0.107
0.161
-0.016
-0.127
0.024
-0.066
-0.083
0.105
-0.027
-0.084
-0.124
0.034
0.040
-0.045
-0.020
0.009
0.148
-0.201
0.043
0.062
0.094
-0.157
-0.142
-0.016
0.046
0.055
-0.063
-0.099
-0.217
0.079
0.179
-0.044
-0.176
-0.026
-0.136
-0.070
0.081
0.070
-0.022
0.017
0.050
0.019
-0.017
-0.063
-0.014
-0.041
0.018
0.103
0.165
0.001
-0.299
-0.106
-0.080
-0.146
0.067
0.042
0.203
0.105
-0.144
-0.161
-0.200
0.002
0.262
0.040
-0.097
-0.070
-0.053
-0.181
-0.180
-0.147
0.117
0.048
0.069
0.070
-0.116
-0.016
-0.099
-0.088
0.028
0.020
-0.055
-0.010
0.097
0.029
-0.071
-0.041
0.077
-0.092
-0.067
0.120
0.018
-0.029
-0.052
-0.159
-0.001
-0.098
0.081
0.138
-0.103
-0.092
0.038
-0.137
-0.206
0.047
0.131
0.038
0.070
-0.080
-0.147
-0.165
-0.073
-0.105
-0.013
-0.001
0.195
-0.035
-0.094
0.029
0.025
-0.217
-0.016
0.007
-0.060
-0.177
0.398
-0.077
-0.091
-0.067
-0.054
-0.068
-0.112
0.064
0.067
-0.037
0.042
-0.031
-0.105
-0.004
-0.123
-0.046
0.141
0.093
-0.083
-0.087
-0.062
0.057
-0.147
-0.022
0.022
-0.097
-0.089
-0.062
-0.044
0.246
0.159
-0.198
-0.140
-0.132
-0.131
0.239
0.087
-0.123
-0.191
-0.186
0.019
0.127
-0.122
-0.111
-0.100
0.011
0.204
0.047
-0.114
-0.028
0.055
0.086
-0.110
-0.091
0.088
0.027
-0.085
-0.078
0.029
0.050
-0.053
0.109
-0.052
-0.152
-0.048
-0.220
-0.142
0.090
0.032
-0.021
-0.021
0.125
-0.100
-0.315
-0.051
0.158
0.196
0.027
-0.096
-0.021
-0.148
-0.111
0.068
0.053
0.072
-0.099
-0.071
-0.034
-0.037
-0.054
-0.109
-0.073
0.008
-0.074
0.040
0.027
0.071
-0.068
-0.096
-0.038
-0.031
-0.044
0.070
0.013
0.016
0.100
0.052
0.034
-0.071
-0.016
-0.116
-0.171
-0.076
-0.043
0.047
0.137
0.054
0.011
-0.007
-0.092
-0.049
-0.207
-0.104
0.152
0.169
0.046
-0.216
-0.179
-0.031
-0.023
-0.043
0.281
0.318
0.068
-0.064
-0.187
-0.181
-0.207
0.002
0.102
0.203
0.098
-0.034
-0.015
-0.031
-0.194
0.061
-0.046
-0.111
-0.088
-0.158
0.051
-0.066
0.009
0.060
0.081
0.044
0.061
-0.007
0.004
-0.094
-0.043
0.072
-0.012
0.073
-0.101
-0.156
-0.054
0.058
-0.123
-0.090
0.259
0.373
0.041
-0.099
-0.160
-0.093
-0.110
-0.012
0.026
0.036
0.123
0.003
-0.269
-0.094
0.002
-0.008
-0.047
-0.271
-0.055
0.014
-0.106
-0.025
0.002
-0.064
0.000
0.049
-0.051
0.203
0.193
-0.185
-0.163
-0.051
-0.016
0.173
0.093
-0.067
-0.123
0.137
-0.048
-0.094
-0.010
-0.047
-0.147
0.017
0.011
-0.102
-0.003
-0.022
-0.072
0.049
0.019
-0.069
-0.001
0.017
0.056
-0.083
-0.171
-0.159
-0.063
-0.104
0.117
0.240
0.162
-0.089
-0.229
-0.176
-0.094
-0.013
0.008
-0.161
0.074
0.059
-0.042
-0.024
0.069
-0.052
-0.108
0.052
-0.049
-0.071
0.135
0.067
-0.287
-0.128
0.028
0.169
0.045
0.032
0.067
-0.147
-0.121
-0.168
-0.072
-0.003
0.050
0.063
0.034
-0.041
-0.118
0.088
0.082
-0.009
0.053
-0.124
0.083
-0.033
-0.108
0.015
-0.022
0.003
-0.073
-0.045
0.027
0.241
0.109
-0.049
-0.222
-0.126
-0.202
0.041
0.040
0.052
0.059
-0.039
-0.189
-0.005
-0.123
0.108
0.007
0.147
-0.055
-0.124
-0.115
-0.123
-0.011
0.072
0.005
-0.045
-0.003
0.074
-0.139
-0.022
0.044
0.017
-0.111
-0.138
0.035
0.062
0.041
0.080
-0.041
-0.036
-0.058
-0.075
-0.101
0.206
0.262
-0.135
-0.284
-0.144
0.105
0.050
0.126
0.134
0.038
-0.017
-0.041
-0.091
-0.047
-0.096
-0.063
0.030
-0.052
0.050
0.131
-0.071
-0.195
-0.186
-0.187
-0.027
0.211
-0.154
-0.182
-0.092
-0.190
0.063
0.037
-0.044
0.053
0.062
0.143
0.056
0.042
-0.035
-0.121
-0.113
-0.099
0.010
0.068
0.033
-0.037
-0.047
-0.113
-0.129
0.102
0.158
-0.049
0.026
-0.029
-0.211
-0.228
-0.023
0.140
0.108
-0.062
-0.071
0.087
0.000
0.075
-0.080
-0.122
-0.107
-0.189
-0.108
0.174
0.204
0.135
-0.046
-0.202
-0.037
0.109
-0.267
0.062
0.128
0.064
0.022
-0.163
0.074
-0.116
-0.005
-0.035
-0.079
-0.028
-0.032
-0.106
0.004
0.026
0.088
-0.045
-0.039
-0.206
-0.202
-0.058
0.215
0.278
0.126
-0.091
-0.100
-0.140
-0.140
-0.072
-0.001
0.049
0.139
-0.098
-0.190
0.073
-0.241
0.197
0.257
0.074
-0.177
-0.034
-0.097
-0.042
0.070
-0.038
0.044
-0.053
-0.226
-0.084
0.123
0.193
0.131
-0.056
-0.230
-0.091
-0.015
-0.040
-0.108
-0.068
-0.054
0.049
0.054
0.050
0.012
0.019
0.038
-0.052
0.023
-0.179
-0.287
-0.055
0.056
0.204
-0.009
-0.158
0.017
0.090
-0.215
-0.120
0.049
-0.097
-0.021
-0.036
-0.250
0.054
0.132
-0.002
-0.035
0.231
0.105
0.047
-0.195
-0.126
0.015
0.124
-0.076
-0.027
0.071
-0.119
-0.181
0.000
0.213
0.190
-0.136
-0.262
-0.128
0.019
0.024
-0.005
-0.085
0.007
0.052
0.030
-0.095
-0.181
-0.078
0.205
0.330
-0.006
-0.189
-0.250
-0.128
-0.246
0.039
0.111
0.051
0.054
0.189
-0.063
0.048
0.026
-0.247
-0.147
-0.199
0.048
0.029
0.043
0.159
0.077
-0.020
0.066
-0.169
-0.057
-0.214
-0.069
0.004
0.053
0.010
0.178
0.096
-0.109
-0.089
-0.055
-0.086
-0.036
0.005
-0.005
0.052
0.110
0.140
-0.085
-0.120
-0.105
-0.060
-0.201
0.018
0.154
0.086
-0.074
-0.068
-0.005
0.021
0.049
-0.195
-0.282
-0.101
0.068
-0.030
0.061
0.031
0.069
0.145
-0.162
-0.186
-0.116
0.036
0.162
0.014
0.030
-0.180
-0.023
0.029
-0.042
-0.047
-0.028
-0.002
-0.018
-0.090
-0.113
-0.101
-0.047
0.079
0.015
-0.120
0.014
0.120
-0.034
-0.008
0.075
0.023
0.025
-0.082
-0.083
-0.195
-0.010
-0.113
0.044
0.267
0.206
0.084
0.066
-0.094
-0.189
-0.125
0.036
-0.062
-0.043
0.092
0.035
0.033
-0.008
-0.167
-0.069
-0.132
-0.008
-0.078
-0.007
0.001
0.107
-0.028
-0.149
-0.151
-0.140
0.010
0.279
0.099
-0.016
-0.010
0.177
-0.059
-0.083
-0.118
0.042
-0.082
0.013
-0.116
-0.218
0.049
0.154
0.108
-0.042
-0.174
-0.230
0.012
0.046
-0.100
0.008
0.128
0.176
-0.045
-0.212
0.008
0.058
-0.091
0.119
0.089
0.156
0.067
-0.320
-0.167
-0.068
-0.020
0.088
-0.011
0.014
0.006
0.012
-0.118
-0.115
-0.112
0.105
0.090
0.114
-0.131
-0.052
-0.124
-0.127
-0.026
-0.052
-0.052
0.046
-0.051
-0.056
-0.107
0.035
-0.002
0.036
0.078
0.073
-0.204
-0.170
0.051
-0.018
0.014
0.055
0.061
-0.104
-0.138
-0.241
-0.100
-0.046
0.160
0.154
-0.050
-0.189
-0.154
-0.010
-0.117
0.286
0.177
0.083
-0.114
-0.320
-0.103
0.090
0.439
0.208
0.142
-0.088
-0.412
-0.250
-0.007
0.200
0.032
-0.093
0.071
0.002
-0.274
-0.173
0.008
0.073
0.132
0.142
-0.083
-0.080
-0.191
0.021
0.166
-0.183
0.145
-0.041
-0.055
-0.010
0.059
-0.144
0.081
0.110
0.011
-0.055
-0.085
-0.063
-0.071
0.004
-0.158
0.140
0.027
-0.040
0.009
-0.081
0.025
-0.076
0.019
-0.128
-0.047
0.038
-0.007
-0.002
0.006
0.146
-0.034
-0.131
-0.131
0.118
0.158
-0.199
-0.278
0.036
0.203
0.192
0.129
-0.034
-0.033
-0.160
-0.159
0.098
-0.094
-0.120
-0.110
0.099
0.011
0.056
0.065
0.063
-0.222
-0.276
-0.181
0.033
0.033
-0.038
0.014
0.054
0.065
0.023
-0.040
0.010
-0.172
0.055
-0.062
-0.265
0.043
0.228
0.162
-0.032
-0.160
-0.062
-0.040
-0.107
-0.148
-0.099
0.020
0.106
0.094
-0.013
0.078
-0.003
-0.111
0.013
-0.083
-0.128
0.084
-0.001
0.009
-0.081
-0.055
-0.083
-0.073
-0.008
0.307
0.225
-0.108
-0.219
-0.353
-0.115
0.149
0.148
0.033
0.105
0.211
-0.012
-0.215
-0.201
-0.095
-0.022
-0.077
0.082
-0.023
0.066
0.001
-0.129
-0.090
-0.081
-0.048
-0.027
-0.041
-0.053
-0.025
-0.146
-0.022
0.043
-0.026
0.037
-0.066
0.133
0.066
-0.006
-0.135
-0.152
-0.222
-0.010
0.093
-0.058
0.002
0.057
0.072
-0.078
-0.112
-0.135
-0.078
-0.137
-0.049
-0.021
0.078
0.003
0.209
0.006
-0.043
-0.187
0.050
-0.081
-0.350
-0.259
0.130
0.099
-0.056
-0.089
-0.045
0.007
-0.105
-0.182
-0.087
0.165
0.072
-0.062
-0.169
0.008
0.154
0.007
0.017
-0.023
0.057
-0.011
-0.036
-0.055
-0.194
-0.121
-0.134
-0.018
-0.166
0.103
0.128
0.042
-0.024
-0.078
-0.106
-0.212
-0.151
-0.050
0.096
0.123
0.087
-0.032
-0.063
-0.051
-0.085
-0.138
0.065
0.164
-0.016
-0.143
-0.030
0.002
0.231
-0.017
-0.356
-0.103
0.236
0.010
0.010
-0.018
-0.042
-0.301
-0.012
0.033
-0.023
-0.077
0.026
0.042
0.157
-0.006
0.023
-0.044
-0.197
-0.119
-0.033
0.009
0.032
0.191
0.084
0.020
-0.203
-0.195
-0.035
0.046
0.051
-0.029
0.004
0.028
-0.031
-0.080
-0.024
-0.020
-0.029
0.071
-0.106
-0.178
-0.029
-0.060
0.073
-0.001
-0.013
-0.132
-0.015
0.074
-0.072
-0.103
-0.208
0.085
0.326
0.139
-0.047
-0.189
-0.169
-0.082
0.001
0.001
-0.086
-0.191
-0.152
0.221
0.201
0.080
-0.108
-0.224
-0.157
-0.194
0.039
0.073
0.110
-0.066
-0.058
-0.064
0.043
-0.140
0.091
0.052
-0.137
-0.225
0.029
0.047
0.054
-0.045
-0.191
-0.109
0.136
0.075
0.192
-0.093
0.050
0.181
-0.029
-0.019
-0.118
0.010
-0.182
-0.030
-0.095
-0.002
0.037
-0.007
-0.187
-0.060
0.004
0.001
-0.192
-0.050
-0.022
-0.148
0.056
-0.060
-0.025
0.061
0.147
-0.155
-0.164
-0.023
0.023
0.039
-0.061
-0.188
-0.061
0.161
-0.176
0.030
0.063
0.124
-0.046
-0.193
-0.154
0.002
0.069
0.167
0.058
0.088
-0.111
-0.128
-0.037
-0.025
-0.045
-0.231
-0.061
0.435
0.197
-0.017
-0.155
-0.192
-0.083
-0.043
-0.168
-0.216
0.067
0.357
0.247
-0.078
-0.164
-0.148
-0.196
-0.038
0.058
-0.069
-0.033
0.071
-0.007
-0.097
-0.102
-0.039
0.149
-0.159
0.232
0.203
-0.132
-0.220
-0.088
0.108
0.047
-0.108
-0.115
0.049
0.018
0.023
-0.169
-0.110
-0.101
-0.097
0.079
0.005
0.096
-0.122
-0.028
-0.072
0.007
0.082
0.148
0.049
0.000
-0.079
-0.050
-0.026
-0.009
0.056
-0.182
-0.121
0.045
0.006
-0.035
0.085
-0.058
-0.153
-0.052
0.066
0.002
0.006
-0.070
-0.055
0.042
-0.015
0.046
-0.004
-0.002
-0.103
-0.040
-0.008
0.231
-0.004
-0.048
-0.194
-0.104
-0.166
-0.033
0.074
0.026
-0.178
-0.084
0.024
0.013
0.045
-0.102
-0.035
-0.046
0.009
-0.060
-0.119
-0.124
0.002
-0.056
-0.083
-0.164
0.006
0.169
0.114
0.287
0.172
0.024
-0.391
-0.287
0.044
0.019
0.144
-0.007
-0.119
-0.028
0.063
0.122
-0.065
-0.101
-0.058
0.016
-0.170
-0.187
0.000
-0.110
0.139
0.113
-0.106
0.000
0.020
-0.007
-0.159
-0.076
0.100
0.001
-0.063
-0.100
-0.129
-0.180
0.089
0.193
0.351
-0.070
-0.039
-0.254
-0.066
-0.047
0.061
0.067
-0.014
-0.013
0.006
-0.113
-0.040
-0.004
-0.085
-0.200
0.059
0.045
-0.061
-0.080
-0.057
-0.057
0.111
-0.013
0.162
-0.010
-0.233
-0.074
0.018
0.271
0.161
0.011
-0.071
-0.230
-0.096
-0.008
0.016
0.027
0.067
-0.095
-0.148
-0.127
0.054
0.120
-0.081
-0.029
0.028
-0.129
0.060
-0.129
-0.191
-0.069
0.199
0.194
0.211
-0.049
-0.421
0.058
0.035
-0.065
0.042
0.105
-0.005
-0.154
-0.089
-0.132
-0.016
0.013
0.040
-0.040
0.023
0.047
-0.008
-0.069
-0.204
-0.008
-0.064
-0.019
0.319
0.045
-0.448
-0.178
0.153
0.288
0.108
-0.156
-0.113
-0.156
-0.083
0.100
-0.045
0.138
-0.037
-0.207
-0.051
0.041
0.010
-0.021
-0.074
-0.225
0.092
0.040
-0.001
-0.144
-0.131
-0.081
-0.053
0.088
0.049
-0.012
-0.039
-0.041
0.028
-0.025
-0.092
-0.080
0.013
-0.065
0.029
-0.084
0.014
-0.029
0.079
-0.118
-0.075
0.051
-0.072
-0.116
0.022
0.083
-0.005
0.129
0.052
-0.151
-0.077
0.045
-0.135
-0.094
0.162
0.172
-0.174
-0.208
-0.276
-0.327
-0.034
0.137
0.332
0.210
-0.048
-0.289
-0.226
-0.024
0.037
0.016
-0.041
0.081
-0.048
0.102
0.100
-0.077
-0.068
-0.016
0.008
0.166
-0.149
-0.188
-0.099
-0.100
0.072
-0.021
0.011
0.021
0.063
-0.099
-0.036
0.026
0.002
0.032
-0.133
0.072
0.167
-0.037
-0.143
-0.227
-0.026
0.129
0.043
0.082
0.072
-0.024
-0.042
-0.054
-0.280
-0.182
-0.089
0.255
0.120
0.186
-0.116
0.033
-0.045
-0.087
-0.147
-0.078
-0.006
0.093
0.106
0.076
-0.091
-0.014
-0.077
-0.189
-0.020
-0.024
-0.163
0.234
-0.128
0.021
-0.142
-0.007
-0.025
0.011
0.030
0.047
-0.066
-0.054
-0.017
0.089
-0.201
-0.006
-0.007
0.063
-0.026
0.042
-0.050
-0.017
0.004
0.023
-0.140
0.047
-0.182
-0.039
0.019
0.159
0.171
0.017
-0.019
-0.035
-0.091
-0.148
-0.158
-0.043
0.019
-0.079
0.046
0.081
0.091
-0.147
0.038
-0.119
-0.047
-0.003
0.161
-0.113
-0.089
-0.174
0.040
-0.059
-0.012
0.070
0.056
-0.062
-0.105
0.111
-0.008
0.001
-0.146
-0.038
-0.072
-0.032
0.024
-0.021
0.034
0.150
-0.070
0.032
-0.037
-0.065
-0.013
-0.082
-0.094
0.028
0.000
0.011
-0.081
-0.078
-0.010
0.087
0.188
-0.013
-0.074
-0.193
0.021
-0.054
-0.004
0.040
-0.124
-0.034
0.143
0.030
-0.022
0.004
-0.022
-0.001
-0.137
0.028
-0.079
0.049
0.061
0.071
-0.093
-0.232
-0.068
-0.043
-0.064
0.113
0.147
-0.071
-0.095
0.104
-0.010
-0.071
-0.115
-0.060
-0.055
-0.029
0.067
-0.248
0.132
-0.053
-0.080
-0.016
-0.013
0.130
0.078
-0.095
-0.054
-0.076
0.056
-0.142
-0.088
0.000
0.115
0.077
0.152
0.017
-0.156
-0.344
-0.036
0.048
0.133
0.027
-0.028
-0.074
-0.109
-0.098
-0.074
-0.152
0.099
0.046
-0.067
0.118
0.120
-0.022
-0.152
-0.221
0.008
-0.023
0.095
0.029
0.022
-0.011
-0.102
-0.189
-0.049
0.037
0.159
0.057
0.040
-0.413
-0.068
0.050
0.102
-0.133
-0.125
-0.140
-0.150
0.104
0.357
0.346
0.000
-0.121
-0.259
-0.054
-0.008
-0.033
0.013
0.046
0.001
0.087
0.032
-0.165
0.003
-0.118
-0.200
-0.129
-0.056
-0.152
-0.040
0.077
0.053
0.023
-0.042
-0.085
-0.126
-0.034
-0.137
0.085
0.195
0.165
-0.012
-0.195
-0.067
0.192
-0.020
0.000
-0.233
-0.038
0.038
0.139
0.044
-0.016
0.080
0.014
-0.119
-0.062
-0.185
-0.243
-0.003
0.017
-0.023
0.073
-0.012
-0.045
-0.018
0.062
0.002
-0.087
0.005
-0.198
-0.000
0.052
0.062
0.043
-0.111
-0.048
-0.057
-0.192
-0.011
-0.061
-0.038
-0.086
-0.014
-0.031
-0.049
-0.022
-0.094
0.060
0.014
-0.019
0.053
-0.041
-0.047
-0.040
-0.126
0.072
-0.017
0.024
0.023
0.200
-0.001
-0.049
-0.079
-0.014
-0.006
-0.069
-0.007
0.048
-0.091
-0.141
-0.074
0.054
-0.109
-0.049
-0.113
0.036
-0.054
-0.085
-0.136
-0.120
0.111
0.159
0.030
-0.052
-0.046
-0.010
-0.062
-0.215
0.041
0.076
0.017
-0.107
-0.002
0.073
0.045
-0.018
-0.169
-0.076
-0.027
0.093
0.101
0.032
-0.042
-0.090
-0.028
-0.212
0.170
0.182
0.101
0.024
-0.195
-0.213
-0.190
-0.098
0.063
0.198
0.135
0.025
-0.036
-0.008
0.011
0.082
0.010
-0.074
-0.067
0.021
-0.089
-0.062
0.030
-0.142
-0.074
-0.025
-0.104
-0.070
-0.059
-0.010
0.096
-0.013
-0.184
0.004
0.219
-0.092
-0.249
0.084
0.098
0.106
-0.024
-0.063
0.157
0.077
-0.284
-0.066
-0.010
-0.018
0.141
0.034
0.101
0.050
-0.236
-0.000
-0.050
-0.014
-0.082
0.145
-0.174
-0.183
-0.108
0.067
-0.059
0.147
0.030
-0.055
-0.170
-0.066
-0.086
-0.027
0.056
-0.003
-0.043
-0.086
0.011
-0.043
-0.019
0.029
-0.017
-0.155
-0.028
0.066
-0.065
-0.076
-0.076
0.060
-0.039
-0.135
-0.129
0.141
0.291
-0.045
-0.148
-0.013
-0.127
0.019
-0.054
0.060
0.027
-0.442
0.081
0.358
0.140
-0.015
-0.199
-0.053
-0.035
-0.116
-0.028
-0.133
0.062
0.033
0.032
0.065
0.091
-0.075
-0.194
-0.222
-0.156
0.059
-0.008
0.087
0.058
-0.006
-0.044
-0.136
-0.021
0.038
0.046
-0.118
-0.046
-0.038
0.013
0.123
-0.095
-0.039
0.188
-0.022
-0.005
-0.095
0.060
0.114
-0.164
0.165
0.023
-0.220
-0.109
0.160
0.006
-0.087
-0.144
-0.041
0.064
0.044
-0.074
-0.124
-0.021
-0.058
-0.004
0.026
0.040
-0.013
-0.050
-0.164
-0.021
0.126
0.072
0.022
-0.084
-0.051
-0.057
-0.053
-0.100
-0.076
0.026
0.048
-0.106
-0.078
0.088
0.212
-0.259
-0.076
0.043
0.209
-0.018
-0.154
0.044
-0.039
-0.191
-0.086
-0.049
-0.019
-0.097
0.037
-0.035
0.044
0.016
-0.114
-0.004
-0.053
0.053
-0.069
-0.067
0.035
0.060
0.008
-0.089
-0.172
0.012
0.021
0.197
-0.020
-0.118
-0.035
-0.087
-0.095
-0.117
-0.149
0.106
0.271
0.171
-0.198
-0.134
-0.209
0.090
0.118
-0.042
-0.015
0.038
-0.048
-0.085
-0.070
-0.242
-0.137
-0.049
0.091
-0.027
-0.078
-0.105
0.176
0.105
-0.137
0.118
0.118
-0.027
-0.144
-0.063
0.151
-0.013
0.089
-0.098
-0.005
-0.023
-0.069
-0.059
-0.118
0.062
0.117
0.018
-0.080
-0.087
-0.140
-0.094
-0.094
0.141
0.044
0.026
-0.045
0.172
0.044
-0.207
-0.119
-0.057
0.008
-0.096
-0.021
0.117
0.100
0.003
-0.096
-0.188
-0.224
-0.047
0.018
0.184
0.084
-0.010
-0.013
-0.090
0.095
0.016
-0.329
-0.109
0.043
0.187
0.124
-0.065
0.054
-0.030
-0.036
-0.052
-0.065
-0.061
-0.117
-0.139
-0.128
0.012
0.109
0.136
-0.070
-0.124
-0.151
-0.032
0.079
-0.029
0.017
-0.035
0.005
-0.069
-0.001
0.074
0.142
0.168
-0.150
-0.165
-0.081
0.072
-0.019
0.021
-0.010
-0.102
0.005
0.043
-0.131
-0.010
0.087
0.023
-0.110
-0.082
-0.101
-0.020
0.011
0.096
-0.088
-0.062
0.116
0.229
0.066
-0.344
-0.543
-0.054
0.014
0.080
0.294
0.063
0.064
-0.070
-0.240
-0.254
0.041
0.187
0.019
0.172
0.046
-0.018
0.009
-0.071
-0.134
0.004
0.012
0.008
-0.028
0.057
0.094
-0.082
-0.141
-0.218
0.105
0.013
0.029
0.037
0.040
0.009
-0.143
0.029
-0.080
0.052
-0.056
0.054
-0.147
-0.012
0.083
-0.006
-0.025
-0.071
-0.082
-0.091
-0.072
-0.097
-0.024
0.023
-0.103
0.030
0.032
-0.017
0.004
0.020
-0.034
-0.155
0.072
0.183
0.134
-0.131
-0.144
-0.157
-0.005
-0.063
0.029
0.017
-0.083
-0.040
0.219
0.083
-0.091
-0.156
-0.027
-0.038
0.052
-0.119
-0.022
0.002
0.019
0.108
0.022
0.023
-0.084
-0.113
-0.040
-0.034
-0.138
-0.033
0.140
-0.026
0.059
-0.019
-0.129
-0.146
0.031
0.128
-0.160
-0.080
0.201
-0.047
-0.115
0.046
0.045
-0.175
-0.009
0.026
-0.074
-0.075
0.096
0.172
-0.002
-0.139
0.069
-0.299
-0.414
0.317
0.330
-0.019
-0.034
-0.042
-0.126
-0.186
0.107
0.159
0.115
-0.070
-0.204
-0.016
-0.103
-0.053
0.166
0.059
0.008
-0.026
-0.075
-0.180
0.034
-0.053
0.081
-0.292
-0.012
0.301
0.103
-0.078
-0.175
-0.033
-0.176
-0.106
-0.087
0.269
0.282
0.104
-0.156
-0.292
-0.076
-0.000
-0.035
0.011
0.020
-0.008
0.135
-0.008
-0.068
-0.303
0.041
0.109
0.003
-0.067
-0.029
-0.082
-0.127
-0.003
0.013
-0.090
0.081
0.027
0.047
-0.088
-0.178
-0.067
0.131
-0.017
-0.121
0.184
0.133
0.093
-0.326
-0.077
0.009
-0.010
-0.128
0.176
0.284
-0.005
-0.020
-0.048
-0.091
-0.113
-0.120
-0.133
0.188
0.011
-0.043
-0.080
0.052
-0.187
-0.118
-0.059
-0.039
-0.020
-0.026
0.055
-0.009
0.034
-0.033
-0.048
0.121
-0.027
-0.107
-0.152
0.032
0.155
-0.014
-0.035
0.053
0.003
0.034
0.003
-0.145
-0.008
0.015
-0.062
0.042
0.088
-0.021
-0.287
-0.109
0.156
0.086
0.087
0.016
-0.007
0.068
-0.108
-0.216
-0.163
0.018
0.023
0.277
-0.022
-0.245
-0.277
0.178
0.259
-0.059
-0.208
-0.313
-0.165
-0.035
0.159
0.134
0.101
0.035
-0.246
-0.076
0.051
-0.020
0.053
-0.117
-0.011
0.107
-0.010
-0.027
-0.144
0.116
0.008
-0.026
-0.024
0.073
-0.035
-0.146
0.010
-0.039
-0.201
-0.064
0.079
0.107
0.174
0.114
-0.061
-0.223
-0.108
-0.034
0.024
0.076
0.040
0.002
0.050
-0.007
-0.071
-0.129
-0.006
-0.002
-0.027
-0.022
0.013
0.019
-0.074
-0.087
-0.067
0.097
0.073
-0.063
-0.066
-0.060
-0.135
-0.083
0.011
0.086
0.162
0.037
-0.016
-0.113
-0.099
-0.082
-0.005
-0.069
-0.046
0.159
-0.031
-0.020
0.027
0.108
-0.006
-0.017
-0.030
-0.011
-0.176
-0.345
-0.032
0.329
-0.199
-0.109
0.425
0.565
0.184
-0.382
-0.502
-0.306
0.049
0.243
0.278
0.158
-0.000
-0.099
0.055
-0.134
-0.028
-0.029
-0.231
-0.073
-0.073
-0.136
-0.098
-0.036
-0.116
-0.072
-0.048
-0.132
-0.148
0.018
0.143
0.092
-0.045
-0.148
-0.061
0.144
0.074
-0.023
0.058
0.013
-0.099
0.117
-0.073
0.038
0.145
0.042
-0.025
-0.174
-0.101
0.115
0.043
-0.047
-0.029
-0.036
0.016
-0.021
-0.069
-0.008
-0.241
-0.068
0.119
-0.058
0.024
0.041
-0.036
-0.080
-0.024
0.002
0.102
-0.042
-0.026
0.028
-0.024
-0.163
0.098
0.134
-0.164
-0.075
-0.136
-0.125
0.019
0.048
0.074
0.099
0.093
-0.074
-0.005
-0.102
-0.002
-0.094
-0.048
0.108
0.137
0.058
0.150
0.033
-0.145
-0.113
-0.154
-0.125
-0.113
0.051
0.041
-0.061
-0.035
0.106
0.021
0.079
0.070
-0.227
-0.059
0.052
-0.094
0.092
-0.047
0.105
-0.033
-0.138
0.055
-0.206
-0.152
0.128
0.137
0.015
0.007
-0.119
-0.101
-0.131
0.060
0.062
0.036
0.005
-0.041
-0.166
0.295
0.308
-0.054
-0.303
-0.288
-0.335
0.022
0.194
0.039
0.015
0.015
-0.165
-0.152
-0.020
0.121
-0.020
-0.185
-0.106
0.163
0.196
-0.103
-0.215
-0.126
0.057
0.036
0.168
0.232
0.002
0.032
-0.215
-0.106
-0.073
-0.070
-0.043
0.076
0.167
0.049
-0.089
-0.083
0.031
-0.176
-0.018
0.007
-0.275
-0.048
-0.025
-0.018
0.131
0.082
-0.102
-0.008
0.001
-0.032
-0.136
0.046
-0.049
0.027
-0.053
0.028
-0.004
-0.099
-0.212
-0.012
0.041
0.040
0.021
0.011
0.216
0.099
-0.099
-0.066
-0.004
-0.117
0.063
0.036
-0.066
0.016
-0.217
-0.059
0.214
0.069
-0.008
-0.084
-0.169
-0.075
-0.070
-0.266
0.033
0.322
-0.078
-0.038
-0.170
-0.124
0.037
-0.112
0.042
0.042
0.083
0.015
-0.034
-0.001
-0.191
-0.156
-0.062
0.013
0.032
0.073
0.011
-0.037
0.052
-0.147
0.026
-0.041
-0.117
-0.098
-0.026
0.208
-0.057
-0.006
-0.002
0.102
0.033
-0.209
-0.243
0.084
0.031
-0.031
0.125
0.071
-0.034
-0.031
-0.019
-0.010
-0.096
-0.148
-0.064
-0.028
0.129
-0.012
0.012
-0.037
0.038
-0.015
0.048
-0.108
-0.120
0.079
0.033
0.117
-0.018
-0.078
-0.166
-0.090
0.081
0.107
-0.033
-0.051
-0.051
-0.017
-0.055
0.041
-0.005
0.249
0.205
-0.090
-0.251
-0.187
-0.041
0.223
0.125
-0.035
-0.055
0.057
-0.045
-0.243
-0.199
-0.017
0.294
-0.001
0.018
0.014
-0.082
-0.000
-0.037
-0.135
-0.190
0.020
0.166
0.074
-0.085
-0.106
0.034
-0.047
-0.132
-0.011
-0.040
-0.001
0.016
-0.019
-0.115
0.195
0.177
0.127
-0.139
-0.067
-0.122
-0.025
-0.077
-0.023
0.046
0.037
0.024
-0.164
-0.143
-0.072
-0.046
-0.003
-0.054
-0.096
0.015
-0.022
0.024
-0.047
0.154
-0.121
0.012
0.093
-0.129
-0.107
-0.025
0.053
-0.100
0.099
0.030
-0.179
-0.156
-0.005
-0.106
0.068
0.138
0.012
-0.011
-0.142
-0.077
0.056
-0.144
-0.087
0.145
0.162
0.038
-0.036
-0.143
-0.127
0.001
-0.021
0.035
-0.227
-0.035
0.133
0.128
-0.041
-0.163
-0.029
0.000
-0.027
-0.036
0.023
0.180
0.173
-0.175
-0.201
-0.139
-0.063
0.133
-0.019
-0.037
-0.074
-0.094
-0.063
0.043
0.181
0.038
-0.086
-0.096
-0.147
-0.094
0.110
0.024
0.011
0.004
-0.033
-0.022
-0.027
-0.077
-0.044
-0.062
-0.043
0.055
0.026
-0.028
-0.012
-0.064
-0.022
0.066
-0.087
-0.150
-0.098
-0.098
-0.118
0.018
0.189
0.074
-0.031
-0.090
-0.090
0.053
0.030
0.056
-0.172
-0.241
0.224
0.153
-0.020
-0.129
-0.161
0.006
0.030
0.029
-0.016
-0.085
-0.145
-0.081
-0.000
-0.022
-0.039
-0.032
-0.025
-0.013
-0.152
0.016
0.118
0.009
0.018
0.014
-0.067
-0.093
-0.229
0.064
0.038
0.052
0.027
0.013
-0.014
0.014
-0.002
0.015
-0.132
-0.221
0.034
0.145
0.043
0.020
-0.094
-0.116
0.023
0.027
0.134
0.258
-0.045
-0.254
-0.127
-0.130
-0.047
0.021
0.013
-0.005
0.164
0.039
-0.187
-0.074
-0.168
-0.287
-0.088
0.110
0.140
0.196
-0.089
0.101
0.041
-0.142
-0.062
-0.134
0.007
-0.041
0.095
-0.063
0.035
-0.010
-0.026
-0.093
-0.085
0.073
0.114
0.038
-0.232
-0.108
-0.141
-0.155
0.110
0.060
-0.004
-0.102
0.006
-0.153
0.093
0.095
0.056
0.009
-0.122
-0.104
-0.118
0.008
0.093
-0.003
0.022
-0.038
-0.104
-0.033
0.117
-0.040
-0.078
-0.019
-0.044
0.007
-0.029
-0.011
-0.030
-0.052
-0.140
0.010
0.139
0.156
0.033
-0.056
-0.246
-0.184
-0.061
-0.025
0.079
0.046
-0.071
-0.216
-0.112
-0.173
0.045
0.143
0.084
-0.162
-0.020
0.138
0.002
-0.122
0.115
0.084
0.077
0.004
-0.087
-0.017
0.062
-0.061
-0.001
-0.009
0.079
-0.144
-0.065
0.258
0.210
-0.101
-0.237
-0.123
-0.037
-0.044
0.218
-0.046
0.028
-0.054
-0.023
-0.046
-0.068
-0.025
-0.140
-0.041
0.014
-0.096
-0.049
-0.008
0.004
0.118
0.037
-0.028
-0.022
-0.032
-0.044
0.095
0.084
-0.175
-0.108
-0.028
-0.012
-0.086
-0.057
0.066
-0.011
-0.087
0.020
-0.062
-0.057
0.061
-0.098
-0.002
-0.037
0.023
0.079
-0.013
0.008
0.023
-0.112
-0.032
0.225
0.035
-0.033
-0.098
-0.218
-0.060
-0.060
-0.006
0.107
0.009
-0.053
-0.017
0.106
0.030
-0.049
-0.098
-0.206
-0.128
0.043
0.126
0.145
0.000
0.025
-0.088
-0.139
-0.081
-0.114
-0.162
0.008
-0.039
0.080
-0.044
0.005
-0.023
-0.141
-0.237
0.072
0.139
-0.119
-0.048
0.086
0.122
-0.020
-0.012
-0.029
0.053
-0.084
-0.175
-0.005
0.294
0.311
-0.069
-0.291
-0.156
-0.089
-0.110
0.015
-0.038
-0.108
-0.012
0.126
0.100
-0.033
-0.220
-0.288
0.211
0.062
0.017
-0.134
-0.140
0.055
-0.135
0.072
0.237
-0.017
0.022
-0.043
-0.081
-0.109
-0.138
-0.084
-0.010
0.045
0.010
-0.054
-0.201
0.020
0.049
-0.047
0.006
0.068
-0.032
-0.283
-0.050
0.163
0.091
-0.136
-0.054
-0.023
0.028
0.098
0.055
-0.029
-0.175
-0.068
-0.134
0.032
0.036
0.001
-0.010
-0.101
-0.015
-0.076
0.019
0.086
0.039
-0.005
-0.149
-0.196
0.087
0.173
0.216
0.069
-0.145
-0.182
-0.098
0.004
-0.028
0.077
0.095
-0.104
-0.016
-0.080
-0.081
-0.010
-0.046
0.024
-0.093
-0.240
0.025
-0.027
0.006
0.107
0.057
-0.075
-0.086
0.162
0.246
0.177
-0.192
-0.592
-0.036
0.090
0.190
-0.066
0.135
0.121
-0.174
0.004
0.005
-0.130
-0.066
-0.129
-0.074
0.098
0.070
0.011
0.141
-0.041
-0.154
0.008
-0.046
0.068
-0.037
-0.089
0.052
-0.156
-0.034
0.060
-0.014
-0.008
-0.221
-0.099
0.116
0.059
0.081
-0.070
0.045
-0.120
-0.062
-0.047
0.052
-0.062
-0.010
0.035
-0.161
-0.169
0.058
0.175
0.165
-0.068
0.053
-0.040
-0.092
-0.081
0.001
-0.171
-0.116
0.006
0.093
0.037
0.105
0.174
-0.276
-0.372
-0.056
0.011
0.082
0.052
0.118
-0.011
-0.135
-0.148
-0.093
-0.132
0.011
0.230
0.046
0.035
0.045
-0.041
-0.010
-0.010
-0.075
-0.098
-0.025
0.188
0.071
-0.113
-0.256
-0.066
0.100
0.214
0.004
-0.155
-0.159
-0.012
-0.059
-0.080
0.085
0.001
0.183
-0.095
-0.150
-0.157
0.179
0.160
-0.111
-0.138
0.058
-0.007
-0.033
0.064
0.051
-0.070
-0.075
-0.261
0.196
0.069
-0.073
-0.071
-0.076
0.020
0.097
0.031
0.056
-0.146
-0.063
-0.148
-0.035
-0.084
-0.008
0.047
0.052
0.065
0.060
-0.003
-0.061
-0.068
-0.033
-0.124
-0.019
-0.076
0.093
0.077
-0.109
0.152
-0.055
-0.014
-0.052
0.046
0.034
-0.049
-0.024
-0.145
-0.042
-0.085
0.029
-0.002
-0.214
-0.067
0.040
0.099
0.008
0.123
-0.027
-0.093
-0.101
-0.036
-0.025
0.072
-0.062
-0.135
0.149
0.100
0.001
0.088
0.054
-0.086
-0.035
-0.192
-0.088
-0.081
0.024
-0.211
-0.120
0.153
0.152
-0.006
-0.049
-0.121
-0.017
-0.087
-0.043
0.075
-0.049
0.053
0.035
-0.028
-0.002
-0.055
0.026
-0.094
-0.111
-0.155
0.030
-0.010
0.030
0.030
-0.081
-0.276
0.050
0.265
0.148
0.009
-0.113
-0.120
-0.103
0.058
0.034
0.117
-0.028
-0.120
-0.144
0.183
0.125
-0.046
-0.151
-0.211
-0.199
-0.061
0.004
0.126
0.086
-0.033
-0.024
-0.019
-0.096
-0.076
-0.095
0.111
0.038
-0.228
0.028
0.164
0.011
0.009
-0.071
0.051
0.077
-0.102
-0.093
-0.033
0.067
0.199
0.056
-0.097
-0.199
-0.067
-0.368
-0.009
0.198
0.032
0.300
0.023
0.136
-0.367
-0.142
-0.124
-0.019
0.183
-0.088
-0.126
0.008
0.194
0.111
0.060
-0.097
-0.028
-0.089
-0.250
-0.183
-0.011
0.009
-0.060
-0.060
0.100
0.202
0.163
-0.066
-0.065
-0.025
-0.085
-0.027
-0.080
-0.046
0.156
0.086
-0.028
-0.104
0.022
-0.005
-0.020
0.000
-0.011
-0.110
-0.083
-0.053
-0.045
-0.111
-0.067
0.008
0.018
-0.075
-0.217
0.015
0.228
0.098
-0.147
0.044
0.152
0.002
-0.128
-0.039
0.192
0.075
0.041
-0.222
-0.274
-0.082
-0.017
0.122
0.032
-0.059
-0.087
-0.126
-0.127
-0.248
-0.017
0.152
0.168
0.150
0.021
-0.126
-0.001
-0.134
-0.068
-0.026
0.013
0.068
-0.103
-0.137
0.004
-0.002
0.035
0.012
-0.033
-0.065
-0.004
0.032
0.028
0.004
-0.060
-0.062
-0.017
0.037
-0.013
-0.022
0.002
-0.034
-0.018
-0.029
-0.092
-0.157
0.004
-0.026
-0.032
0.023
0.002
0.097
-0.048
-0.088
0.151
-0.075
-0.008
-0.037
-0.043
0.065
0.001
-0.097
0.015
-0.024
-0.016
-0.094
-0.085
-0.020
-0.039
-0.033
-0.087
-0.080
0.114
0.114
-0.045
-0.117
-0.017
0.012
-0.051
-0.113
0.014
-0.066
0.193
-0.040
-0.103
-0.097
-0.173
0.107
0.110
0.195
-0.004
-0.127
-0.150
-0.004
-0.091
-0.178
-0.243
0.178
0.252
0.056
-0.154
-0.245
-0.252
-0.016
0.028
-0.035
-0.043
-0.029
-0.146
0.192
0.220
-0.133
-0.107
-0.074
0.153
-0.105
0.031
0.054
0.079
-0.056
-0.176
-0.079
-0.208
-0.165
0.116
0.134
0.032
0.029
-0.217
-0.141
-0.092
-0.225
-0.003
-0.044
0.109
0.083
0.062
0.028
-0.073
-0.003
-0.056
-0.085
-0.019
0.067
0.075
-0.064
-0.055
-0.090
0.022
0.064
0.001
0.037
-0.205
-0.181
-0.031
0.107
0.042
-0.041
0.064
0.012
-0.067
-0.163
-0.037
0.068
-0.080
-0.018
-0.117
0.014
0.154
-0.027
-0.020
0.016
-0.047
-0.054
0.136
-0.053
-0.223
-0.020
0.226
-0.114
-0.004
-0.168
-0.035
0.105
0.160
-0.071
-0.106
-0.083
-0.050
-0.120
0.214
0.096
-0.109
0.054
-0.023
-0.022
0.033
-0.170
-0.134
0.050
0.138
0.162
0.023
-0.081
-0.108
-0.139
-0.037
-0.105
-0.129
0.118
0.230
-0.001
0.019
0.023
-0.133
-0.111
-0.157
-0.051
-0.009
0.035
-0.009
0.119
-0.022
-0.216
0.033
0.059
0.007
-0.158
-0.255
-0.051
0.020
0.031
0.213
0.119
-0.195
-0.247
-0.007
0.083
-0.069
-0.004
0.301
0.271
-0.159
-0.241
-0.163
-0.097
-0.018
-0.031
-0.013
0.076
0.012
-0.045
-0.036
-0.091
-0.090
-0.033
-0.100
-0.003
0.049
0.002
-0.085
-0.024
0.076
-0.000
-0.001
-0.051
0.047
-0.062
-0.110
-0.039
0.087
0.033
-0.021
0.120
-0.008
-0.070
-0.129
-0.017
-0.103
0.012
-0.104
0.013
0.069
-0.148
-0.045
-0.017
-0.091
-0.028
-0.072
-0.034
0.116
0.045
-0.017
-0.104
-0.105
-0.084
0.011
0.043
0.099
0.106
-0.007
0.019
-0.176
-0.067
-0.047
-0.024
-0.032
-0.012
0.000
-0.169
-0.218
0.022
0.191
0.212
-0.044
0.045
-0.086
-0.225
-0.236
0.153
0.329
0.229
-0.114
-0.124
-0.099
0.079
0.075
-0.067
-0.092
-0.104
0.016
-0.055
0.096
-0.083
-0.093
-0.091
-0.087
-0.028
0.125
-0.167
-0.126
0.002
-0.001
-0.069
0.044
-0.005
-0.079
-0.081
-0.050
0.015
0.035
-0.061
-0.215
0.010
0.132
0.438
0.154
-0.131
-0.293
-0.018
-0.016
-0.100
0.148
0.182
-0.007
-0.023
-0.010
-0.143
0.014
-0.171
0.093
0.022
0.017
-0.101
-0.191
-0.001
0.033
-0.008
-0.185
0.110
0.044
-0.127
0.100
-0.017
-0.219
0.058
0.117
0.178
-0.028
-0.199
-0.243
-0.094
0.040
-0.115
0.008
0.036
0.020
-0.006
0.016
-0.037
-0.019
-0.017
-0.074
-0.035
0.033
0.084
0.080
0.235
-0.182
-0.189
0.011
-0.037
0.128
-0.010
-0.160
-0.229
0.047
0.061
-0.035
-0.109
-0.018
0.024
-0.037
-0.068
-0.074
-0.072
-0.057
0.071
0.146
-0.032
-0.142
-0.143
0.099
0.140
0.078
-0.044
-0.157
-0.141
-0.213
-0.010
0.174
0.058
-0.109
-0.057
-0.117
0.086
0.062
0.154
0.011
-0.110
-0.139
-0.089
-0.101
0.007
-0.083
-0.017
0.109
0.089
0.006
-0.054
-0.062
0.046
-0.163
0.105
-0.083
-0.050
-0.083
-0.088
0.041
0.037
-0.003
-0.091
0.110
-0.003
0.020
-0.153
-0.109
-0.034
0.264
0.198
-0.029
-0.131
-0.242
0.054
0.068
-0.004
-0.008
-0.055
-0.163
-0.052
0.106
-0.096
0.034
-0.068
0.045
-0.001
-0.078
-0.096
-0.057
-0.004
-0.028
0.015
-0.019
-0.001
0.016
0.021
-0.163
-0.135
0.059
-0.060
-0.015
-0.100
-0.019
0.024
0.014
-0.013
-0.005
-0.035
-0.025
0.101
-0.221
-0.034
-0.057
-0.012
0.030
0.088
-0.119
0.062
-0.011
-0.132
-0.251
0.040
0.030
0.094
-0.321
-0.002
0.233
-0.033
-0.083
-0.269
0.126
0.237
-0.005
-0.045
-0.057
-0.139
-0.090
-0.115
0.097
0.005
-0.016
-0.117
-0.007
0.110
-0.164
-0.116
-0.138
-0.058
-0.057
-0.035
0.054
0.064
0.019
0.031
-0.017
-0.233
-0.118
0.033
0.062
-0.096
-0.059
-0.024
0.049
-0.002
-0.020
0.084
-0.019
0.080
-0.031
-0.131
-0.177
-0.032
-0.085
0.110
0.035
0.132
-0.010
-0.204
-0.264
-0.085
-0.050
0.023
0.050
-0.094
0.007
0.122
0.148
-0.019
-0.066
-0.261
-0.094
0.344
0.172
0.321
-0.096
-0.484
-0.194
0.078
0.110
0.070
0.162
0.070
-0.141
-0.155
-0.285
-0.267
0.086
-0.001
-0.168
0.377
0.031
-0.297
-0.106
0.008
0.022
0.022
-0.040
-0.065
-0.085
0.002
-0.003
-0.082
0.061
0.052
-0.084
0.075
-0.036
0.039
-0.147
-0.104
-0.053
-0.128
-0.014
0.137
0.042
-0.089
-0.006
0.104
0.127
-0.225
-0.105
-0.145
0.027
0.147
-0.013
0.273
-0.116
-0.132
0.005
-0.104
-0.070
0.010
-0.098
-0.074
0.089
-0.063
-0.037
-0.082
-0.117
-0.011
-0.051
0.036
0.068
-0.223
-0.010
0.090
0.015
0.105
0.028
0.055
-0.007
-0.148
-0.101
-0.073
-0.083
-0.009
0.017
0.171
0.040
-0.079
-0.073
-0.133
-0.025
-0.161
0.051
-0.038
0.091
0.011
-0.042
0.009
-0.072
0.030
0.060
0.062
-0.057
-0.188
-0.110
0.040
0.175
0.077
-0.089
-0.096
-0.139
0.032
0.068
0.078
-0.075
0.025
-0.131
0.035
0.005
-0.093
-0.035
0.066
-0.031
0.030
0.076
-0.082
-0.034
-0.008
-0.076
0.011
-0.108
0.009
0.088
-0.058
0.018
-0.128
0.032
0.051
0.106
-0.071
0.002
-0.250
-0.166
0.000
-0.075
-0.180
-0.080
0.418
0.327
-0.126
-0.206
-0.128
0.120
-0.067
-0.039
-0.099
0.002
0.074
0.012
0.078
-0.079
0.038
-0.055
-0.047
-0.105
0.035
0.148
-0.034
-0.043
-0.228
-0.079
0.001
0.075
-0.031
-0.055
0.039
-0.021
-0.000
-0.150
-0.091
-0.031
0.064
-0.051
0.066
0.119
-0.043
-0.231
-0.108
-0.035
-0.012
-0.094
0.053
0.128
-0.135
0.051
0.009
-0.120
0.003
-0.057
-0.013
0.102
-0.012
-0.004
0.084
-0.169
-0.421
-0.101
0.117
0.376
0.135
0.087
0.047
-0.157
-0.180
-0.140
-0.012
-0.052
-0.018
0.089
0.029
0.043
-0.090
-0.013
0.055
-0.009
-0.080
-0.168
-0.228
0.136
0.072
-0.113
-0.019
-0.015
0.078
-0.024
0.001
0.008
-0.031
0.002
0.079
-0.060
-0.037
0.028
0.007
-0.125
-0.099
-0.130
0.186
0.204
0.086
-0.153
-0.159
-0.076
0.022
0.010
-0.009
-0.024
-0.061
0.097
0.254
-0.084
0.004
-0.202
-0.199
0.025
0.121
0.101
-0.014
-0.033
0.034
-0.107
-0.152
-0.153
0.159
0.053
0.040
-0.233
0.139
0.230
-0.050
-0.202
-0.173
-0.106
-0.075
0.012
0.080
0.106
0.095
-0.076
-0.087
0.015
-0.075
-0.061
-0.410
-0.143
0.044
0.319
0.044
0.035
0.137
0.160
-0.244
-0.116
0.067
-0.147
0.095
0.078
0.008
-0.109
-0.171
-0.122
-0.009
0.033
0.008
0.059
-0.028
-0.074
-0.073
-0.056
0.050
0.050
-0.064
-0.054
0.001
-0.054
-0.123
0.042
0.045
-0.089
-0.107
-0.056
0.030
0.037
0.100
-0.007
-0.031
-0.066
-0.174
0.026
-0.041
-0.045
0.063
0.066
-0.034
-0.049
0.073
0.090
-0.042
-0.194
-0.141
-0.186
0.003
-0.034
0.019
0.132
-0.159
0.084
0.014
-0.050
-0.060
-0.042
0.112
0.065
-0.032
-0.048
-0.082
-0.015
0.028
-0.177
0.092
0.220
0.034
-0.140
-0.103
-0.171
-0.092
0.259
0.101
-0.009
-0.201
-0.253
-0.191
0.100
0.168
0.071
-0.045
-0.097
0.177
-0.050
-0.160
-0.202
-0.332
-0.001
0.095
0.072
0.172
0.033
-0.061
-0.052
-0.184
-0.060
0.037
-0.014
0.012
0.026
0.090
0.000
-0.148
-0.026
0.083
-0.052
-0.075
-0.007
0.014
0.054
-0.090
-0.115
-0.034
0.015
0.005
0.018
-0.099
-0.122
0.056
-0.073
-0.007
-0.005
0.020
-0.073
0.064
0.191
-0.031
-0.133
-0.073
0.049
-0.072
-0.042
0.085
0.018
0.004
0.122
-0.199
-0.086
-0.142
-0.064
-0.051
0.042
-0.129
0.301
0.143
0.000
-0.167
-0.231
-0.028
-0.033
-0.042
-0.089
0.005
0.039
0.123
0.031
0.008
-0.137
-0.014
-0.027
-0.079
0.035
0.012
-0.085
-0.208
0.030
0.210
0.093
-0.193
-0.185
0.048
0.108
0.092
-0.089
-0.137
-0.047
0.102
0.108
0.109
-0.245
-0.312
-0.052
0.122
0.045
0.053
-0.016
-0.076
-0.238
-0.093
0.024
0.143
0.156
-0.216
-0.294
-0.285
0.142
0.147
0.081
0.073
0.061
0.098
-0.046
-0.102
-0.048
0.049
0.107
0.026
-0.105
-0.116
-0.228
0.038
-0.078
-0.018
0.043
0.034
0.046
-0.160
-0.216
-0.154
-0.060
0.064
-0.023
0.113
0.088
-0.045
-0.048
-0.102
0.019
-0.083
-0.069
0.096
0.043
-0.004
0.027
-0.117
-0.204
-0.019
0.099
0.131
-0.118
0.057
-0.052
-0.034
-0.016
-0.051
0.118
0.082
0.040
-0.066
-0.109
-0.083
0.063
-0.017
-0.068
-0.066
-0.074
0.030
0.059
-0.074
-0.001
-0.040
-0.089
-0.053
-0.049
-0.001
-0.001
-0.060
0.013
0.007
0.012
-0.006
-0.087
-0.083
-0.170
0.142
0.186
0.068
0.004
-0.114
-0.097
-0.135
-0.121
0.020
-0.019
0.091
-0.021
-0.233
-0.107
-0.045
-0.022
0.046
0.155
0.038
0.072
-0.146
-0.253
-0.077
0.027
0.189
0.224
-0.011
0.117
0.139
-0.060
-0.152
-0.255
-0.271
-0.170
0.018
0.084
0.092
-0.001
-0.081
-0.017
-0.109
0.103
-0.048
-0.161
-0.112
-0.050
0.146
0.230
-0.010
0.015
-0.184
-0.163
-0.008
-0.014
-0.046
-0.045
0.027
-0.094
0.045
-0.021
0.039
-0.029
-0.028
-0.138
-0.087
-0.014
-0.032
0.160
0.064
-0.054
-0.084
0.054
-0.097
-0.136
0.024
0.012
-0.031
0.045
0.117
-0.137
-0.130
-0.138
0.006
-0.010
0.081
0.168
0.062
-0.117
-0.150
0.001
-0.137
-0.080
0.084
-0.010
0.110
-0.077
0.060
0.114
0.010
-0.172
-0.041
-0.142
-0.105
0.010
0.169
0.156
-0.069
-0.077
-0.112
-0.037
0.004
-0.054
-0.198
-0.126
0.125
0.404
0.252
-0.001
-0.300
-0.255
-0.027
0.034
-0.045
0.004
0.119
0.057
0.054
-0.013
-0.057
-0.258
-0.044
0.059
0.002
0.129
0.047
-0.090
-0.126
-0.094
-0.083
0.053
0.023
0.026
0.095
0.013
0.096
0.057
-0.010
-0.161
-0.139
-0.006
0.106
-0.048
0.061
0.005
-0.181
0.062
0.049
0.028
-0.080
0.012
-0.064
-0.189
-0.206
-0.234
0.051
0.243
0.212
0.101
-0.047
-0.121
-0.093
-0.168
-0.039
0.054
-0.081
-0.204
-0.014
0.221
0.162
0.015
-0.140
-0.068
-0.078
-0.062
-0.099
-0.150
0.015
0.052
0.026
-0.110
0.236
0.252
0.193
-0.121
-0.252
-0.187
-0.095
-0.053
-0.082
-0.012
0.055
0.205
0.061
-0.136
-0.277
-0.146
-0.265
-0.258
0.027
0.052
0.038
0.157
0.238
0.061
-0.188
-0.272
-0.131
-0.006
0.027
0.174
0.087
-0.011
0.143
-0.047
-0.202
-0.021
0.036
-0.043
-0.092
-0.129
0.007
-0.012
0.077
0.003
-0.145
-0.102
0.043
0.117
0.049
0.040
0.035
-0.166
-0.033
-0.067
0.005
-0.106
0.040
0.011
0.012
-0.071
0.051
-0.011
-0.018
-0.162
-0.103
0.016
0.061
-0.034
-0.025
-0.073
-0.165
0.039
-0.179
0.170
0.146
-0.158
-0.099
-0.079
0.078
0.067
0.067
0.075
0.012
-0.307
-0.174
-0.047
0.047
-0.035
-0.006
0.084
0.055
0.097
-0.089
-0.031
-0.093
-0.102
-0.000
-0.138
-0.063
0.038
0.057
-0.054
-0.087
0.174
0.213
0.075
-0.061
-0.304
-0.133
0.037
0.002
0.129
-0.074
-0.253
-0.017
0.128
0.087
0.133
0.031
-0.083
-0.151
-0.114
-0.148
-0.067
-0.122
-0.093
0.092
0.066
-0.029
-0.137
0.102
0.019
-0.085
-0.072
-0.027
-0.139
-0.020
0.066
-0.043
-0.056
-0.048
-0.025
0.088
0.086
0.121
0.090
0.020
-0.160
-0.109
-0.067
0.018
-0.053
-0.051
0.002
0.016
-0.306
0.063
0.206
0.280
0.362
0.075
-0.165
-0.241
-0.159
-0.183
-0.124
0.020
0.284
0.330
-0.008
-0.094
-0.102
-0.034
-0.121
-0.256
-0.190
-0.096
0.022
0.016
-0.072
0.024
-0.009
0.016
-0.076
-0.023
-0.076
0.029
0.110
-0.080
-0.083
-0.000
0.071
0.022
0.118
0.007
0.017
-0.007
0.070
-0.015
-0.177
-0.201
0.062
0.063
0.172
0.032
0.005
-0.051
-0.065
-0.061
0.025
-0.065
-0.150
-0.175
0.198
0.159
-0.102
0.066
0.000
0.017
-0.101
-0.153
-0.019
0.053
-0.059
-0.215
-0.178
0.172
0.178
0.017
-0.145
-0.258
-0.156
-0.152
0.068
0.217
0.112
-0.217
0.055
-0.115
0.043
-0.006
0.143
0.131
0.030
-0.162
-0.169
0.058
0.162
-0.085
-0.241
-0.193
0.213
0.047
-0.023
-0.058
-0.076
-0.227
0.186
0.119
-0.053
-0.137
-0.058
-0.044
0.082
-0.042
0.074
-0.109
0.070
-0.182
-0.119
0.036
0.052
-0.020
-0.045
0.020
0.113
0.043
0.060
-0.030
-0.089
-0.035
0.019
0.038
-0.101
0.104
0.033
-0.009
0.074
-0.008
-0.151
-0.241
-0.112
0.091
0.047
0.079
-0.078
-0.018
-0.256
-0.062
0.228
0.039
0.094
0.047
-0.092
-0.016
-0.102
-0.240
-0.053
0.146
0.051
-0.177
-0.109
0.213
0.013
-0.105
-0.046
-0.051
0.173
-0.067
-0.204
-0.113
0.145
0.021
0.069
0.327
-0.031
-0.136
-0.349
-0.062
0.349
-0.004
0.090
-0.124
-0.023
-0.059
-0.163
-0.166
-0.081
0.026
0.159
0.115
0.027
-0.057
0.050
-0.224
-0.316
-0.003
0.006
0.079
0.277
0.020
0.108
-0.077
-0.120
-0.127
0.015
-0.120
-0.032
0.066
0.195
0.070
-0.117
-0.071
-0.041
-0.137
-0.082
-0.157
0.031
0.178
0.027
0.036
-0.069
-0.041
-0.092
-0.055
-0.028
0.025
-0.106
-0.039
0.032
0.123
0.039
-0.182
-0.017
0.016
-0.081
0.023
-0.120
0.016
0.090
-0.025
0.017
-0.025
0.008
-0.034
0.006
0.033
-0.023
0.062
0.054
-0.169
-0.148
-0.080
-0.074
0.127
0.079
-0.015
-0.181
-0.023
0.003
0.004
-0.057
-0.094
-0.037
-0.003
0.028
0.109
-0.013
0.041
-0.075
-0.280
-0.025
0.020
0.183
0.092
-0.093
-0.083
-0.023
-0.037
-0.075
-0.062
0.026
-0.197
-0.140
0.016
0.038
-0.019
0.033
-0.204
-0.096
0.195
0.215
-0.165
-0.295
0.038
0.106
0.241
0.024
-0.234
-0.100
-0.032
0.058
0.098
0.108
0.020
-0.120
-0.055
-0.112
-0.054
-0.014
-0.032
-0.082
-0.046
0.008
0.061
0.098
-0.157
-0.115
0.008
0.126
-0.133
0.038
0.002
-0.018
0.134
-0.201
-0.209
0.064
0.140
-0.030
0.086
0.275
0.322
-0.005
-0.255
-0.095
-0.186
-0.296
0.093
0.300
0.054
0.039
-0.072
-0.121
-0.358
-0.049
0.043
0.092
-0.018
-0.133
-0.040
0.061
0.114
0.042
-0.152
0.047
0.002
-0.087
-0.168
0.106
0.038
0.092
0.041
0.043
-0.092
0.024
0.000
-0.098
0.005
-0.130
-0.068
0.074
-0.112
-0.020
0.065
0.046
-0.032
0.006
0.017
-0.012
0.001
0.010
0.018
-0.050
-0.070
-0.105
-0.076
0.004
-0.006
-0.056
-0.145
-0.189
0.129
0.202
0.182
-0.183
-0.121
-0.151
-0.153
-0.012
0.076
-0.017
0.036
0.089
0.002
-0.023
-0.128
-0.107
0.002
-0.125
-0.323
-0.034
0.044
0.236
0.121
-0.114
-0.212
0.030
0.157
0.054
0.063
0.111
-0.163
-0.125
-0.118
-0.003
0.112
0.158
-0.069
-0.111
-0.022
-0.095
-0.075
0.024
0.006
-0.080
-0.108
-0.032
-0.108
-0.013
-0.082
0.045
0.017
0.013
0.063
0.045
0.039
-0.159
-0.113
-0.028
-0.024
-0.070
0.060
0.194
0.116
-0.027
-0.137
-0.079
-0.023
-0.203
-0.165
0.063
0.243
0.156
-0.048
-0.092
-0.102
-0.173
-0.042
0.014
0.007
-0.065
-0.025
0.044
-0.175
0.019
-0.061
0.117
0.032
0.008
-0.024
-0.109
-0.015
-0.006
-0.476
0.326
0.143
-0.081
-0.332
-0.082
0.406
0.219
-0.131
-0.049
-0.196
-0.242
-0.075
-0.050
-0.004
0.086
0.031
0.050
0.003
-0.233
-0.180
0.007
0.109
-0.030
0.050
0.002
-0.075
-0.133
-0.108
0.018
0.020
-0.041
0.086
0.126
0.062
-0.148
-0.060
0.032
0.002
-0.164
0.046
0.072
-0.012
-0.069
-0.186
0.042
0.171
-0.016
-0.074
-0.150
0.020
-0.087
-0.031
-0.086
-0.057
0.221
0.179
0.049
-0.212
-0.276
-0.062
0.092
0.140
0.108
0.149
0.005
-0.120
-0.186
-0.210
0.036
0.009
0.098
0.061
-0.021
0.038
-0.036
-0.256
-0.174
-0.060
-0.050
0.086
0.053
0.084
0.070
-0.039
-0.011
0.082
0.095
0.100
-0.052
-0.291
-0.033
-0.044
0.130
0.214
0.165
-0.044
-0.069
-0.271
-0.216
-0.162
-0.001
0.049
0.062
0.044
0.020
0.010
-0.033
-0.199
-0.221
0.088
0.102
-0.117
0.020
0.114
0.050
0.082
-0.034
-0.169
-0.111
0.013
0.045
0.027
0.022
-0.163
-0.087
0.022
0.018
0.050
-0.174
-0.096
-0.059
-0.111
0.030
0.062
-0.072
0.091
-0.008
0.032
0.036
-0.028
-0.054
-0.026
-0.198
-0.113
0.073
0.038
-0.113
-0.006
0.008
0.025
-0.004
-0.166
-0.172
-0.031
0.275
0.139
-0.007
-0.031
-0.026
-0.089
-0.033
0.185
-0.014
-0.302
-0.279
-0.078
0.156
-0.211
-0.159
0.085
0.337
0.264
-0.093
-0.314
-0.200
-0.096
0.115
-0.011
0.124
0.104
0.207
0.070
-0.098
0.041
-0.175
-0.207
-0.090
-0.167
-0.143
0.082
-0.016
-0.110
-0.034
0.026
-0.089
-0.290
-0.007
0.371
0.233
0.046
-0.150
-0.235
-0.092
-0.036
0.078
0.027
0.003
0.021
0.022
-0.193
-0.270
0.008
0.107
0.093
0.066
-0.255
-0.199
0.137
0.179
0.066
-0.042
-0.152
-0.231
-0.125
0.086
0.191
0.033
-0.085
-0.173
-0.006
0.035
-0.044
-0.131
-0.053
-0.033
-0.055
-0.123
0.064
-0.035
-0.130
-0.169
0.110
-0.010
0.056
-0.109
-0.057
-0.042
0.038
-0.017
-0.037
-0.173
0.142
0.100
-0.145
-0.042
0.036
-0.046
0.205
-0.094
-0.183
-0.085
0.056
0.012
0.025
-0.084
-0.125
0.040
-0.050
-0.007
-0.109
-0.057
-0.008
0.078
0.040
-0.050
-0.099
-0.040
-0.016
0.036
-0.003
-0.086
0.051
0.066
-0.181
-0.139
0.020
0.045
0.250
0.129
-0.310
-0.238
0.072
0.132
0.117
0.004
-0.062
-0.086
-0.174
0.008
0.038
-0.095
-0.190
0.012
0.141
0.295
0.139
-0.258
-0.216
-0.075
-0.159
0.006
0.088
0.148
0.119
-0.063
-0.043
-0.148
-0.064
-0.073
0.216
0.073
-0.063
-0.209
0.087
-0.078
-0.013
0.031
-0.103
-0.017
0.234
0.209
-0.039
-0.190
-0.172
-0.172
0.104
0.039
0.191
0.146
-0.140
-0.141
-0.068
-0.123
-0.015
-0.140
0.008
-0.010
0.133
0.044
-0.005
-0.064
-0.076
0.140
0.065
0.241
0.038
-0.263
-0.292
-0.182
-0.110
-0.109
0.178
0.044
0.002
-0.310
-0.106
0.141
-0.105
-0.055
-0.082
0.265
0.190
-0.049
-0.143
-0.181
-0.028
0.406
0.073
0.216
-0.141
-0.149
-0.027
0.032
-0.142
-0.160
-0.110
-0.102
-0.037
-0.073
-0.034
0.087
0.018
0.003
0.102
0.039
-0.272
-0.156
-0.077
0.021
0.024
0.049
0.075
-0.092
0.146
0.044
-0.200
-0.240
-0.107
0.047
-0.014
0.132
-0.050
-0.073
-0.043
-0.057
-0.144
0.033
0.130
0.190
0.065
-0.157
-0.211
-0.129
-0.016
0.060
0.039
0.123
0.187
0.191
-0.129
-0.273
-0.068
-0.085
0.021
-0.043
0.057
-0.063
-0.079
-0.081
-0.071
-0.094
0.076
-0.129
-0.095
-0.084
0.195
0.096
-0.114
0.047
0.018
-0.227
-0.100
0.085
0.209
0.106
0.061
-0.008
-0.006
-0.021
-0.091
-0.204
-0.079
-0.190
0.023
0.066
0.031
-0.065
0.029
-0.054
0.024
0.041
0.057
-0.213
-0.160
-0.004
0.159
0.044
-0.018
-0.056
0.086
0.093
0.013
-0.050
-0.194
0.033
-0.097
-0.007
0.005
-0.062
0.044
-0.038
-0.034
-0.014
0.018
0.028
-0.143
0.095
-0.041
-0.045
-0.013
0.045
-0.124
-0.069
-0.181
-0.032
-0.047
0.177
0.145
0.044
-0.071
-0.041
-0.124
-0.206
-0.149
0.052
0.074
-0.057
0.199
0.292
-0.075
-0.258
-0.097
0.124
-0.026
-0.142
-0.118
0.015
0.074
0.075
-0.174
-0.082
0.088
0.001
-0.047
0.065
0.088
-0.130
-0.171
-0.214
0.100
0.049
0.024
0.057
0.248
0.107
-0.177
-0.145
-0.068
0.082
0.033
-0.072
-0.148
0.028
-0.016
-0.063
0.060
-0.240
-0.174
0.037
0.033
0.075
-0.043
-0.053
0.059
-0.158
-0.037
0.123
-0.078
-0.028
-0.007
0.070
-0.036
0.028
0.016
0.005
0.012
-0.021
-0.159
0.082
0.037
-0.014
-0.171
-0.081
-0.116
-0.092
0.109
-0.010
-0.048
-0.052
-0.094
0.028
0.051
-0.022
0.021
0.060
-0.086
-0.171
0.028
-0.062
0.086
0.037
-0.035
-0.125
0.131
-0.078
-0.068
-0.077
-0.092
0.053
0.029
0.034
0.151
0.039
-0.003
-0.047
-0.086
-0.053
-0.114
-0.074
-0.009
-0.054
-0.121
0.096
-0.043
-0.039
-0.063
-0.152
0.009
0.050
-0.123
0.002
0.144
-0.024
-0.054
0.074
0.029
-0.291
0.089
-0.022
-0.243
0.030
0.266
0.175
-0.103
-0.269
-0.077
0.170
0.205
-0.030
-0.154
-0.090
-0.124
-0.031
-0.099
0.071
-0.051
0.003
-0.024
-0.079
-0.272
-0.067
0.206
0.159
0.099
-0.037
-0.095
-0.048
-0.107
-0.049
0.022
0.049
0.138
-0.025
-0.119
-0.106
0.112
-0.077
-0.079
-0.079
0.014
-0.183
-0.102
-0.159
-0.008
0.182
0.040
0.025
0.083
0.119
0.080
-0.112
-0.122
-0.097
-0.058
0.039
0.033
-0.076
0.073
-0.042
-0.034
-0.102
-0.001
-0.220
0.088
0.088
-0.036
-0.082
-0.090
-0.060
0.053
0.134
0.003
-0.119
0.009
-0.018
0.041
0.040
0.092
-0.010
-0.156
-0.006
-0.049
-0.008
0.095
-0.027
-0.147
-0.029
0.103
-0.152
-0.071
0.019
0.027
0.049
-0.048
-0.171
0.039
0.335
-0.072
-0.200
0.034
0.011
0.190
-0.105
-0.066
-0.031
-0.096
0.056
-0.104
-0.107
-0.142
-0.149
0.093
0.086
0.092
0.012
0.013
-0.044
-0.215
-0.172
0.037
-0.035
0.046
0.110
-0.048
0.049
0.094
0.020
-0.017
0.008
-0.142
0.009
-0.167
-0.243
-0.183
-0.036
0.091
0.248
-0.017
0.053
-0.069
-0.095
-0.053
-0.158
-0.051
0.088
0.067
0.136
-0.034
-0.093
-0.049
-0.031
-0.201
-0.003
0.112
-0.080
0.019
-0.052
-0.183
0.044
0.007
-0.110
0.050
-0.066
0.086
-0.066
-0.060
0.058
0.021
-0.019
-0.006
-0.033
0.040
-0.011
-0.098
-0.096
-0.053
-0.098
-0.094
0.023
0.126
-0.027
-0.304
0.130
0.012
-0.065
0.047
0.170
0.003
0.028
-0.057
-0.010
-0.043
0.053
-0.118
-0.269
0.226
0.244
-0.024
-0.221
-0.214
0.099
-0.107
-0.080
0.011
0.070
0.021
0.045
0.032
-0.048
0.025
-0.201
-0.293
0.031
-0.032
-0.012
0.069
0.227
0.171
-0.041
0.020
-0.115
-0.196
-0.204
0.070
0.059
0.016
0.113
0.108
-0.040
-0.058
-0.065
-0.062
-0.047
-0.078
-0.056
-0.223
-0.202
-0.028
0.079
0.046
0.043
0.150
-0.018
0.010
-0.100
-0.058
-0.070
0.009
0.068
0.014
-0.154
0.071
-0.108
-0.064
-0.098
-0.023
-0.055
-0.158
-0.035
0.114
0.090
-0.039
-0.101
-0.118
-0.161
-0.043
0.135
0.014
0.089
0.095
0.060
-0.095
-0.219
-0.034
0.040
0.107
-0.025
0.007
-0.130
-0.071
-0.123
-0.099
0.017
0.024
0.047
-0.007
-0.085
-0.029
-0.082
-0.090
0.062
0.113
0.008
-0.298
-0.244
-0.076
0.166
0.254
-0.064
-0.079
-0.040
0.075
-0.019
0.022
0.048
0.006
-0.072
0.049
0.097
-0.071
-0.150
-0.082
-0.078
-0.006
-0.037
0.029
-0.009
-0.003
-0.074
-0.102
-0.043
0.084
-0.074
-0.030
0.079
0.012
0.029
0.047
0.046
-0.044
0.015
-0.070
-0.208
-0.099
0.212
0.181
0.149
-0.131
-0.455
-0.206
0.207
0.259
0.097
-0.066
-0.160
0.037
0.047
0.021
-0.059
-0.170
0.039
-0.082
-0.157
0.230
-0.004
-0.001
-0.106
-0.149
-0.017
-0.022
0.081
0.197
0.037
-0.085
-0.050
-0.145
0.078
0.159
0.042
0.054
-0.082
-0.218
-0.118
0.070
0.059
0.104
0.073
-0.112
-0.113
-0.005
-0.067
-0.139
-0.073
0.050
0.033
-0.013
0.034
-0.058
-0.078
0.015
0.006
-0.220
0.207
0.074
0.182
0.109
0.009
-0.270
-0.179
-0.113
0.077
0.210
0.019
-0.235
0.156
0.068
-0.015
-0.124
-0.219
-0.144
-0.040
0.008
0.107
0.032
0.070
-0.044
-0.046
0.097
0.100
-0.146
-0.196
-0.137
0.113
0.081
0.109
0.087
-0.034
-0.020
-0.057
-0.145
-0.086
-0.060
-0.017
0.083
0.128
0.093
0.114
0.145
-0.208
-0.219
-0.160
-0.010
0.057
-0.102
0.039
0.082
-0.024
-0.086
-0.049
-0.036
-0.079
0.035
0.044
0.008
-0.032
0.012
-0.035
-0.208
-0.312
0.130
0.404
0.121
-0.096
-0.152
-0.214
0.114
0.124
0.005
-0.028
-0.078
0.040
0.160
0.012
-0.030
0.053
0.031
-0.058
-0.066
-0.172
-0.102
-0.082
-0.025
0.075
0.038
-0.032
-0.149
-0.071
0.020
-0.152
0.066
-0.007
-0.113
-0.043
0.084
0.234
-0.012
-0.194
-0.134
-0.018
0.082
0.005
-0.013
-0.009
-0.096
0.103
0.130
-0.019
-0.142
-0.179
-0.039
0.211
-0.069
-0.103
-0.021
-0.166
-0.080
0.029
0.048
0.066
-0.015
-0.022
-0.108
-0.179
-0.003
0.092
0.049
-0.020
-0.151
0.044
-0.076
-0.070
0.072
0.098
-0.046
-0.138
0.028
0.147
0.006
-0.038
-0.032
0.000
0.032
-0.018
-0.098
-0.112
0.073
0.016
-0.048
-0.089
-0.120
-0.015
0.027
0.090
-0.052
-0.039
-0.134
0.006
0.035
-0.065
-0.134
-0.014
0.217
-0.192
-0.185
0.091
0.069
-0.177
-0.167
-0.148
-0.111
0.084
0.253
0.025
0.113
-0.058
-0.023
-0.173
-0.102
-0.165
-0.089
0.200
0.107
0.279
0.113
-0.192
-0.193
0.046
0.065
-0.009
-0.122
-0.057
0.003
-0.068
-0.161
-0.102
0.288
0.234
-0.110
-0.262
-0.305
-0.175
0.113
0.176
0.080
-0.009
0.113
-0.103
-0.091
-0.054
-0.070
-0.109
0.025
-0.081
-0.031
-0.057
-0.059
-0.108
0.016
-0.052
0.024
-0.027
-0.012
-0.186
-0.161
0.051
0.141
0.085
-0.026
-0.085
0.032
-0.012
-0.073
0.170
0.130
-0.037
-0.128
-0.197
-0.060
0.098
0.179
-0.034
-0.153
0.148
-0.079
-0.085
-0.009
0.009
-0.112
-0.030
-0.013
-0.030
-0.087
-0.103
-0.086
0.006
0.017
0.038
0.107
0.029
0.061
-0.098
-0.420
-0.003
0.093
0.118
0.071
-0.186
0.031
-0.086
-0.023
0.239
0.125
-0.031
-0.138
-0.037
-0.049
-0.203
-0.045
0.004
0.269
-0.262
-0.145
0.133
0.255
0.150
-0.270
-0.196
-0.087
-0.055
-0.065
-0.061
0.023
0.101
0.033
-0.026
0.026
-0.076
-0.129
-0.154
0.126
-0.011
-0.183
0.014
-0.053
-0.027
-0.077
-0.102
0.186
0.250
-0.019
-0.205
-0.178
-0.080
0.267
0.239
0.056
-0.120
-0.228
-0.148
-0.160
0.074
0.132
0.003
0.069
-0.099
-0.101
-0.244
0.022
0.038
-0.095
0.081
-0.001
0.067
0.024
0.045
-0.155
-0.014
-0.018
-0.008
0.033
-0.050
-0.025
-0.022
-0.201
-0.044
0.049
0.016
0.069
-0.132
0.005
-0.061
0.075
0.033
-0.023
0.081
-0.073
-0.080
-0.168
-0.161
0.004
0.164
0.109
0.041
-0.060
-0.005
-0.101
-0.064
-0.033
-0.137
-0.170
0.139
0.169
0.020
0.095
0.039
-0.076
-0.022
-0.174
-0.031
0.084
-0.105
0.069
0.172
-0.095
-0.163
-0.119
-0.044
0.062
0.039
-0.094
-0.016
0.018
0.131
0.054
-0.125
-0.049
-0.113
-0.134
-0.029
0.029
-0.006
-0.025
0.006
0.020
0.117
0.039
-0.039
-0.113
-0.070
-0.173
-0.185
0.094
0.190
-0.091
-0.165
0.137
0.037
-0.043
-0.179
0.004
0.134
0.072
-0.100
-0.127
-0.071
0.088
-0.056
-0.067
0.036
-0.026
-0.088
-0.014
-0.201
0.033
0.213
0.089
-0.082
-0.141
-0.155
-0.067
-0.058
0.085
0.002
-0.020
0.022
0.027
-0.027
0.003
-0.104
-0.123
-0.012
0.005
-0.160
-0.045
0.014
0.087
0.168
0.015
-0.078
-0.239
-0.089
0.115
0.106
0.103
-0.194
0.005
0.122
-0.084
-0.128
0.007
-0.040
0.046
0.095
-0.013
-0.116
-0.032
-0.089
-0.047
-0.133
-0.099
-0.017
0.007
0.087
0.078
0.024
0.040
-0.130
-0.077
0.072
-0.084
-0.059
0.009
0.051
0.095
-0.011
-0.276
-0.158
-0.031
0.059
0.143
0.015
-0.035
-0.016
-0.118
-0.172
-0.011
0.092
0.081
0.044
0.152
-0.034
-0.211
-0.203
-0.020
-0.070
0.075
-0.111
-0.126
-0.049
0.285
0.254
0.016
-0.173
-0.126
-0.081
-0.026
0.051
0.031
-0.011
0.115
0.035
0.043
-0.047
-0.118
0.018
-0.100
-0.080
-0.080
-0.030
0.046
0.076
0.050
-0.196
0.043
0.057
-0.077
-0.129
-0.087
0.004
0.043
-0.018
-0.107
-0.129
0.034
0.044
-0.027
-0.029
0.198
0.050
-0.188
-0.045
0.078
0.032
0.041
-0.114
-0.017
0.155
-0.045
-0.120
-0.099
0.020
0.077
-0.075
0.057
-0.037
-0.152
-0.029
-0.135
0.095
0.067
0.058
-0.059
0.022
-0.163
-0.066
-0.093
-0.053
0.203
0.099
0.039
-0.014
-0.124
-0.021
-0.019
-0.157
-0.190
-0.039
-0.057
0.089
-0.004
0.038
0.015
-0.091
0.006
-0.007
-0.100
0.004
-0.006
0.053
0.067
-0.022
0.011
-0.013
0.010
-0.038
-0.145
-0.143
-0.079
-0.194
-0.096
0.087
0.128
-0.018
-0.187
-0.016
0.136
0.247
-0.144
-0.171
-0.015
0.054
-0.016
-0.001
0.059
-0.047
-0.063
0.038
0.021
-0.073
-0.141
-0.153
0.110
-0.049
-0.055
-0.078
0.025
0.270
0.045
-0.140
-0.163
-0.185
-0.031
-0.029
-0.043
0.156
0.191
-0.164
-0.137
-0.024
-0.016
-0.132
0.048
0.074
0.088
-0.005
-0.206
0.075
0.002
-0.001
0.076
0.057
-0.122
-0.020
0.061
-0.089
-0.091
-0.107
0.041
-0.156
-0.061
0.013
0.054
0.006
-0.034
-0.073
-0.064
-0.008
0.079
-0.005
-0.172
-0.221
-0.108
0.177
0.004
-0.086
0.059
0.165
0.085
-0.125
-0.152
-0.109
-0.038
0.089
0.033
0.021
-0.069
-0.019
-0.089
-0.015
-0.076
-0.033
0.155
-0.041
-0.184
-0.254
-0.094
-0.042
-0.023
0.055
0.084
0.112
-0.123
-0.096
-0.066
-0.064
-0.013
-0.107
0.055
0.133
0.024
-0.002
0.056
-0.030
-0.081
-0.336
-0.143
-0.146
0.150
0.451
0.185
-0.135
-0.330
-0.091
-0.155
0.013
-0.085
-0.034
0.226
0.129
-0.072
-0.215
-0.053
-0.094
-0.037
0.013
0.055
0.006
-0.327
-0.344
0.015
0.214
0.244
0.001
0.078
-0.027
-0.036
-0.037
-0.087
-0.024
-0.087
0.098
-0.006
-0.090
-0.022
-0.049
0.096
-0.104
-0.036
-0.018
-0.092
-0.155
-0.032
0.012
-0.002
0.109
-0.033
0.001
-0.072
-0.023
0.057
-0.055
-0.108
-0.054
-0.034
-0.046
-0.143
-0.038
-0.059
0.070
-0.099
0.141
0.074
-0.002
-0.104
-0.166
-0.251
0.126
0.156
0.105
-0.043
-0.101
-0.033
0.010
-0.106
-0.145
-0.182
-0.047
0.055
0.108
0.100
0.050
-0.009
-0.086
-0.075
-0.315
0.027
0.043
-0.023
-0.023
0.102
0.024
-0.065
0.095
-0.015
-0.143
-0.096
-0.094
0.062
-0.014
-0.145
-0.006
0.088
-0.086
-0.068
-0.091
-0.106
-0.046
0.142
0.306
0.140
-0.202
-0.195
-0.150
-0.075
0.067
0.124
0.109
0.002
-0.028
-0.102
-0.114
-0.033
-0.076
-0.305
-0.079
0.199
0.217
0.052
0.089
-0.023
-0.178
-0.131
0.012
0.186
0.100
0.031
0.043
-0.086
0.038
-0.086
-0.093
0.076
-0.163
-0.110
-0.115
-0.006
-0.011
-0.060
0.041
0.010
-0.103
-0.150
0.109
0.025
0.070
-0.003
0.010
0.029
-0.125
-0.066
-0.123
0.123
-0.071
0.003
0.128
-0.039
-0.170
-0.109
-0.000
0.055
-0.116
-0.043
-0.066
0.031
0.123
0.138
-0.018
-0.011
-0.179
-0.086
-0.032
0.062
0.118
0.011
-0.061
0.014
-0.076
-0.012
-0.016
-0.146
0.028
0.026
0.012
0.013
-0.302
-0.076
0.063
0.148
0.180
0.041
-0.077
-0.111
-0.166
-0.041
0.057
0.004
0.116
0.033
-0.007
-0.107
-0.025
0.002
0.116
-0.100
-0.195
-0.066
-0.133
-0.096
-0.013
0.036
0.210
0.048
-0.273
-0.187
0.190
0.212
-0.024
-0.103
-0.171
0.070
0.099
-0.184
0.188
0.169
-0.092
-0.077
-0.081
-0.018
-0.005
-0.007
-0.007
0.070
0.041
0.016
-0.005
-0.181
-0.050
-0.014
0.064
0.063
-0.122
-0.129
0.025
0.258
0.043
-0.077
-0.246
-0.200
-0.041
0.092
-0.013
-0.049
-0.058
0.073
-0.104
-0.017
-0.028
-0.089
-0.074
-0.074
-0.043
0.062
0.004
0.176
-0.018
-0.136
-0.019
-0.240
-0.228
0.095
0.153
-0.048
0.182
-0.055
-0.234
-0.027
0.138
0.010
-0.081
-0.006
-0.054
-0.057
-0.017
0.047
0.049
-0.060
-0.105
0.019
0.032
0.039
-0.101
-0.076
0.043
0.010
-0.005
-0.053
-0.053
-0.025
-0.093
0.091
-0.102
-0.000
0.008
-0.006
0.087
-0.102
0.002
-0.049
-0.049
-0.009
-0.068
0.089
-0.066
-0.113
-0.092
-0.057
-0.057
0.061
-0.076
-0.005
-0.072
0.090
0.019
0.047
0.028
-0.064
0.056
0.016
0.070
0.060
0.014
-0.208
-0.225
0.247
0.115
0.014
0.019
0.023
0.010
-0.007
-0.135
-0.178
-0.041
-0.037
0.010
0.014
-0.033
0.012
0.002
0.017
-0.107
-0.148
-0.161
0.061
0.006
-0.057
0.144
0.073
-0.185
-0.013
0.112
-0.025
-0.050
0.168
-0.037
-0.192
-0.044
0.003
-0.016
-0.051
0.021
-0.037
0.011
-0.057
-0.001
-0.078
-0.127
-0.019
0.073
-0.052
-0.203
-0.022
0.080
-0.011
0.118
0.081
0.043
-0.008
-0.217
-0.055
0.019
-0.024
-0.097
-0.056
-0.000
0.008
-0.109
-0.022
0.120
0.024
0.101
0.029
-0.042
-0.053
-0.193
-0.202
-0.031
0.026
0.189
-0.082
-0.213
0.273
0.119
-0.063
-0.202
-0.162
0.013
0.167
-0.004
-0.105
-0.106
0.030
-0.000
-0.009
0.075
0.095
-0.004
-0.094
-0.024
-0.159
-0.038
-0.104
-0.076
-0.152
0.014
0.006
-0.103
0.130
0.162
-0.038
-0.060
-0.174
-0.082
-0.035
0.043
0.208
0.104
0.030
-0.141
-0.016
-0.238
-0.308
0.172
0.138
0.082
-0.052
-0.144
-0.037
-0.017
-0.024
0.068
0.091
0.015
0.015
-0.039
-0.069
-0.141
-0.103
-0.034
0.156
0.047
0.093
-0.117
-0.164
-0.140
-0.114
-0.051
-0.079
-0.103
-0.029
0.029
0.042
0.070
0.088
0.021
-0.011
-0.047
0.015
-0.059
-0.023
0.026
-0.016
-0.009
0.056
0.018
-0.070
-0.056
-0.087
-0.057
-0.116
-0.039
-0.046
-0.100
0.095
0.093
-0.042
-0.022
-0.145
-0.041
0.047
0.081
0.113
0.089
0.074
-0.117
0.006
0.045
-0.046
-0.114
-0.036
0.056
0.058
0.017
-0.090
-0.069
0.073
-0.050
-0.157
0.002
-0.042
-0.064
-0.029
-0.014
-0.009
-0.034
-0.030
-0.076
-0.063
-0.006
-0.035
-0.029
0.017
0.186
0.003
0.011
0.009
-0.040
-0.183
-0.036
0.129
0.126
0.014
0.291
0.064
-0.068
-0.224
-0.312
-0.311
-0.090
0.222
0.326
0.017
-0.132
-0.194
-0.071
-0.184
-0.031
0.056
0.048
0.012
-0.083
0.007
0.016
-0.062
-0.108
-0.027
-0.005
0.030
-0.050
-0.132
-0.092
-0.015
0.277
-0.085
-0.185
-0.220
-0.058
0.054
0.097
0.064
0.046
-0.102
-0.080
-0.146
0.216
-0.012
0.013
0.045
-0.100
-0.055
-0.081
-0.153
0.098
-0.004
0.079
-0.037
-0.099
-0.064
0.054
-0.085
-0.022
-0.056
0.006
0.002
0.019
0.051
-0.185
-0.077
0.035
0.001
-0.019
-0.088
-0.032
-0.083
-0.069
-0.094
0.100
-0.033
0.046
-0.020
-0.036
-0.054
-0.022
-0.056
0.015
0.024
-0.008
0.033
-0.008
0.009
-0.033
-0.046
-0.168
-0.082
0.196
0.239
0.002
-0.149
-0.108
0.132
-0.049
0.007
-0.073
-0.080
0.035
0.013
0.050
0.044
0.082
-0.037
-0.132
-0.146
-0.052
0.063
0.001
-0.024
0.016
0.001
-0.092
-0.117
-0.158
-0.047
0.101
-0.001
-0.083
0.051
0.069
0.031
-0.097
-0.115
0.007
-0.037
-0.136
0.378
0.314
0.182
-0.216
-0.381
-0.226
-0.082
0.032
0.057
0.245
0.200
0.046
-0.202
-0.474
-0.187
0.021
0.013
0.090
0.114
-0.161
-0.204
0.042
0.154
0.032
0.025
-0.138
-0.155
0.099
0.068
0.015
-0.010
-0.104
-0.152
-0.012
-0.047
-0.091
0.189
-0.136
-0.026
-0.024
-0.078
-0.078
-0.121
-0.037
0.063
0.072
-0.076
-0.040
-0.030
0.066
-0.023
-0.087
-0.015
-0.065
-0.090
-0.065
-0.071
0.012
-0.022
-0.039
-0.050
-0.028
0.035
0.130
0.022
-0.020
-0.233
-0.093
-0.156
-0.025
0.062
-0.012
-0.101
0.117
-0.052
0.041
0.005
-0.115
-0.089
-0.103
0.037
-0.040
0.068
0.118
0.061
0.097
-0.094
-0.147
-0.084
-0.147
0.007
0.000
0.046
-0.010
-0.117
-0.040
-0.049
0.034
-0.029
-0.079
-0.037
-0.020
0.023
0.079
0.060
-0.065
-0.037
-0.014
-0.015
-0.062
-0.024
0.047
0.014
-0.062
-0.053
-0.040
-0.090
0.028
0.022
0.190
0.036
-0.237
-0.241
-0.260
0.186
0.291
0.129
-0.061
-0.139
0.098
-0.062
0.037
0.058
-0.025
0.022
-0.067
-0.030
-0.049
0.014
0.003
-0.084
0.056
0.070
-0.065
-0.058
-0.015
-0.052
-0.160
-0.082
-0.059
-0.076
0.071
-0.069
-0.382
0.061
0.176
0.152
-0.069
-0.218
0.015
0.072
0.342
0.150
-0.103
-0.185
-0.061
-0.005
-0.076
0.052
0.020
0.064
0.007
-0.127
-0.037
-0.096
-0.049
-0.011
-0.030
-0.059
-0.072
-0.128
-0.019
0.162
0.040
0.056
-0.078
0.065
0.132
-0.178
-0.098
-0.110
-0.049
-0.029
-0.146
-0.036
0.058
0.119
0.083
-0.111
-0.085
0.021
-0.028
0.038
-0.084
-0.028
-0.215
0.038
-0.004
-0.060
0.074
0.050
-0.052
0.008
-0.119
-0.216
-0.068
-0.093
0.109
0.079
0.024
-0.020
-0.001
-0.012
0.186
-0.052
-0.344
-0.138
0.130
0.054
0.050
-0.158
-0.026
-0.059
-0.040
0.076
-0.158
0.028
0.329
0.251
-0.225
-0.163
-0.264
0.116
0.047
-0.090
0.020
0.098
-0.175
0.021
-0.060
-0.070
-0.052
0.021
-0.011
-0.013
-0.162
0.013
0.026
0.022
-0.172
-0.063
0.087
0.140
-0.014
-0.023
-0.047
-0.180
-0.085
0.042
0.095
0.138
-0.057
-0.116
-0.059
0.001
0.027
0.022
-0.085
-0.029
0.012
0.015
-0.060
-0.005
-0.105
-0.044
-0.011
0.199
0.017
-0.111
-0.040
-0.003
-0.008
0.135
0.065
0.045
-0.068
-0.043
0.032
0.051
0.037
-0.111
-0.011
-0.123
-0.239
-0.032
0.223
0.047
-0.029
-0.132
-0.079
-0.016
-0.149
0.013
0.167
0.185
0.067
-0.119
-0.183
-0.042
0.046
0.058
0.004
0.019
-0.010
-0.028
-0.018
-0.063
-0.038
-0.146
-0.090
0.121
-0.111
-0.115
0.040
0.025
0.069
-0.216
0.128
0.144
-0.006
-0.113
0.056
0.060
-0.186
-0.060
0.067
0.054
-0.039
0.009
-0.083
0.004
0.059
-0.051
0.006
-0.082
-0.049
-0.102
0.091
0.270
0.023
-0.125
-0.209
-0.243
-0.061
0.036
-0.042
0.140
0.090
0.209
-0.128
-0.217
-0.017
-0.098
-0.034
-0.013
0.012
0.048
0.192
-0.105
-0.142
0.014
0.008
-0.108
-0.064
-0.022
-0.181
0.053
0.160
-0.029
0.000
-0.030
-0.131
-0.067
0.046
0.012
-0.013
-0.004
-0.083
0.027
0.085
0.040
0.072
-0.101
-0.195
0.004
0.033
0.101
-0.068
-0.024
0.007
-0.072
0.004
0.105
0.049
0.067
-0.098
-0.022
-0.067
0.024
0.022
0.009
-0.053
-0.083
-0.000
0.010
0.021
-0.008
-0.000
-0.024
-0.029
-0.181
-0.042
0.008
-0.049
-0.080
-0.020
0.049
-0.021
-0.066
0.034
-0.047
0.061
0.091
-0.153
-0.090
-0.061
-0.037
0.111
0.144
0.068
-0.068
0.086
0.033
-0.262
-0.235
-0.035
0.066
0.055
-0.046
-0.095
0.027
0.098
-0.213
-0.132
0.022
0.232
0.114
-0.060
-0.179
-0.075
0.165
-0.008
-0.045
-0.077
-0.076
0.058
0.119
-0.046
0.014
-0.125
-0.265
-0.070
-0.103
-0.124
0.158
0.068
-0.054
-0.139
0.049
0.221
0.019
-0.063
-0.147
-0.133
-0.034
0.023
0.013
-0.030
-0.053
-0.120
-0.035
0.035
-0.015
-0.023
-0.039
-0.008
-0.022
-0.255
-0.156
0.132
0.128
0.062
0.196
-0.075
-0.145
-0.038
0.042
-0.090
-0.079
0.123
0.079
-0.052
-0.035
-0.100
0.004
-0.129
-0.165
0.122
0.107
-0.166
-0.191
0.161
0.033
-0.070
0.036
0.021
-0.125
0.092
-0.072
-0.110
0.037
-0.085
-0.130
-0.069
0.158
0.007
-0.011
-0.097
-0.138
-0.288
-0.016
0.036
0.047
0.152
0.053
-0.038
-0.080
-0.048
0.004
-0.019
0.066
-0.059
-0.034
0.163
0.160
-0.058
-0.144
-0.160
-0.141
-0.001
-0.017
0.018
0.085
0.050
-0.101
-0.128
-0.023
-0.129
-0.173
-0.004
0.210
0.150
0.083
0.002
-0.170
-0.175
-0.050
0.079
0.073
0.066
-0.007
-0.038
0.067
-0.036
0.050
0.028
-0.012
-0.092
-0.155
-0.111
-0.145
-0.043
0.047
-0.058
0.036
-0.201
-0.091
-0.019
0.113
0.322
0.154
-0.079
-0.075
-0.150
0.026
0.027
-0.030
0.009
0.106
0.071
-0.023
-0.202
-0.143
0.174
0.176
0.028
-0.183
-0.267
-0.111
-0.079
0.018
-0.021
0.021
0.054
-0.024
0.153
0.042
-0.049
-0.128
-0.116
-0.059
0.047
-0.032
-0.029
-0.023
-0.030
-0.017
-0.090
-0.105
-0.079
0.173
0.079
-0.006
0.225
-0.059
-0.349
-0.183
0.067
0.145
0.085
-0.050
0.020
-0.039
-0.068
-0.101
-0.049
-0.070
-0.069
-0.102
0.269
0.016
-0.306
-0.214
0.042
0.215
0.056
0.046
0.019
0.024
-0.183
-0.326
-0.256
-0.228
0.031
0.249
0.256
-0.045
0.053
-0.085
-0.165
-0.180
-0.018
0.115
0.203
0.114
0.084
-0.096
-0.215
-0.142
-0.132
-0.022
-0.030
0.185
-0.056
0.003
-0.029
0.047
-0.132
-0.347
-0.078
0.198
0.250
0.010
-0.039
-0.082
-0.032
-0.081
-0.069
-0.103
0.058
0.014
-0.204
-0.178
0.027
0.178
0.089
-0.089
-0.149
-0.158
-0.101
0.008
0.031
0.105
0.079
-0.005
-0.013
-0.150
0.001
-0.119
-0.069
0.075
0.007
0.010
0.036
-0.049
-0.095
0.038
-0.017
-0.113
0.057
-0.107
-0.077
0.052
-0.061
-0.112
0.005
0.044
-0.134
-0.031
0.000
-0.304
-0.093
0.151
0.328
0.195
-0.197
-0.168
-0.025
0.107
0.005
-0.037
-0.047
0.097
-0.055
-0.136
-0.054
0.003
-0.104
-0.029
0.078
-0.073
-0.072
-0.023
0.027
-0.086
-0.011
-0.124
-0.130
-0.050
0.027
0.185
0.225
0.127
-0.038
-0.126
-0.254
-0.105
0.111
0.088
0.023
0.015
0.024
0.154
0.028
-0.118
-0.149
-0.164
-0.060
0.023
0.060
0.070
0.172
-0.069
-0.137
-0.061
-0.025
0.010
-0.085
0.052
-0.045
0.037
-0.059
-0.131
-0.183
0.067
0.059
-0.023
-0.065
0.106
0.146
-0.052
-0.097
-0.077
-0.112
-0.079
0.146
0.069
0.010
-0.082
0.044
-0.013
0.016
-0.161
-0.160
0.074
-0.068
-0.080
-0.223
-0.178
0.232
0.276
0.123
-0.002
-0.094
-0.059
-0.012
-0.076
-0.036
-0.015
0.092
-0.048
-0.094
-0.003
0.085
0.013
-0.106
-0.077
-0.123
-0.204
-0.224
0.093
0.052
-0.002
-0.085
-0.026
-0.032
-0.017
0.002
0.081
0.047
0.034
0.008
0.004
-0.032
-0.036
0.032
-0.037
-0.022
-0.021
-0.069
-0.192
-0.102
0.142
0.171
0.095
-0.070
-0.134
-0.001
-0.001
0.031
-0.074
-0.129
0.089
0.013
-0.151
-0.041
0.147
0.065
0.066
-0.203
0.009
-0.080
-0.332
-0.152
-0.199
0.064
0.341
0.182
0.014
-0.008
0.095
-0.126
-0.119
-0.193
-0.143
0.150
0.173
0.060
0.060
-0.002
-0.129
-0.092
0.143
-0.103
0.019
-0.119
-0.071
-0.055
0.025
0.001
-0.014
-0.044
-0.083
-0.045
0.061
-0.031
-0.090
-0.120
0.035
-0.089
-0.068
-0.083
0.088
0.123
-0.009
0.003
-0.117
-0.049
0.085
-0.009
-0.052
-0.076
-0.096
-0.012
-0.065
0.038
0.049
-0.011
-0.125
-0.197
-0.074
0.236
0.331
0.091
-0.267
-0.109
-0.145
-0.083
0.123
-0.101
-0.017
0.135
0.035
-0.026
0.154
0.018
-0.057
-0.067
-0.114
-0.181
-0.127
0.078
0.072
-0.016
0.008
-0.115
0.030
-0.093
-0.131
0.001
0.041
-0.048
-0.002
0.024
-0.071
0.048
0.020
-0.247
-0.099
-0.007
0.020
0.080
0.215
0.104
0.065
-0.011
-0.141
-0.143
0.096
-0.078
0.072
0.038
0.018
-0.041
-0.011
-0.123
-0.209
0.186
0.097
-0.046
-0.030
-0.059
-0.027
-0.083
0.032
-0.055
-0.178
0.020
0.088
-0.015
-0.038
0.101
0.009
-0.046
-0.141
-0.026
0.089
0.031
-0.224
-0.006
-0.029
0.010
0.044
0.087
0.130
-0.103
-0.044
-0.119
-0.121
-0.103
-0.067
0.016
-0.020
0.097
-0.042
-0.125
-0.067
0.132
0.040
-0.200
-0.032
0.166
0.045
0.018
-0.172
-0.132
-0.055
-0.050
0.119
0.010
0.050
0.016
-0.037
-0.019
-0.067
-0.215
-0.230
0.024
-0.206
-0.031
0.151
0.343
0.100
-0.155
-0.062
-0.087
-0.076
-0.112
0.044
-0.048
-0.011
0.117
-0.029
-0.012
-0.117
-0.104
0.004
-0.188
0.021
-0.048
0.119
0.039
-0.077
-0.047
-0.037
0.001
0.081
0.019
-0.120
-0.026
0.072
-0.124
-0.085
-0.076
-0.075
-0.086
-0.058
0.022
0.007
-0.034
-0.084
-0.177
-0.149
0.128
0.200
0.096
-0.038
-0.058
-0.135
-0.041
0.038
0.052
0.043
0.028
-0.005
-0.162
0.002
-0.161
0.065
0.106
-0.250
-0.043
0.169
0.013
-0.039
-0.100
-0.063
0.045
-0.099
0.093
-0.023
-0.015
0.023
-0.016
-0.015
-0.006
-0.036
0.059
0.000
-0.028
-0.076
-0.119
-0.025
0.041
0.027
0.003
-0.081
0.042
0.036
0.026
-0.114
-0.003
-0.065
-0.046
0.064
-0.021
-0.140
0.018
-0.112
0.086
-0.029
-0.155
-0.035
0.076
0.124
0.026
0.067
-0.026
0.038
-0.037
-0.173
-0.163
-0.086
0.132
0.103
0.181
0.071
-0.151
0.002
0.030
-0.052
-0.073
-0.208
0.005
-0.084
0.102
-0.094
0.067
0.259
0.018
0.043
-0.205
-0.345
0.164
-0.046
-0.062
-0.146
0.158
0.224
0.179
-0.035
-0.129
-0.202
-0.209
-0.160
0.143
0.109
0.187
0.086
0.119
0.099
-0.096
-0.238
-0.042
0.179
0.094
-0.010
-0.018
-0.132
0.127
-0.088
-0.171
-0.122
-0.090
-0.095
-0.109
0.055
-0.058
-0.015
0.118
-0.034
-0.000
-0.015
-0.188
-0.215
0.009
0.033
0.312
0.235
0.109
0.139
-0.071
-0.065
-0.073
-0.183
-0.022
0.131
0.149
0.081
-0.020
-0.039
-0.138
-0.109
-0.050
-0.025
-0.105
-0.060
-0.075
0.027
-0.034
0.002
-0.131
-0.094
0.036
0.291
-0.116
-0.148
-0.020
-0.095
-0.119
-0.026
0.010
-0.007
0.074
0.068
-0.185
-0.016
-0.023
-0.049
-0.015
0.078
-0.002
-0.014
0.035
-0.137
0.005
-0.163
0.061
0.176
0.025
-0.059
-0.009
0.069
-0.205
-0.130
-0.133
-0.048
0.067
0.092
0.090
0.044
-0.069
-0.055
-0.045
-0.088
-0.003
-0.063
0.023
-0.016
0.001
-0.114
-0.019
-0.111
-0.031
0.111
-0.227
-0.067
-0.024
-0.087
-0.071
0.035
0.229
0.368
0.049
-0.095
-0.209
-0.215
-0.144
0.116
0.110
0.150
0.009
-0.093
-0.033
-0.020
-0.092
-0.169
-0.158
-0.089
-0.056
-0.042
0.150
0.032
0.061
0.007
-0.053
0.093
0.040
0.001
0.021
-0.017
-0.036
-0.102
-0.047
-0.048
-0.073
-0.077
-0.018
-0.098
0.008
0.016
-0.023
-0.070
-0.166
-0.033
0.162
0.212
-0.041
0.172
-0.179
-0.172
0.102
0.012
-0.085
-0.011
-0.029
0.018
0.030
-0.123
-0.182
0.063
0.039
-0.056
-0.148
0.021
0.078
-0.186
-0.109
-0.102
-0.038
0.073
0.049
-0.158
-0.152
0.127
0.051
-0.024
-0.032
-0.099
-0.037
-0.045
0.005
0.048
-0.103
-0.176
0.138
0.020
-0.044
0.079
0.049
0.178
0.005
-0.131
-0.095
-0.105
-0.018
0.039
-0.063
-0.024
0.023
-0.021
-0.002
-0.141
0.035
-0.260
0.037
0.093
0.103
0.000
-0.119
-0.257
-0.108
0.097
0.066
-0.025
0.113
0.229
0.105
-0.258
-0.055
0.105
-0.134
0.013
-0.026
0.017
-0.014
-0.032
0.111
-0.080
-0.080
-0.238
-0.022
0.290
0.090
-0.280
-0.252
0.007
0.220
0.006
0.085
-0.040
-0.076
-0.105
-0.006
0.054
0.020
0.085
0.021
-0.152
-0.138
-0.070
-0.036
-0.106
-0.011
0.080
0.013
0.043
0.002
0.021
-0.012
-0.063
-0.143
-0.015
0.023
-0.133
-0.009
-0.021
0.134
0.099
-0.054
-0.256
-0.084
-0.109
0.053
0.321
0.084
-0.127
-0.008
-0.130
-0.125
-0.091
-0.025
0.080
0.037
0.064
-0.045
-0.062
-0.096
-0.082
-0.061
-0.036
-0.012
-0.020
-0.140
-0.028
-0.003
-0.181
-0.026
-0.094
0.020
-0.125
-0.010
0.227
0.004
-0.096
-0.015
-0.310
-0.077
0.031
0.128
-0.002
0.044
0.008
0.086
-0.099
0.057
0.074
-0.109
-0.163
-0.208
0.166
0.138
-0.089
0.031
0.041
-0.011
-0.196
-0.120
-0.103
-0.082
-0.045
-0.378
0.074
0.120
0.141
0.061
0.038
-0.125
-0.185
-0.041
0.051
0.167
-0.037
0.017
0.269
0.098
-0.121
-0.057
-0.218
-0.086
0.073
-0.027
-0.019
-0.015
0.014
-0.109
-0.216
-0.128
-0.075
-0.073
-0.107
0.101
0.044
0.061
-0.031
-0.061
0.005
0.003
-0.053
-0.138
0.030
0.059
-0.017
0.150
-0.025
0.087
0.093
-0.126
-0.105
-0.040
-0.072
-0.028
-0.039
-0.108
-0.010
0.195
0.085
0.008
-0.139
-0.155
-0.159
-0.045
0.082
0.053
-0.085
-0.036
0.003
-0.033
-0.037
-0.028
-0.036
-0.067
-0.103
0.070
0.139
0.155
-0.049
-0.079
-0.121
-0.144
0.125
0.036
0.042
0.075
-0.091
-0.028
-0.463
0.036
0.204
-0.012
-0.032
0.069
0.163
-0.035
-0.076
-0.098
-0.151
-0.007
0.027
-0.060
0.044
0.204
0.055
0.004
-0.060
0.411
-1.522
-0.112
1.352
0.558
-1.613
-0.378
1.032
1.476
-0.091
-0.889
-0.984
-0.224
0.204
0.284
0.240
0.067
0.023
-0.089
-0.082
-0.319
-0.397
0.237
0.241
0.020
-0.115
-0.126
0.076
0.174
0.037
-0.011
0.018
0.149
-0.025
-0.136
-0.103
-0.033
-0.092
-0.004
0.023
-0.026
-0.103
-0.065
-0.076
0.042
-0.121
-0.040
0.145
0.008
-0.070
-0.185
0.154
0.150
0.020
-0.101
-0.181
-0.081
0.050
-0.030
0.074
-0.010
0.046
-0.036
0.013
-0.156
-0.197
0.016
0.037
0.088
-0.075
-0.079
-0.035
-0.056
-0.093
-0.182
-0.019
0.140
0.081
0.055
-0.154
-0.208
0.013
-0.039
0.028
-0.015
-0.020
0.074
-0.024
-0.103
0.001
-0.041
0.076
0.025
0.032
-0.072
-0.244
-0.087
0.175
0.051
-0.054
-0.080
-0.060
-0.012
0.102
0.082
-0.155
-0.010
-0.005
-0.058
-0.080
-0.075
0.132
0.110
-0.008
-0.027
-0.036
-0.041
-0.077
-0.110
-0.161
-0.126
0.034
-0.011
0.008
-0.013
-0.055
0.031
-0.117
-0.086
-0.015
-0.068
0.062
0.055
0.010
0.025
-0.003
0.083
-0.052
-0.072
-0.007
-0.058
0.026
0.062
-0.007
-0.149
-0.055
-0.161
0.084
0.218
0.123
0.019
-0.277
-0.109
-0.082
-0.063
0.024
0.070
-0.049
-0.036
0.001
-0.014
-0.139
-0.117
0.095
-0.021
-0.105
-0.096
-0.024
-0.029
-0.078
-0.059
0.046
-0.112
-0.063
0.205
-0.066
-0.166
-0.220
0.111
0.125
0.099
0.031
-0.108
-0.090
-0.089
0.002
-0.012
0.041
0.045
-0.076
0.013
-0.001
-0.133
-0.220
-0.028
0.108
0.043
0.067
0.090
0.054
-0.142
-0.117
-0.015
0.074
0.120
-0.267
-0.093
0.136
0.069
-0.025
-0.058
0.043
0.018
-0.157
-0.029
-0.040
0.009
0.059
0.107
0.026
-0.074
-0.103
-0.172
0.053
0.190
0.083
-0.045
-0.036
-0.091
-0.057
-0.063
0.127
-0.012
-0.084
0.132
-0.028
0.140
-0.026
-0.055
-0.033
-0.155
-0.017
-0.064
-0.090
0.009
0.142
0.178
0.015
-0.175
-0.118
0.028
-0.020
-0.012
0.136
0.028
-0.066
0.025
-0.004
-0.069
-0.006
-0.056
0.017
0.032
-0.030
0.012
0.060
-0.023
-0.084
0.037
-0.042
0.033
-0.193
0.038
0.319
0.139
0.003
-0.189
-0.083
-0.147
-0.215
0.019
-0.015
-0.141
0.150
0.065
0.020
-0.075
-0.094
-0.089
0.036
0.046
-0.100
0.033
-0.140
-0.017
0.059
0.048
-0.049
-0.009
0.037
-0.013
-0.109
-0.066
0.012
0.111
-0.075
-0.120
-0.013
0.142
-0.036
-0.238
-0.193
0.227
0.283
0.205
-0.029
-0.145
-0.193
0.032
-0.006
-0.130
-0.053
-0.298
0.032
0.226
0.183
0.044
-0.147
-0.118
-0.176
-0.115
0.148
-0.085
-0.084
-0.025
0.229
-0.024
-0.184
0.021
0.031
-0.058
0.056
-0.063
0.010
0.163
0.002
0.072
-0.318
0.089
0.255
-0.099
-0.064
-0.195
0.048
0.160
0.005
-0.057
0.014
-0.295
-0.184
-0.159
0.112
0.414
0.092
-0.142
-0.206
-0.235
-0.013
-0.017
0.058
0.093
-0.017
0.081
-0.050
-0.067
-0.157
-0.066
-0.050
-0.011
0.017
-0.081
-0.155
-0.012
0.353
0.306
-0.094
-0.309
-0.177
-0.078
0.012
0.060
0.034
0.072
0.066
0.054
-0.198
-0.135
-0.136
-0.072
-0.190
-0.059
-0.005
0.038
-0.126
-0.035
-0.039
-0.076
0.073
0.125
-0.036
-0.002
0.056
-0.023
-0.148
0.042
0.027
-0.037
0.028
-0.094
-0.003
-0.110
0.067
-0.015
0.029
0.042
-0.038
-0.149
-0.164
-0.008
0.016
-0.022
0.014
-0.014
0.036
-0.056
-0.189
-0.020
0.118
-0.109
-0.054
-0.051
-0.091
0.017
0.036
0.044
-0.155
-0.137
-0.037
0.060
-0.014
0.196
0.122
-0.014
-0.087
-0.186
-0.160
0.037
0.053
0.094
-0.003
-0.081
0.029
0.026
-0.028
-0.060
-0.109
-0.002
-0.008
-0.031
-0.042
0.028
-0.104
0.025
-0.177
-0.177
0.101
-0.084
-0.074
-0.022
-0.037
0.033
0.062
0.246
0.191
-0.127
-0.144
-0.168
-0.185
-0.058
0.168
0.144
0.007
0.150
-0.028
-0.108
-0.077
-0.135
-0.154
0.005
-0.074
-0.201
-0.116
0.082
0.276
-0.026
-0.343
0.153
0.228
0.143
-0.111
-0.195
-0.199
-0.134
0.095
0.052
0.061
0.004
-0.063
-0.025
-0.127
-0.213
-0.145
0.015
-0.006
0.008
-0.100
-0.088
0.015
0.378
0.091
-0.047
-0.232
-0.039
-0.130
0.030
0.080
0.086
-0.026
-0.059
-0.009
-0.007
-0.145
0.006
0.011
0.006
-0.197
-0.307
0.021
0.204
0.052
-0.126
-0.014
-0.022
-0.048
0.080
-0.094
-0.016
-0.013
-0.111
0.153
0.087
0.031
-0.076
0.113
-0.012
-0.169
-0.115
-0.052
-0.059
-0.013
-0.090
0.055
0.005
0.010
-0.005
-0.113
-0.079
-0.013
-0.050
0.085
-0.053
-0.098
0.046
0.269
-0.178
-0.318
-0.201
-0.028
-0.122
0.108
0.114
0.123
-0.035
-0.065
-0.070
-0.142
-0.139
0.026
0.068
0.164
0.137
-0.002
-0.180
-0.141
0.130
0.004
0.033
0.033
-0.086
-0.146
-0.156
-0.160
-0.160
0.286
0.273
0.012
-0.049
-0.279
0.031
0.034
0.087
-0.085
-0.024
-0.027
-0.091
-0.117
0.021
0.028
-0.133
-0.107
0.123
0.191
-0.029
-0.133
-0.118
-0.187
-0.134
0.074
0.111
0.174
-0.044
0.057
-0.202
-0.054
0.121
0.100
0.052
-0.139
-0.070
-0.082
0.013
-0.042
-0.072
-0.061
0.049
0.013
0.168
-0.101
0.044
0.070
-0.062
-0.126
0.053
-0.003
-0.127
-0.021
-0.055
-0.040
0.032
0.062
0.116
-0.097
-0.057
-0.032
-0.091
-0.029
0.143
0.166
0.037
-0.150
-0.048
-0.075
-0.297
-0.030
0.031
0.053
0.029
0.073
-0.041
0.026
-0.049
-0.094
-0.004
-0.011
-0.078
0.010
-0.008
0.040
0.136
-0.047
-0.103
-0.024
-0.242
0.021
0.165
0.014
0.042
0.026
-0.065
-0.056
-0.197
0.092
-0.062
-0.094
0.085
0.096
0.070
-0.133
-0.153
-0.037
0.153
-0.023
-0.124
0.031
-0.060
-0.197
-0.002
0.166
-0.055
-0.224
-0.074
0.183
0.113
0.005
-0.118
0.004
0.085
0.055
-0.187
-0.090
-0.104
-0.066
0.094
0.094
0.029
-0.088
-0.198
-0.091
0.127
0.034
0.061
-0.004
0.036
-0.013
-0.058
0.056
0.003
0.035
0.090
0.032
0.072
-0.080
-0.088
-0.097
-0.058
-0.149
-0.009
0.076
-0.065
-0.071
-0.059
-0.080
-0.041
-0.013
-0.007
0.054
0.047
0.006
0.040
-0.064
-0.064
0.020
-0.020
-0.090
-0.065
0.085
0.009
0.129
-0.004
-0.052
-0.083
-0.102
-0.102
-0.149
-0.417
0.026
0.152
0.301
0.433
-0.057
-0.113
0.032
0.047
0.102
-0.072
-0.231
-0.096
0.197
0.039
0.125
0.029
-0.137
-0.123
-0.127
-0.172
0.007
-0.153
-0.141
-0.050
0.035
-0.036
0.048
-0.045
-0.136
0.059
0.058
-0.075
-0.049
0.029
0.185
-0.046
-0.190
-0.042
0.176
0.044
-0.167
-0.013
0.180
0.091
-0.014
-0.023
-0.133
-0.147
0.058
0.114
0.158
0.086
-0.123
-0.074
0.036
0.004
-0.044
-0.106
0.090
-0.044
-0.094
-0.258
0.100
0.235
0.000
-0.132
-0.183
-0.074
0.137
-0.022
0.043
0.089
0.047
-0.059
-0.022
0.028
-0.020
-0.057
-0.035
0.053
0.023
-0.069
-0.149
-0.048
-0.077
-0.024
0.055
-0.074
0.002
0.036
-0.004
0.054
-0.121
-0.062
0.116
-0.066
0.034
-0.088
-0.165
-0.009
0.167
0.139
0.003
-0.270
-0.177
0.147
0.138
-0.067
0.006
-0.056
-0.108
0.113
-0.032
-0.101
0.210
-0.066
-0.219
0.039
0.096
0.115
-0.003
-0.052
-0.174
-0.044
-0.028
-0.133
-0.189
-0.010
-0.013
-0.191
0.176
-0.127
-0.037
0.052
-0.019
-0.003
-0.008
0.028
-0.020
-0.156
-0.040
-0.032
0.087
-0.060
-0.016
0.023
0.008
-0.025
0.054
-0.055
-0.137
-0.112
-0.075
0.004
0.098
0.066
0.082
-0.021
-0.035
-0.030
-0.077
0.102
-0.064
-0.035
-0.005
-0.029
0.053
0.048
-0.092
-0.045
0.235
0.084
-0.131
-0.333
-0.286
-0.167
0.021
0.119
0.043
0.253
0.297
-0.083
-0.086
-0.247
-0.409
-0.127
-0.021
0.338
0.236
0.088
-0.118
-0.144
0.042
-0.115
0.049
0.065
-0.064
-0.040
-0.060
-0.070
-0.042
-0.068
0.116
0.211
-0.090
-0.237
-0.020
-0.096
0.099
0.091
-0.033
0.011
0.038
-0.073
-0.028
-0.046
0.002
0.053
0.050
-0.095
-0.096
-0.110
-0.173
-0.111
0.069
-0.010
-0.036
-0.092
-0.120
-0.064
-0.047
-0.132
0.202
0.038
-0.006
0.049
0.035
-0.145
-0.062
-0.029
0.004
0.036
-0.017
0.077
-0.087
-0.038
-0.141
0.007
-0.043
-0.049
-0.031
-0.011
-0.035
0.037
0.119
-0.081
-0.065
-0.173
-0.101
0.168
-0.160
-0.099
0.017
0.202
0.206
-0.073
-0.082
-0.146
-0.104
-0.153
-0.068
0.090
0.060
0.078
-0.033
-0.105
-0.092
0.012
-0.202
-0.282
-0.003
0.206
0.214
0.037
-0.009
-0.059
-0.070
0.028
0.008
0.075
-0.069
-0.047
0.113
-0.016
0.050
-0.097
0.072
0.240
0.134
-0.083
-0.354
-0.126
-0.178
-0.047
-0.017
0.086
0.185
0.074
-0.055
-0.226
-0.091
-0.079
-0.065
0.039
-0.011
0.011
0.021
-0.115
0.033
0.102
0.009
-0.024
-0.120
-0.017
-0.052
-0.026
-0.095
0.074
0.155
0.092
0.013
-0.082
-0.145
-0.161
-0.039
-0.032
0.107
0.062
0.131
-0.112
0.004
-0.208
-0.211
0.055
0.064
0.116
0.132
-0.071
0.013
0.023
-0.199
-0.210
-0.021
0.083
0.051
0.014
0.031
-0.008
-0.023
-0.093
-0.100
-0.046
-0.064
-0.126
0.025
0.058
-0.113
-0.192
-0.052
0.088
0.133
0.001
0.050
-0.140
-0.040
0.036
0.047
-0.035
0.024
0.085
-0.012
-0.049
-0.014
-0.026
0.069
-0.048
0.061
-0.285
-0.041
0.207
-0.026
0.070
-0.046
0.084
0.086
-0.101
-0.144
-0.057
-0.025
0.017
0.014
-0.012
0.089
0.177
0.021
-0.001
-0.128
-0.158
-0.060
0.004
0.153
-0.112
-0.191
-0.028
-0.010
0.113
0.116
-0.044
-0.097
-0.080
0.092
0.040
-0.031
-0.103
0.050
0.229
0.183
-0.064
-0.230
-0.094
-0.008
0.098
-0.022
0.102
-0.176
-0.064
-0.217
0.039
0.156
0.049
0.074
-0.072
-0.113
-0.078
-0.041
-0.129
-0.079
0.092
0.186
0.137
-0.060
-0.014
-0.051
-0.085
0.027
-0.033
-0.071
-0.117
-0.191
0.060
0.158
0.093
0.022
-0.111
-0.073
-0.036
-0.019
-0.073
-0.054
0.077
0.044
-0.090
0.068
0.078
0.023
-0.022
-0.121
0.036
-0.046
-0.031
0.059
-0.126
0.067
-0.031
0.017
-0.133
-0.053
-0.022
0.037
0.136
-0.047
-0.035
-0.044
-0.085
0.050
-0.051
0.082
-0.040
0.206
0.043
-0.275
0.083
-0.166
-0.098
0.003
-0.149
-0.041
0.182
0.192
0.016
-0.072
0.015
-0.110
-0.026
-0.032
0.112
0.120
-0.103
-0.009
-0.098
-0.069
0.184
0.096
-0.172
-0.282
0.180
-0.083
0.062
-0.147
-0.078
0.047
-0.049
-0.095
-0.148
0.058
0.192
0.042
-0.093
0.071
0.367
0.093
-0.214
-0.155
-0.067
0.114
0.059
-0.076
-0.108
-0.076
-0.257
-0.091
0.227
0.298
0.158
-0.276
-0.160
-0.110
-0.061
-0.030
0.051
-0.078
-0.011
-0.049
0.082
-0.015
-0.014
-0.007
-0.086
-0.141
-0.131
-0.041
-0.026
0.141
-0.157
0.024
-0.044
-0.068
0.056
-0.014
-0.007
0.021
-0.071
0.023
0.112
0.070
-0.066
-0.138
0.118
0.121
-0.003
-0.270
0.085
-0.023
-0.114
-0.061
0.098
-0.055
0.072
0.008
-0.055
-0.055
-0.091
-0.119
-0.116
-0.057
0.044
-0.055
-0.086
-0.046
0.226
0.121
-0.041
-0.121
-0.100
-0.090
-0.113
-0.098
-0.020
0.070
0.006
0.001
-0.026
-0.042
0.026
0.042
-0.004
0.075
-0.112
0.001
-0.137
-0.035
-0.027
-0.007
-0.040
0.039
0.049
-0.103
-0.040
-0.006
0.031
0.018
-0.125
-0.003
-0.003
-0.049
-0.281
0.112
0.012
-0.008
0.019
-0.183
-0.099
-0.258
0.027
0.007
0.115
0.169
-0.030
0.034
-0.021
-0.310
-0.149
0.034
0.241
0.222
0.176
-0.229
-0.034
-0.005
-0.095
0.062
-0.041
-0.096
0.022
-0.042
-0.208
-0.211
-0.180
0.066
0.038
0.270
0.092
0.016
-0.017
-0.090
-0.072
-0.294
0.040
0.133
0.016
-0.127
0.066
0.053
0.013
-0.101
-0.091
-0.131
0.016
-0.086
-0.115
-0.127
-0.146
0.087
0.052
0.052
-0.029
-0.017
0.109
0.105
0.006
-0.076
-0.071
-0.078
0.044
-0.008
0.087
0.076
0.101
-0.059
-0.017
-0.053
-0.135
-0.148
-0.103
-0.045
-0.047
0.055
-0.043
-0.096
-0.044
-0.028
-0.032
-0.079
0.074
0.024
0.000
0.049
-0.038
-0.086
-0.004
-0.088
-0.005
0.073
0.087
0.011
0.062
-0.103
0.109
0.101
-0.232
-0.197
-0.037
-0.013
0.004
0.009
0.008
-0.074
0.066
-0.049
0.049
-0.100
-0.060
0.055
-0.057
-0.037
-0.213
-0.151
-0.074
-0.017
0.046
0.015
0.176
0.141
-0.082
-0.037
-0.116
-0.096
-0.205
-0.229
0.168
0.343
0.263
0.147
0.050
0.113
-0.091
-0.313
-0.231
-0.055
0.166
0.149
0.096
0.094
-0.090
-0.224
-0.077
-0.033
-0.099
-0.023
-0.181
-0.176
-0.020
0.156
0.129
-0.008
-0.052
-0.270
-0.025
-0.074
0.121
-0.009
0.045
0.153
0.068
0.027
-0.154
-0.119
-0.137
-0.181
0.005
0.038
0.098
0.041
0.031
0.106
-0.116
-0.023
0.013
0.011
-0.040
-0.034
-0.087
0.009
0.009
0.061
-0.059
-0.215
0.082
-0.088
0.113
-0.021
-0.239
-0.062
-0.081
-0.194
0.114
0.372
0.072
-0.028
-0.289
-0.213
0.218
0.112
-0.080
-0.065
-0.031
0.031
-0.036
-0.004
0.004
-0.087
-0.102
-0.086
0.045
0.014
-0.194
0.064
0.046
0.088
0.073
-0.065
0.007
-0.132
-0.237
-0.024
-0.004
0.064
-0.040
0.001
0.108
-0.053
-0.001
0.105
-0.102
-0.143
0.099
0.069
0.141
-0.046
-0.126
-0.008
0.033
-0.150
-0.214
-0.090
0.125
0.167
0.071
-0.040
-0.190
-0.211
-0.016
0.072
0.010
-0.030
-0.004
-0.113
0.155
0.182
-0.078
-0.053
-0.148
-0.045
-0.045
-0.009
0.023
-0.076
-0.026
-0.049
-0.189
-0.094
0.090
0.185
-0.125
0.057
-0.045
-0.124
-0.067
-0.004
-0.028
0.078
-0.129
-0.123
0.067
-0.086
-0.009
0.011
0.113
-0.092
-0.017
-0.135
-0.090
0.082
0.089
-0.148
-0.137
0.070
-0.038
0.047
0.178
-0.061
-0.160
-0.120
0.010
0.182
-0.085
-0.096
-0.043
-0.098
-0.031
0.123
-0.026
-0.055
0.030
-0.151
-0.125
-0.012
0.071
0.034
-0.033
-0.081
-0.111
0.077
-0.064
0.039
0.044
-0.048
-0.179
0.064
0.072
0.021
0.083
-0.048
0.013
-0.096
-0.225
-0.098
-0.001
0.041
0.085
-0.024
0.131
-0.095
0.073
-0.079
-0.028
-0.012
0.007
-0.060
-0.158
0.064
0.041
-0.093
0.098
0.120
0.155
-0.104
-0.131
-0.088
0.083
0.148
0.087
0.030
-0.119
-0.028
0.035
-0.112
-0.247
-0.085
0.056
0.052
-0.012
0.034
-0.157
-0.183
-0.062
-0.008
-0.055
0.028
-0.154
-0.121
-0.007
0.021
0.197
-0.057
-0.108
0.020
-0.013
-0.017
-0.047
-0.047
0.012
-0.014
0.065
0.037
0.019
-0.027
-0.056
-0.048
-0.076
-0.121
0.279
0.042
-0.340
-0.154
0.083
0.099
0.067
0.045
0.014
-0.148
-0.073
0.115
-0.057
0.009
-0.009
-0.022
0.023
-0.116
-0.089
-0.244
0.038
0.005
-0.136
0.127
0.022
-0.053
0.037
-0.061
-0.042
-0.052
0.129
-0.122
0.099
-0.073
-0.055
-0.035
0.034
0.007
-0.134
-0.140
-0.011
0.024
-0.088
0.014
0.260
0.142
-0.016
-0.158
-0.267
-0.058
-0.062
0.184
0.026
-0.009
0.085
0.005
-0.258
-0.085
0.062
0.082
-0.082
-0.126
0.138
0.156
0.088
0.006
-0.075
0.005
-0.095
-0.004
-0.104
0.178
0.182
0.020
0.001
-0.151
-0.018
-0.133
-0.153
-0.045
0.029
0.055
-0.022
-0.221
-0.089
0.015
0.009
-0.232
0.087
0.140
0.281
-0.046
-0.273
-0.292
-0.089
0.083
0.015
0.066
0.054
0.090
0.092
-0.042
-0.121
-0.205
-0.110
0.032
0.085
0.024
-0.166
-0.084
-0.047
-0.054
0.185
-0.005
-0.028
0.009
-0.192
0.060
-0.012
-0.053
0.019
-0.103
-0.069
0.079
0.023
0.088
-0.156
-0.082
-0.068
-0.147
-0.266
-0.104
0.038
0.092
0.107
-0.027
-0.037
0.089
-0.193
-0.061
-0.034
-0.071
0.047
0.011
0.008
-0.098
-0.063
-0.114
0.028
0.092
0.035
-0.039
-0.012
-0.155
-0.177
-0.017
-0.052
0.116
-0.049
-0.209
-0.024
0.073
0.134
0.124
-0.065
-0.163
-0.108
0.035
-0.021
-0.224
-0.186
0.161
0.031
0.171
0.056
-0.090
-0.159
-0.084
-0.043
-0.119
-0.286
0.030
0.161
0.188
0.025
-0.265
-0.204
-0.002
-0.066
0.246
0.171
-0.038
-0.261
-0.114
0.091
0.066
0.046
0.030
-0.059
-0.220
-0.063
0.035
0.031
0.082
-0.139
-0.008
0.124
-0.078
0.002
-0.071
0.007
0.032
0.074
-0.003
-0.166
-0.161
0.014
-0.015
0.049
-0.002
-0.107
-0.078
0.033
0.019
-0.136
-0.084
-0.138
0.034
0.048
-0.018
0.050
0.026
0.044
-0.034
-0.104
-0.052
-0.018
0.055
0.048
-0.210
-0.172
0.026
-0.120
0.033
0.145
0.168
0.121
-0.047
-0.205
-0.025
-0.121
-0.055
0.030
0.106
0.031
-0.007
0.026
-0.098
-0.151
-0.143
0.002
0.134
0.024
-0.143
-0.079
0.206
0.257
-0.014
-0.103
-0.132
-0.272
0.031
0.112
-0.086
0.115
0.059
0.206
-0.055
-0.130
-0.024
-0.184
-0.043
0.042
-0.064
0.072
-0.026
0.038
-0.044
-0.203
-0.129
-0.145
-0.024
0.010
0.072
0.230
-0.191
-0.088
0.239
0.060
-0.111
-0.155
-0.421
-0.028
0.108
0.422
0.368
0.119
-0.048
-0.196
-0.133
-0.164
-0.115
-0.086
0.056
0.108
0.057
0.062
-0.071
-0.233
-0.081
0.094
-0.051
-0.141
0.016
-0.072
-0.165
-0.090
0.010
0.098
-0.064
-0.089
-0.033
0.090
0.032
0.035
-0.087
-0.185
0.081
0.068
-0.119
-0.163
-0.087
0.003
0.038
0.195
0.171
-0.128
-0.168
-0.191
-0.079
0.026
0.104
0.063
0.035
-0.032
-0.089
-0.037
-0.112
-0.065
0.002
-0.057
0.032
0.018
-0.067
-0.076
-0.021
-0.028
-0.055
-0.141
-0.066
0.084
0.105
0.247
0.104
-0.147
-0.147
-0.188
-0.017
0.008
-0.028
0.056
0.077
0.080
-0.002
-0.225
-0.215
-0.083
0.022
-0.034
-0.037
-0.025
0.005
-0.118
-0.004
0.001
0.039
-0.042
-0.092
-0.042
0.130
-0.014
0.026
0.042
-0.071
-0.086
-0.032
0.062
0.101
0.017
-0.016
-0.009
-0.041
0.073
-0.278
-0.088
0.061
0.133
-0.068
-0.166
0.044
0.013
0.062
0.062
-0.002
-0.065
0.004
-0.117
-0.302
-0.161
0.157
0.257
0.144
-0.137
-0.337
-0.272
0.036
-0.007
0.208
0.188
-0.107
-0.135
-0.091
0.003
-0.077
-0.055
0.042
-0.067
-0.062
-0.134
0.288
0.172
-0.184
-0.028
-0.020
0.110
-0.100
-0.056
-0.141
-0.151
0.007
0.033
-0.066
-0.141
-0.149
-0.056
0.036
0.204
-0.176
-0.245
0.121
0.054
0.113
0.284
0.060
-0.205
0.013
-0.104
-0.143
-0.040
0.174
0.142
0.099
-0.111
-0.042
-0.107
-0.051
-0.016
-0.287
-0.298
-0.114
0.271
0.270
0.104
-0.068
-0.253
-0.157
-0.020
0.032
0.034
0.041
0.103
0.015
-0.121
-0.019
-0.054
-0.047
-0.043
-0.162
-0.020
0.032
-0.048
-0.019
0.069
0.070
-0.027
0.005
0.113
-0.057
-0.035
-0.017
-0.096
-0.085
0.177
0.089
-0.128
-0.055
-0.009
0.001
-0.034
-0.004
0.044
-0.184
-0.076
0.040
-0.020
-0.041
0.049
-0.016
0.018
0.030
-0.032
-0.104
-0.040
0.018
-0.034
-0.105
-0.237
-0.027
0.079
-0.027
0.299
0.326
-0.277
-0.412
-0.081
-0.010
0.121
0.089
0.265
-0.134
-0.150
-0.015
0.271
0.170
-0.058
-0.128
-0.080
-0.159
-0.100
-0.072
0.034
0.026
-0.061
-0.128
-0.056
0.046
0.044
-0.082
-0.061
-0.017
-0.208
-0.064
0.004
0.093
-0.048
0.017
0.102
0.017
-0.070
-0.156
0.033
0.034
0.101
0.114
0.092
0.033
-0.195
-0.249
-0.215
-0.004
0.180
0.136
-0.123
-0.082
0.085
-0.019
-0.021
-0.162
-0.057
0.063
-0.032
0.006
0.018
-0.176
-0.006
0.210
0.027
-0.062
-0.155
-0.064
-0.097
0.001
0.116
0.124
-0.059
-0.164
-0.077
0.046
0.003
-0.041
0.079
0.045
-0.064
-0.023
0.199
-0.119
-0.057
-0.153
0.011
0.050
-0.083
-0.182
-0.220
0.057
0.159
0.108
0.011
-0.042
-0.110
-0.163
-0.068
-0.172
0.044
0.307
0.205
-0.009
-0.125
-0.108
-0.048
-0.096
0.005
0.095
0.022
-0.044
-0.081
-0.153
-0.100
-0.048
0.034
0.037
0.120
-0.035
-0.206
-0.117
0.167
0.209
-0.113
-0.115
-0.045
0.017
-0.096
-0.114
0.102
0.177
-0.006
-0.050
0.003
-0.149
-0.049
-0.006
0.081
-0.165
-0.033
-0.130
0.024
0.188
-0.070
-0.117
-0.001
-0.031
-0.091
0.071
-0.096
-0.153
0.076
-0.104
-0.060
-0.081
0.054
0.005
-0.041
-0.036
-0.136
-0.036
0.168
0.097
0.001
-0.130
-0.240
-0.025
0.102
0.162
-0.009
0.122
0.205
0.073
-0.168
-0.201
-0.165
0.016
0.007
0.050
-0.125
-0.000
0.016
-0.108
-0.051
-0.009
-0.026
-0.167
-0.059
-0.245
-0.162
0.040
0.065
0.183
0.126
0.038
-0.145
-0.173
-0.087
0.041
0.041
0.012
0.178
-0.064
-0.080
-0.063
-0.012
-0.042
0.008
0.064
-0.027
-0.292
0.017
0.183
-0.011
-0.127
-0.010
0.063
0.040
-0.015
-0.089
-0.075
-0.042
-0.043
-0.069
-0.035
-0.049
-0.061
0.071
-0.044
0.096
-0.118
0.016
-0.135
0.081
0.045
-0.125
-0.014
0.155
-0.081
-0.030
0.036
0.016
-0.161
-0.057
0.093
-0.122
-0.196
-0.182
0.267
0.266
0.061
-0.289
-0.291
-0.262
0.098
0.092
-0.017
0.122
0.004
-0.006
-0.051
-0.132
-0.031
0.012
0.020
0.061
0.111
-0.127
-0.311
-0.107
-0.057
0.127
0.236
0.085
-0.038
-0.069
-0.199
-0.071
-0.123
0.001
0.095
0.034
-0.033
0.038
0.022
-0.067
-0.062
0.014
0.059
-0.011
-0.031
0.171
0.033
-0.062
-0.081
-0.023
-0.017
-0.099
-0.083
-0.045
-0.136
-0.010
-0.025
0.039
-0.036
-0.110
-0.063
0.080
-0.059
-0.023
0.056
-0.205
-0.072
0.066
-0.035
0.030
0.070
-0.180
-0.197
-0.016
0.062
0.138
0.176
0.001
-0.066
-0.071
-0.105
-0.171
0.030
0.025
0.130
0.099
0.077
0.017
-0.027
-0.158
-0.258
-0.114
-0.083
0.057
0.220
-0.133
-0.102
-0.122
0.008
0.038
0.058
-0.060
-0.076
-0.096
0.092
0.071
0.003
-0.122
-0.088
0.122
-0.085
-0.070
0.076
-0.072
-0.211
-0.127
-0.065
0.078
0.079
0.069
-0.013
-0.015
-0.055
-0.000
-0.130
0.025
0.054
0.057
-0.017
0.018
0.060
0.149
-0.129
-0.244
-0.078
-0.056
0.012
0.031
-0.033
-0.056
0.016
-0.205
-0.213
-0.012
-0.039
0.081
0.088
0.109
-0.090
-0.121
-0.076
-0.067
-0.015
0.008
0.044
0.109
0.045
0.034
-0.120
-0.117
-0.106
0.204
0.180
0.073
-0.160
-0.082
-0.100
-0.135
0.042
0.058
-0.023
-0.072
-0.062
0.047
-0.018
-0.035
-0.072
-0.103
-0.069
0.075
-0.102
0.057
-0.093
0.166
0.034
-0.208
-0.181
0.179
-0.031
-0.122
-0.165
0.018
0.109
-0.002
-0.093
-0.059
0.129
-0.058
-0.103
-0.112
0.148
0.263
-0.036
-0.159
-0.085
-0.082
-0.055
0.067
0.054
-0.000
-0.127
-0.032
0.061
-0.091
-0.062
-0.055
-0.030
-0.050
-0.007
-0.006
0.109
0.127
-0.146
-0.223
-0.002
-0.050
0.018
-0.021
-0.059
0.080
0.036
0.015
-0.127
-0.153
-0.165
-0.001
-0.038
0.012
0.025
0.005
0.074
-0.042
-0.035
0.092
-0.024
0.035
0.051
-0.048
-0.097
0.042
-0.164
-0.112
0.045
-0.019
-0.070
0.296
0.328
-0.057
-0.287
-0.291
-0.025
0.006
0.017
0.083
0.093
-0.153
-0.030
-0.181
-0.054
0.123
-0.071
-0.065
-0.136
-0.207
-0.018
-0.038
-0.088
0.088
0.097
0.157
-0.130
-0.334
-0.007
0.237
0.053
0.103
-0.016
-0.047
0.063
-0.103
0.046
-0.010
-0.142
-0.083
0.082
0.002
0.053
-0.044
-0.037
-0.035
-0.178
-0.242
0.106
0.120
-0.119
-0.100
0.021
0.104
0.079
-0.109
-0.095
-0.006
0.139
0.128
-0.036
-0.070
-0.119
-0.158
0.006
0.122
-0.005
0.044
-0.011
-0.237
-0.139
0.084
0.181
0.043
-0.250
-0.189
-0.077
0.116
0.024
-0.003
0.022
0.076
0.040
-0.023
0.006
-0.249
-0.089
0.034
0.092
-0.092
0.035
-0.006
0.086
-0.062
-0.015
-0.083
-0.002
-0.025
0.001
-0.030
-0.058
0.171
-0.010
0.006
0.005
-0.089
-0.017
-0.131
-0.220
0.136
0.095
-0.014
-0.083
-0.019
-0.227
0.134
0.199
-0.062
-0.194
-0.159
-0.228
0.089
0.177
0.173
0.167
-0.183
-0.146
-0.059
-0.125
-0.191
-0.015
0.111
0.389
0.212
-0.129
-0.212
-0.210
-0.023
-0.072
0.071
-0.042
0.023
-0.063
-0.047
-0.108
-0.235
-0.032
-0.007
-0.020
0.113
0.111
-0.033
-0.122
-0.004
0.040
-0.053
-0.038
0.020
-0.004
-0.048
0.271
-0.094
-0.121
-0.093
0.001
-0.223
-0.006
0.185
-0.041
-0.181
-0.051
-0.075
0.059
-0.170
-0.128
0.073
-0.072
0.125
0.098
0.079
0.060
0.106
-0.084
-0.131
-0.048
-0.087
-0.039
0.028
0.029
0.110
0.044
-0.072
0.004
-0.107
-0.163
-0.056
-0.011
-0.001
-0.063
-0.088
-0.028
0.054
0.029
0.108
-0.078
-0.074
-0.098
-0.137
0.089
0.004
-0.204
-0.078
0.245
0.180
0.012
-0.035
-0.230
-0.151
0.039
-0.126
0.015
0.006
0.130
0.234
0.012
-0.126
-0.196
-0.030
-0.044
0.076
-0.117
-0.008
0.062
0.032
0.042
-0.043
-0.013
-0.109
-0.114
-0.220
-0.160
0.104
0.195
0.103
0.026
-0.087
-0.207
-0.081
-0.069
-0.062
-0.025
0.103
-0.064
0.236
0.068
-0.082
-0.116
-0.123
0.005
0.053
-0.152
-0.266
0.103
0.222
0.006
-0.190
-0.138
0.015
0.025
0.014
-0.005
-0.276
0.185
0.016
-0.171
0.013
-0.020
-0.020
0.111
0.010
-0.155
0.008
0.056
0.058
-0.065
-0.099
-0.017
-0.076
0.099
-0.044
-0.091
-0.309
-0.115
0.093
0.204
0.020
-0.067
0.037
-0.065
0.045
-0.103
-0.045
-0.030
0.022
0.072
-0.015
-0.123
-0.062
0.033
0.095
-0.044
0.027
-0.165
-0.105
0.092
0.046
-0.112
-0.142
-0.052
-0.095
0.014
0.130
0.121
-0.019
-0.172
-0.052
-0.043
-0.115
0.010
-0.008
0.035
-0.271
0.120
0.110
0.006
0.013
-0.061
0.028
-0.100
-0.009
0.014
0.013
0.008
-0.055
-0.105
0.005
0.005
0.018
-0.106
-0.091
-0.022
-0.068
-0.136
-0.132
0.054
0.195
-0.084
-0.186
0.115
0.004
-0.026
0.165
0.074
-0.161
-0.036
-0.085
-0.091
0.133
-0.004
0.014
0.076
0.016
-0.049
0.029
-0.076
-0.149
0.029
-0.042
-0.088
-0.119
0.033
0.049
-0.005
0.041
0.087
-0.227
-0.155
-0.067
0.049
0.032
0.104
-0.044
-0.024
-0.002
-0.016
-0.039
-0.053
-0.185
-0.107
0.053
-0.011
0.118
0.062
-0.083
-0.062
0.120
-0.052
-0.040
0.074
-0.027
0.092
0.045
-0.449
0.190
0.245
0.030
-0.377
-0.149
-0.107
0.108
0.258
-0.039
-0.091
-0.037
0.008
0.056
-0.069
-0.070
0.031
0.018
-0.105
-0.063
0.090
0.011
0.108
-0.257
-0.087
0.064
-0.084
-0.017
0.029
-0.043
0.018
-0.035
-0.097
-0.105
-0.042
0.020
0.183
-0.168
-0.071
0.044
-0.135
-0.161
0.014
0.191
0.042
-0.068
-0.017
-0.037
-0.024
-0.068
-0.077
-0.166
0.052
0.108
0.032
0.024
-0.002
-0.072
-0.113
-0.220
-0.010
-0.064
-0.033
0.221
0.161
-0.090
-0.049
-0.009
-0.112
0.059
0.076
-0.072
-0.006
-0.020
-0.041
-0.041
0.010
-0.081
-0.047
0.036
-0.180
-0.056
-0.070
-0.101
-0.115
0.053
0.365
0.125
-0.003
-0.051
-0.107
0.015
-0.007
0.003
-0.071
0.105
0.059
0.020
-0.059
-0.333
-0.161
0.109
0.182
0.077
-0.009
-0.010
-0.115
-0.174
-0.145
0.001
0.029
0.198
0.148
-0.014
-0.130
-0.096
0.041
-0.131
-0.120
0.011
0.008
0.011
0.116
0.134
0.076
-0.097
-0.201
-0.154
-0.021
0.036
-0.014
0.068
0.017
-0.047
-0.001
0.011
0.008
0.017
-0.100
-0.175
-0.083
0.052
0.015
0.035
-0.126
-0.092
0.066
0.093
0.134
-0.004
-0.061
-0.184
-0.067
0.012
-0.008
0.006
-0.066
0.001
-0.053
-0.006
-0.117
-0.083
0.031
-0.033
-0.082
0.001
0.043
-0.022
-0.164
-0.028
-0.093
-0.104
-0.102
-0.145
0.096
0.179
0.113
0.001
-0.051
-0.044
-0.119
-0.016
0.132
-0.001
0.016
-0.092
-0.035
0.093
-0.138
-0.115
-0.100
0.128
0.125
-0.101
-0.075
-0.165
-0.158
-0.094
0.099
0.158
-0.004
-0.047
0.081
0.029
-0.209
-0.271
-0.013
0.081
0.036
-0.029
-0.130
0.064
0.059
0.077
-0.049
-0.137
0.011
-0.033
-0.008
0.098
-0.067
0.013
0.049
-0.134
0.130
-0.207
0.001
0.244
0.039
-0.132
-0.176
0.082
0.020
0.053
-0.012
-0.130
-0.062
-0.038
0.137
0.090
-0.120
-0.160
-0.046
0.012
0.016
0.060
-0.015
0.014
-0.251
-0.188
0.076
-0.040
0.087
-0.043
-0.071
0.020
0.051
0.077
0.037
-0.019
0.039
-0.085
-0.183
-0.036
0.113
0.156
0.032
-0.157
-0.215
-0.249
0.126
0.053
0.080
0.025
-0.026
-0.119
-0.084
0.021
-0.113
-0.079
0.002
0.008
0.031
0.042
0.068
0.051
-0.128
-0.000
-0.086
0.044
0.004
-0.036
-0.052
0.033
0.108
-0.125
0.123
0.075
-0.026
-0.081
-0.004
-0.139
-0.101
0.021
0.000
0.044
-0.065
-0.110
-0.177
-0.032
0.165
0.107
-0.194
-0.227
-0.018
-0.031
0.011
0.035
0.021
-0.026
0.003
-0.004
0.119
0.082
-0.079
-0.122
-0.058
-0.090
-0.078
0.066
-0.026
0.039
0.012
0.048
-0.011
-0.046
0.031
0.113
0.017
-0.117
-0.253
-0.054
0.120
0.267
0.159
-0.018
-0.327
-0.411
-0.019
0.197
0.127
0.086
0.092
-0.173
-0.285
-0.173
-0.013
-0.046
0.171
0.002
0.265
0.266
0.052
0.032
-0.144
-0.324
-0.146
-0.047
0.094
0.092
0.133
0.169
-0.012
-0.181
-0.335
0.091
-0.004
-0.239
-0.261
-0.017
0.288
0.055
-0.136
-0.048
0.003
-0.190
-0.056
-0.067
-0.070
0.244
0.309
0.125
-0.054
-0.119
-0.199
-0.047
-0.052
0.052
0.228
-0.109
0.035
0.016
-0.001
-0.096
-0.058
-0.036
0.081
-0.131
-0.036
0.059
-0.110
-0.037
-0.100
0.159
0.008
-0.049
-0.011
-0.008
-0.031
-0.030
-0.155
-0.001
-0.020
-0.158
-0.018
-0.184
-0.050
0.051
0.035
0.005
-0.087
-0.051
0.029
0.122
0.106
-0.118
-0.031
-0.011
-0.098
-0.034
-0.026
-0.034
-0.020
0.078
-0.006
-0.120
-0.132
0.032
-0.034
-0.113
-0.195
-0.060
-0.004
0.114
-0.048
0.021
0.140
0.174
0.047
-0.081
-0.135
-0.136
0.071
-0.055
-0.078
-0.105
-0.156
0.056
0.065
-0.088
-0.062
-0.069
-0.016
0.016
-0.004
-0.013
-0.081
-0.015
-0.019
-0.012
0.069
0.008
0.166
0.049
0.068
0.047
-0.085
-0.047
-0.083
-0.131
-0.055
0.117
0.039
-0.037
-0.021
0.002
-0.020
0.012
-0.026
-0.039
-0.098
-0.082
-0.008
-0.108
0.043
0.162
-0.106
-0.128
0.009
0.090
0.177
0.044
-0.044
-0.087
-0.074
-0.006
0.065
-0.009
0.003
-0.177
0.003
0.074
-0.097
-0.033
0.000
-0.101
-0.084
-0.043
0.023
0.015
-0.085
0.081
-0.017
-0.027
-0.065
0.010
0.132
0.130
-0.008
-0.029
-0.138
-0.067
-0.340
-0.283
0.120
0.296
0.290
0.130
-0.040
-0.283
-0.178
-0.122
0.034
0.063
-0.038
-0.041
-0.061
-0.062
0.088
0.088
0.140
-0.051
-0.176
-0.150
-0.190
-0.074
0.060
0.039
0.047
-0.100
0.074
0.085
-0.090
-0.117
-0.021
-0.113
0.002
-0.000
-0.175
0.011
0.095
0.072
-0.038
0.119
-0.059
-0.022
-0.179
-0.119
-0.131
0.171
0.103
0.066
-0.014
-0.005
-0.027
0.007
-0.051
-0.022
-0.053
-0.050
0.005
-0.052
-0.100
0.062
0.003
0.086
0.001
-0.044
-0.068
-0.098
0.042
0.041
-0.051
-0.071
-0.172
-0.057
0.036
0.095
0.066
0.076
0.163
-0.098
-0.004
0.024
0.037
-0.045
-0.059
-0.040
0.018
-0.042
0.007
0.062
-0.028
-0.097
-0.133
-0.036
-0.055
-0.006
-0.035
0.020
-0.040
0.023
-0.074
-0.033
-0.030
0.026
-0.027
-0.077
0.214
-0.009
0.018
-0.210
-0.283
0.051
0.222
0.012
0.033
-0.105
0.022
-0.043
-0.023
-0.060
0.031
-0.067
-0.146
-0.102
0.076
-0.041
-0.096
0.020
-0.067
-0.058
0.259
0.116
-0.053
-0.097
0.047
-0.047
-0.199
0.034
0.121
0.130
0.016
-0.073
-0.026
0.038
-0.311
-0.267
0.139
0.020
-0.012
0.029
0.150
-0.186
-0.513
0.044
0.196
0.119
0.100
0.225
0.054
0.057
-0.355
0.031
-0.020
-0.014
0.159
-0.088
-0.257
0.034
0.119
0.169
-0.040
0.078
-0.108
-0.302
-0.268
-0.194
0.132
0.266
0.116
0.138
-0.209
-0.118
-0.031
-0.088
-0.007
0.022
0.038
0.106
-0.132
-0.064
-0.098
-0.057
-0.019
0.169
0.045
-0.165
-0.048
-0.026
-0.218
-0.071
0.059
0.197
0.103
0.073
-0.048
-0.092
-0.035
-0.098
0.081
0.031
0.017
-0.049
0.073
-0.032
-0.069
0.019
0.034
-0.102
-0.131
-0.015
-0.069
-0.045
-0.056
-0.109
-0.026
0.052
0.016
0.101
-0.103
0.148
0.060
-0.139
-0.141
-0.026
0.155
0.056
-0.081
-0.144
-0.137
0.077
-0.142
-0.027
-0.018
0.087
-0.051
0.013
-0.098
-0.175
-0.040
0.172
0.108
-0.050
0.027
0.052
0.056
0.071
0.023
-0.062
-0.062
-0.091
0.065
0.048
0.028
0.052
0.002
-0.188
-0.215
0.118
-0.007
-0.115
-0.076
0.298
0.126
-0.091
-0.123
-0.052
0.035
0.003
0.016
-0.003
-0.113
-0.085
-0.094
-0.176
-0.084
0.130
0.029
0.108
0.038
-0.170
-0.050
-0.310
0.048
-0.233
0.039
0.059
0.253
0.096
0.037
0.032
-0.090
-0.183
-0.006
-0.233
-0.100
0.150
0.222
0.260
0.159
0.157
-0.195
-0.445
-0.191
0.177
0.166
-0.059
-0.067
-0.126
-0.176
-0.103
-0.002
-0.108
-0.033
-0.028
-0.117
-0.027
0.111
-0.167
-0.146
-0.073
-0.049
0.216
0.220
-0.031
-0.150
0.064
-0.208
-0.088
0.113
0.086
0.036
-0.015
-0.053
-0.049
-0.005
-0.063
-0.061
-0.051
-0.040
-0.011
0.009
0.009
0.084
0.011
-0.105
-0.118
-0.115
-0.011
0.127
0.004
0.143
0.055
-0.044
0.018
-0.093
-0.075
-0.053
-0.033
-0.015
0.158
0.131
-0.132
-0.149
-0.040
0.007
0.017
0.005
-0.056
-0.105
0.048
0.028
-0.070
-0.096
0.066
0.195
-0.003
-0.021
-0.049
-0.111
0.018
0.156
-0.024
-0.012
-0.050
0.044
0.099
-0.013
0.016
-0.042
-0.049
-0.157
-0.125
0.102
0.104
0.052
-0.067
-0.070
0.170
0.208
-0.064
-0.100
-0.028
0.057
0.030
-0.139
-0.069
0.089
-0.058
-0.111
0.083
-0.178
0.093
-0.036
-0.096
-0.058
0.008
0.091
-0.245
0.029
0.176
0.020
0.098
0.015
-0.027
-0.077
-0.069
0.034
0.092
-0.102
-0.164
0.242
0.072
-0.024
-0.084
-0.003
-0.087
-0.053
-0.119
-0.062
0.137
0.123
0.075
-0.149
-0.086
-0.042
-0.098
-0.109
-0.041
0.128
0.129
0.019
-0.067
-0.178
0.036
-0.082
-0.045
-0.076
-0.030
-0.059
0.026
-0.177
0.069
0.095
-0.018
-0.058
0.018
-0.003
-0.033
0.069
-0.002
0.006
0.015
-0.062
0.019
-0.111
-0.084
0.082
-0.024
-0.113
-0.145
0.051
0.143
-0.162
-0.265
0.103
0.096
-0.090
-0.026
0.086
-0.086
0.082
-0.164
-0.111
-0.019
-0.043
0.157
0.035
-0.023
0.004
-0.118
-0.127
-0.063
-0.187
0.029
0.005
0.101
0.026
-0.135
0.028
0.039
-0.281
0.030
0.058
0.011
0.005
0.086
-0.068
-0.182
-0.052
-0.059
-0.035
-0.043
0.069
0.018
-0.001
-0.089
-0.194
0.011
-0.014
-0.090
-0.206
-0.005
0.290
0.305
0.008
-0.223
-0.150
-0.067
0.006
-0.099
-0.041
0.049
-0.069
0.039
0.094
-0.136
-0.243
-0.259
0.097
0.018
0.011
0.094
-0.223
-0.150
0.002
-0.086
-0.198
0.078
0.075
0.227
0.115
0.009
-0.143
-0.159
0.029
-0.055
-0.045
-0.065
0.055
-0.017
-0.037
-0.046
0.109
-0.029
-0.190
-0.250
0.040
0.235
0.159
-0.081
-0.047
-0.104
-0.094
-0.059
0.070
0.171
0.205
-0.099
-0.098
-0.218
-0.067
-0.093
0.020
0.022
-0.137
0.004
-0.054
-0.071
0.025
0.080
-0.144
-0.053
0.044
0.111
0.075
0.009
-0.040
0.009
-0.173
-0.067
-0.072
0.007
-0.020
0.097
-0.064
-0.140
0.089
-0.013
-0.022
0.060
-0.078
0.031
-0.023
-0.071
-0.009
-0.078
-0.013
-0.009
0.047
-0.020
0.066
-0.149
-0.001
0.030
0.052
-0.167
0.011
-0.120
-0.138
0.075
0.164
-0.017
-0.047
-0.014
-0.041
-0.166
-0.153
-0.060
0.097
0.252
0.139
0.009
-0.140
-0.187
-0.056
-0.034
-0.069
0.081
-0.056
0.044
-0.089
-0.062
-0.148
-0.186
-0.231
0.109
0.215
0.085
-0.106
-0.022
-0.071
-0.031
-0.040
0.010
0.108
0.126
0.049
-0.148
-0.142
0.058
0.019
0.155
-0.177
-0.019
0.013
-0.180
-0.018
-0.056
-0.090
-0.179
0.092
-0.070
-0.025
0.011
0.010
-0.032
-0.113
-0.084
0.099
-0.008
-0.063
0.210
-0.097
-0.180
-0.075
-0.025
-0.010
0.060
0.031
0.002
0.052
-0.000
0.023
0.044
-0.083
-0.249
-0.022
0.043
0.050
0.042
0.104
-0.128
-0.067
0.117
-0.053
-0.228
0.013
0.053
-0.070
-0.190
-0.194
0.146
0.151
0.048
0.117
-0.336
-0.212
-0.128
0.034
-0.096
0.101
0.193
0.167
0.101
-0.005
-0.240
-0.136
-0.016
-0.028
-0.179
-0.001
0.115
0.051
0.015
0.021
0.059
0.054
0.127
-0.090
-0.149
-0.164
-0.076
0.037
-0.080
0.083
0.082
0.043
-0.071
-0.055
-0.064
-0.136
-0.103
0.138
0.065
-0.001
-0.035
-0.130
-0.177
-0.229
-0.130
0.126
0.221
-0.025
-0.006
-0.170
-0.072
-0.120
0.087
0.252
0.235
0.070
-0.168
-0.346
-0.165
0.075
0.241
0.116
0.060
-0.016
-0.148
-0.172
-0.085
-0.098
-0.230
0.121
0.005
-0.152
0.068
0.167
-0.131
-0.119
-0.124
-0.003
0.021
0.111
-0.044
0.004
-0.023
-0.028
-0.031
-0.093
0.028
0.032
-0.104
-0.008
0.008
-0.068
-0.048
-0.085
0.032
0.135
0.121
0.014
-0.103
-0.258
-0.216
0.005
-0.052
0.034
-0.121
0.006
-0.003
0.048
0.005
-0.027
-0.340
-0.054
-0.013
0.150
0.181
0.033
0.150
0.120
-0.168
-0.210
0.106
0.011
-0.003
0.051
0.071
0.047
-0.051
-0.099
-0.112
-0.049
-0.033
0.006
-0.113
0.035
-0.031
-0.172
-0.226
-0.173
0.244
0.358
0.137
-0.102
-0.159
-0.241
-0.083
0.158
0.056
-0.142
0.164
-0.117
-0.003
0.008
-0.358
-0.180
0.060
0.124
0.080
0.111
0.025
-0.159
0.032
-0.147
0.072
0.084
-0.034
0.004
0.079
-0.082
-0.025
-0.038
-0.001
-0.010
0.073
-0.122
-0.206
-0.143
0.104
0.131
0.034
-0.003
0.001
-0.095
-0.150
-0.054
0.035
0.120
-0.075
-0.232
-0.164
0.062
0.297
0.182
-0.056
-0.207
-0.290
-0.061
0.145
0.160
-0.019
-0.024
-0.086
-0.019
-0.064
-0.067
-0.171
0.047
-0.014
-0.060
0.000
-0.147
0.046
0.041
-0.030
-0.132
-0.075
0.102
0.179
0.024
0.006
-0.206
-0.094
0.082
-0.021
0.009
0.141
0.079
-0.113
-0.050
-0.090
-0.093
0.091
0.175
0.051
0.066
-0.025
-0.122
0.011
-0.109
-0.130
0.038
0.087
0.025
0.002
-0.088
-0.010
-0.009
-0.087
-0.050
-0.016
-0.073
-0.079
0.001
-0.053
0.095
-0.057
-0.093
-0.041
0.023
0.049
0.032
0.035
-0.017
-0.145
0.001
-0.062
-0.069
-0.048
0.054
0.032
-0.120
0.036
0.034
0.000
-0.126
-0.024
0.181
0.018
-0.013
-0.193
0.028
-0.023
-0.036
0.118
-0.045
0.016
-0.098
-0.082
-0.149
-0.051
-0.032
-0.125
-0.049
0.068
-0.222
0.050
0.164
-0.078
-0.111
0.064
0.013
0.174
0.201
-0.021
-0.382
-0.079
-0.061
0.072
0.086
0.028
-0.151
0.061
0.029
-0.032
-0.056
-0.111
-0.087
-0.036
-0.060
0.031
0.044
0.070
-0.008
-0.086
-0.035
-0.071
-0.166
-0.000
-0.088
-0.449
-0.166
0.291
0.261
0.164
0.042
-0.032
-0.138
-0.120
-0.052
0.004
0.091
0.038
-0.008
0.291
0.021
-0.126
-0.133
-0.116
-0.062
-0.111
-0.040
-0.109
-0.180
-0.110
0.016
0.173
0.009
0.070
0.074
-0.118
-0.251
-0.043
0.065
0.078
0.013
-0.108
-0.003
-0.021
-0.141
0.028
0.084
-0.093
-0.078
-0.115
-0.078
-0.021
0.168
0.124
-0.019
-0.190
-0.200
-0.122
-0.030
-0.012
0.088
-0.016
0.036
-0.049
-0.043
-0.144
0.099
-0.133
-0.023
0.062
-0.130
0.038
0.061
-0.030
-0.107
-0.004
-0.007
-0.030
0.080
0.027
-0.129
-0.013
-0.235
-0.226
0.146
0.062
-0.246
-0.009
0.052
0.072
-0.111
-0.072
-0.007
0.111
0.022
-0.072
-0.101
0.025
0.100
-0.098
-0.079
-0.036
-0.090
-0.009
0.234
0.046
-0.108
-0.081
0.053
-0.035
-0.099
-0.044
-0.103
0.099
0.143
0.002
-0.104
-0.109
0.021
-0.075
-0.059
-0.175
0.014
0.139
0.085
-0.046
-0.094
0.058
-0.054
-0.017
-0.087
-0.107
0.037
0.100
0.047
0.148
-0.026
-0.154
-0.122
0.092
-0.051
0.036
0.075
-0.016
-0.108
-0.100
-0.015
-0.011
-0.064
-0.009
-0.090
-0.023
-0.057
-0.018
0.035
0.075
-0.095
-0.026
-0.056
0.089
-0.030
-0.015
-0.099
0.075
0.021
-0.030
-0.079
-0.108
0.023
0.132
-0.033
-0.089
-0.019
-0.095
-0.025
-0.005
-0.026
0.112
0.124
-0.157
-0.132
-0.054
0.069
0.043
-0.534
0.264
0.175
0.021
0.016
-0.131
0.055
-0.085
-0.166
-0.198
-0.107
0.194
0.342
0.269
-0.030
-0.361
-0.299
-0.035
0.008
0.015
0.081
-0.030
-0.083
-0.026
-0.175
-0.082
-0.039
-0.034
-0.082
-0.059
0.017
0.045
0.114
0.037
-0.057
0.007
-0.040
-0.053
0.026
0.113
-0.040
-0.064
-0.191
-0.122
0.046
0.082
-0.027
-0.129
0.014
-0.033
-0.022
-0.028
-0.260
-0.053
-0.034
0.008
0.003
0.066
-0.048
-0.054
0.047
0.012
-0.123
-0.175
0.065
0.031
0.001
-0.055
-0.009
-0.034
0.035
0.102
0.090
-0.144
-0.342
-0.244
-0.044
0.345
0.121
-0.021
-0.192
-0.194
0.001
-0.085
-0.038
0.020
0.059
-0.012
-0.020
-0.116
-0.084
-0.182
0.152
0.077
-0.058
0.000
-0.028
-0.108
-0.139
-0.033
0.007
0.087
-0.047
0.003
0.268
-0.261
-0.258
0.110
0.116
0.223
0.032
-0.371
-0.043
0.018
0.045
0.022
0.069
0.132
-0.130
-0.093
-0.019
0.078
0.067
0.033
-0.175
-0.266
-0.132
0.062
0.131
0.047
-0.135
-0.027
-0.188
-0.020
-0.007
0.003
0.117
-0.086
0.005
0.029
-0.109
0.174
-0.033
-0.133
0.162
0.014
-0.130
-0.120
0.138
0.128
-0.256
0.114
0.186
-0.155
-0.062
-0.116
-0.011
0.072
-0.002
-0.115
0.027
0.080
0.055
0.005
-0.173
-0.079
-0.128
-0.032
-0.275
0.026
0.283
0.100
-0.074
-0.168
-0.018
-0.037
0.151
-0.078
0.059
0.075
-0.169
-0.027
-0.098
0.015
0.021
0.006
-0.092
-0.043
-0.046
-0.049
-0.038
-0.055
-0.005
0.127
0.098
-0.102
-0.111
-0.152
0.123
0.079
0.096
-0.001
0.009
0.047
-0.178
-0.178
-0.017
0.108
-0.002
-0.061
-0.136
0.122
-0.057
0.016
0.028
-0.125
0.032
0.207
-0.093
-0.215
-0.130
0.230
0.082
0.125
-0.094
-0.103
0.015
-0.095
-0.040
-0.187
0.028
0.123
0.026
0.135
0.064
-0.085
-0.073
0.001
-0.081
0.023
-0.074
-0.109
0.070
0.112
0.015
-0.020
0.029
0.044
-0.021
-0.211
-0.040
-0.030
-0.072
-0.001
-0.026
-0.007
0.062
0.008
0.008
0.024
-0.006
0.058
-0.069
-0.073
-0.060
0.010
0.004
0.124
0.065
0.001
-0.076
-0.062
-0.076
-0.031
-0.068
-0.039
-0.000
0.012
-0.012
-0.090
-0.074
-0.001
-0.099
-0.020
0.093
0.020
-0.074
-0.086
0.016
-0.002
0.026
-0.082
-0.159
0.077
-0.020
-0.006
0.120
-0.043
-0.065
0.006
-0.154
-0.171
0.021
0.016
0.001
0.011
0.153
0.257
-0.098
-0.124
-0.034
-0.057
0.076
0.010
-0.084
-0.127
0.059
0.044
-0.042
-0.054
-0.056
-0.026
-0.019
-0.091
-0.009
-0.097
-0.050
0.006
0.115
-0.061
0.125
-0.034
-0.072
-0.173
0.149
0.050
0.110
0.147
-0.076
-0.060
0.063
0.056
-0.199
0.042
0.032
-0.084
-0.060
-0.003
0.217
0.086
-0.028
-0.154
-0.339
-0.074
-0.038
0.333
0.050
-0.229
-0.064
-0.054
-0.039
-0.107
-0.020
-0.295
0.108
0.315
0.075
0.009
-0.182
-0.176
-0.074
0.016
0.072
-0.005
0.039
-0.003
0.042
-0.020
-0.129
0.163
-0.097
-0.086
-0.128
0.044
0.133
0.085
0.039
0.124
-0.142
-0.098
-0.176
-0.035
-0.086
0.003
-0.043
-0.045
0.075
-0.067
-0.047
0.049
-0.037
-0.004
-0.127
-0.226
-0.143
-0.100
0.002
-0.115
0.017
0.109
-0.056
-0.030
0.060
-0.073
-0.141
-0.098
-0.132
0.126
0.096
0.057
-0.050
0.030
0.063
0.003
0.016
0.044
-0.046
-0.051
-0.064
0.061
0.014
-0.031
0.003
-0.088
-0.030
-0.185
-0.121
-0.037
0.128
-0.133
0.038
-0.023
0.002
-0.012
-0.075
-0.117
-0.008
0.063
-0.091
-0.048
-0.025
0.058
-0.083
0.119
-0.005
-0.109
-0.021
-0.134
-0.068
0.078
0.051
0.035
-0.034
-0.063
-0.002
0.147
-0.047
-0.006
-0.216
-0.175
0.153
0.060
0.009
-0.047
-0.102
0.009
-0.001
0.023
-0.038
0.083
0.088
0.085
-0.137
-0.085
-0.076
-0.067
0.182
0.047
-0.004
-0.155
-0.088
0.002
0.030
-0.191
-0.137
-0.014
-0.154
-0.081
0.014
-0.149
0.067
0.154
-0.015
0.030
-0.008
-0.100
-0.046
-0.077
0.090
0.095
0.073
-0.102
-0.131
0.083
0.228
0.092
-0.058
-0.217
-0.124
-0.125
-0.092
0.008
0.027
0.034
-0.034
0.096
0.037
-0.038
-0.124
-0.065
-0.084
-0.028
0.102
0.017
0.000
-0.237
-0.030
0.034
0.163
-0.057
-0.080
-0.055
-0.106
0.055
-0.132
-0.071
-0.080
0.096
0.064
-0.285
0.031
0.115
0.113
0.006
-0.040
-0.103
-0.046
0.000
-0.109
-0.043
0.049
0.050
-0.038
-0.028
-0.189
-0.274
0.097
-0.102
-0.060
-0.035
0.215
0.254
-0.006
-0.269
-0.211
-0.287
0.049
0.053
0.131
0.120
-0.045
-0.060
-0.012
-0.052
-0.091
0.000
-0.057
-0.133
-0.054
-0.029
-0.019
0.052
-0.026
-0.021
-0.088
-0.091
-0.004
-0.030
-0.181
-0.140
0.290
0.239
0.078
-0.190
-0.396
0.120
0.165
0.101
-0.088
-0.161
-0.054
-0.249
-0.044
0.078
0.017
0.060
-0.042
-0.109
-0.064
0.011
-0.160
-0.088
0.008
0.152
-0.060
-0.097
-0.075
-0.151
-0.002
0.059
0.056
0.026
-0.035
-0.121
0.040
-0.239
0.018
0.142
0.142
0.071
-0.036
-0.016
-0.023
-0.066
-0.107
0.008
-0.015
0.044
0.095
-0.034
-0.173
-0.137
0.015
-0.136
-0.079
0.075
0.140
-0.025
0.075
-0.168
-0.088
0.059
0.069
-0.028
-0.075
-0.098
-0.114
0.079
-0.033
0.106
0.049
-0.060
0.026
-0.160
-0.087
0.080
-0.055
-0.037
0.036
0.001
-0.022
-0.127
-0.063
-0.020
-0.032
-0.040
0.102
0.064
0.042
-0.127
-0.033
0.131
-0.103
-0.007
-0.062
-0.064
-0.042
-0.014
0.036
0.049
-0.030
0.104
0.028
-0.005
-0.092
-0.021
-0.069
-0.042
-0.021
-0.044
-0.119
-0.190
0.043
0.054
-0.129
-0.031
0.114
0.151
-0.057
-0.294
0.009
-0.020
0.112
0.010
-0.027
-0.024
0.050
-0.000
-0.071
-0.169
0.114
-0.126
-0.244
-0.033
0.078
0.072
0.120
0.045
-0.080
-0.038
-0.148
-0.020
0.066
0.055
-0.045
0.122
0.155
-0.065
0.052
-0.133
-0.102
-0.059
-0.026
-0.003
-0.023
-0.044
0.038
-0.065
-0.107
0.047
0.015
-0.061
-0.093
-0.022
0.019
-0.082
-0.122
0.059
0.061
0.145
-0.101
-0.141
-0.064
0.100
0.032
0.060
-0.079
-0.020
-0.261
-0.195
0.072
0.065
0.069
0.026
0.129
0.092
0.016
-0.144
-0.018
-0.161
-0.202
0.048
0.020
-0.082
0.251
0.340
0.104
-0.010
-0.142
-0.333
-0.124
-0.107
0.110
0.121
-0.005
-0.036
-0.065
-0.068
-0.005
-0.023
0.070
-0.029
-0.108
-0.104
-0.050
-0.187
-0.087
0.089
0.110
0.210
0.008
-0.012
-0.104
-0.077
0.013
-0.040
-0.063
-0.042
0.133
-0.021
-0.018
-0.059
0.020
-0.119
0.044
0.009
-0.064
-0.138
0.018
0.023
-0.062
-0.108
0.167
0.211
0.116
0.012
-0.280
-0.251
-0.101
0.004
0.133
0.164
-0.036
0.057
-0.101
-0.010
-0.086
-0.025
-0.180
-0.099
-0.040
0.116
0.097
0.138
0.005
-0.052
-0.053
-0.044
-0.103
-0.122
-0.081
-0.131
0.095
-0.060
-0.089
-0.187
0.055
0.090
0.003
0.074
0.023
-0.072
0.040
-0.066
-0.385
-0.082
0.267
0.176
0.238
-0.050
-0.034
-0.006
-0.171
-0.059
-0.234
-0.070
-0.069
0.092
0.164
-0.080
-0.007
0.012
-0.189
-0.157
0.013
-0.026
0.064
0.074
-0.140
-0.150
-0.128
-0.054
0.291
0.146
-0.070
-0.202
-0.055
0.121
0.137
0.011
-0.159
-0.210
0.020
0.066
0.059
-0.110
-0.138
-0.061
-0.091
-0.117
0.132
-0.011
-0.168
0.055
-0.126
-0.173
0.130
0.059
0.134
-0.032
-0.075
0.015
0.184
0.035
0.010
-0.080
-0.000
-0.048
-0.086
-0.035
-0.026
0.004
0.051
-0.177
-0.318
-0.169
0.251
0.336
0.173
-0.112
-0.265
-0.152
-0.182
0.056
0.099
0.088
0.017
0.159
-0.004
-0.182
-0.129
-0.164
-0.083
0.039
0.048
0.008
0.070
0.005
-0.015
-0.025
0.062
0.005
-0.160
-0.186
0.049
-0.182
0.220
0.159
-0.079
-0.217
-0.141
-0.051
0.018
0.001
-0.026
0.055
0.106
-0.124
-0.170
-0.008
0.141
0.106
0.031
-0.093
0.039
-0.087
-0.109
-0.207
-0.071
0.001
0.012
0.105
0.056
-0.016
-0.090
-0.074
-0.049
-0.044
-0.068
-0.087
0.064
0.015
0.138
-0.145
-0.054
0.136
-0.024
-0.065
-0.158
-0.070
0.017
-0.035
-0.164
0.066
0.249
0.056
-0.006
-0.174
-0.110
-0.176
-0.008
0.076
0.073
0.046
-0.023
-0.056
-0.094
-0.123
0.059
-0.043
-0.032
-0.005
0.087
-0.061
-0.031
0.153
0.047
-0.133
-0.187
-0.162
0.053
-0.165
0.108
0.369
0.078
-0.066
-0.202
-0.246
-0.014
0.097
0.017
-0.012
0.064
-0.023
-0.045
-0.092
-0.008
0.147
0.159
-0.056
-0.059
-0.096
-0.097
-0.186
-0.029
0.069
0.020
0.088
-0.125
-0.050
-0.065
0.014
-0.131
-0.046
-0.049
0.057
-0.066
0.108
0.007
-0.096
-0.125
-0.019
0.067
0.060
0.059
-0.083
-0.088
-0.112
-0.112
0.004
0.275
0.088
-0.019
-0.104
-0.068
-0.088
-0.013
-0.077
-0.109
0.032
0.012
0.123
-0.032
-0.152
-0.221
0.062
0.164
-0.041
0.015
-0.057
-0.201
-0.103
0.039
0.102
0.129
-0.094
0.013
0.003
-0.054
-0.100
-0.121
0.033
-0.028
-0.015
-0.171
-0.032
0.001
-0.059
-0.054
0.063
0.061
-0.013
-0.013
-0.097
-0.064
0.026
-0.091
-0.079
-0.138
0.061
0.063
0.144
0.001
-0.248
-0.020
0.230
0.208
-0.044
-0.180
-0.164
-0.073
0.081
0.045
0.079
-0.055
0.003
0.051
0.026
0.030
-0.175
-0.141
-0.098
-0.281
-0.031
0.064
0.012
0.123
0.050
-0.046
-0.177
-0.001
-0.039
-0.050
-0.027
0.125
0.200
0.018
-0.143
-0.036
0.021
0.046
0.073
-0.010
-0.056
-0.014
-0.062
0.008
-0.001
-0.127
0.012
0.112
-0.001
0.023
-0.100
-0.148
-0.129
0.000
-0.060
-0.167
0.093
0.081
0.112
0.089
-0.073
-0.024
-0.035
-0.016
-0.163
-0.194
-0.025
0.044
0.174
0.139
-0.057
-0.342
-0.125
0.169
0.104
-0.002
0.030
0.106
0.063
-0.018
-0.168
-0.139
-0.004
0.032
0.108
0.051
0.068
0.147
-0.152
-0.165
-0.092
-0.016
-0.175
-0.209
-0.024
-0.065
-0.134
0.133
0.049
0.068
-0.065
0.062
-0.054
-0.225
0.060
-0.124
0.123
0.141
-0.008
0.076
0.030
-0.116
-0.087
-0.151
0.016
0.074
-0.056
0.008
-0.027
-0.277
-0.015
0.124
0.046
0.020
-0.144
-0.127
-0.001
-0.085
-0.078
0.112
0.245
0.136
-0.157
-0.190
-0.169
-0.075
-0.099
0.082
0.070
0.030
-0.003
0.080
-0.130
-0.151
0.001
-0.006
-0.084
-0.044
-0.080
0.125
-0.137
0.056
0.158
0.050
0.074
-0.055
-0.291
-0.270
0.233
0.250
0.188
-0.071
-0.217
-0.129
0.025
-0.008
0.035
-0.089
-0.100
-0.085
-0.141
0.053
0.083
0.013
-0.024
0.083
0.111
-0.135
-0.045
-0.013
-0.151
0.020
0.038
-0.125
0.073
0.067
0.020
0.098
0.037
-0.219
-0.163
0.024
-0.024
-0.062
0.033
0.088
-0.001
-0.001
-0.068
0.130
0.130
0.025
-0.096
-0.078
-0.056
0.086
0.093
0.012
-0.069
-0.135
-0.127
0.052
-0.127
-0.057
0.142
-0.002
-0.085
0.128
-0.255
-0.173
0.078
0.071
0.193
0.077
0.032
-0.057
-0.102
-0.114
0.072
-0.060
0.010
0.022
0.047
0.081
-0.026
-0.067
-0.060
-0.090
-0.190
-0.117
-0.142
0.137
0.047
-0.099
0.090
0.044
0.073
0.182
-0.002
-0.012
-0.181
-0.038
0.037
0.041
0.156
0.121
-0.086
-0.194
0.036
-0.034
-0.184
-0.313
-0.019
0.138
0.049
-0.108
-0.151
-0.175
0.214
0.128
0.049
-0.249
-0.033
-0.027
0.015
0.038
0.083
-0.054
0.031
-0.021
-0.159
-0.082
-0.093
0.041
0.116
-0.088
0.063
0.159
0.007
-0.207
-0.012
0.143
-0.064
-0.116
-0.093
-0.022
0.060
-0.001
0.127
0.003
-0.014
-0.104
-0.060
-0.073
-0.001
-0.032
-0.079
0.031
-0.070
-0.007
-0.079
0.032
-0.017
-0.122
0.018
0.049
-0.085
-0.012
-0.076
0.008
0.108
0.007
0.039
-0.081
-0.059
-0.027
0.067
-0.055
-0.238
-0.133
0.146
-0.007
-0.129
0.020
0.073
0.002
-0.032
-0.026
-0.061
0.064
-0.091
-0.058
0.109
0.114
-0.008
-0.046
-0.075
-0.092
-0.169
-0.108
0.020
0.210
0.101
0.051
-0.010
-0.135
-0.069
-0.062
-0.258
0.042
0.161
-0.002
0.026
-0.029
-0.028
-0.028
-0.057
-0.163
-0.014
-0.028
-0.068
0.091
-0.034
0.007
0.052
-0.141
-0.294
0.108
0.292
0.212
0.086
-0.176
-0.212
-0.202
-0.074
0.155
0.035
0.026
-0.022
-0.036
0.058
-0.139
-0.130
0.046
-0.047
-0.021
0.055
-0.113
-0.025
0.013
-0.015
-0.004
0.006
0.021
-0.090
-0.218
0.136
0.052
0.084
-0.053
-0.041
-0.204
0.124
0.270
0.000
-0.110
-0.048
-0.046
-0.157
0.029
-0.041
-0.093
0.012
0.062
0.039
-0.106
-0.177
0.002
-0.092
0.090
0.130
0.069
-0.133
-0.099
0.075
0.056
0.020
-0.141
0.125
0.093
-0.025
-0.096
0.207
0.142
0.042
-0.142
-0.188
-0.086
-0.118
0.014
0.000
-0.043
0.064
0.038
-0.028
-0.068
-0.103
-0.110
-0.072
-0.051
-0.049
0.018
0.094
0.095
-0.097
-0.008
-0.076
0.054
-0.050
0.056
0.049
-0.072
-0.153
-0.022
-0.110
-0.057
0.024
0.006
0.298
0.037
-0.183
-0.191
-0.014
0.070
-0.054
0.003
0.210
0.062
-0.102
-0.089
-0.072
0.120
-0.081
-0.010
-0.149
-0.002
0.087
0.039
-0.113
-0.173
-0.070
-0.011
0.072
0.058
-0.023
0.016
0.013
-0.185
0.062
0.122
0.022
0.024
-0.071
-0.065
-0.016
-0.274
-0.223
-0.083
0.118
0.176
0.117
-0.099
-0.120
-0.036
-0.048
-0.078
0.061
-0.053
0.107
0.007
-0.053
-0.062
0.017
-0.078
-0.049
-0.129
-0.004
0.030
0.022
-0.055
-0.069
0.030
0.095
-0.029
-0.140
-0.016
-0.042
0.061
0.063
-0.240
-0.298
0.105
0.219
0.075
-0.112
0.193
0.205
-0.049
-0.201
-0.292
-0.058
0.178
0.146
0.042
-0.041
-0.032
0.077
-0.122
-0.016
0.011
-0.151
-0.133
-0.158
-0.058
0.061
0.163
-0.154
-0.109
0.096
0.024
0.003
0.044
-0.032
-0.139
-0.125
-0.087
0.002
0.163
0.016
0.064
-0.037
-0.127
-0.096
0.224
0.123
0.070
0.085
-0.102
-0.119
0.026
-0.004
0.076
0.102
-0.021
0.046
-0.328
-0.068
0.055
-0.032
-0.192
-0.198
0.090
0.088
0.054
-0.114
-0.018
-0.143
0.031
0.081
0.059
-0.049
0.067
0.030
0.079
-0.084
-0.126
-0.090
-0.111
0.083
-0.166
0.277
0.099
-0.162
-0.126
-0.127
-0.057
0.030
-0.044
-0.169
-0.098
0.080
0.041
0.212
0.048
-0.031
-0.090
-0.037
-0.010
0.009
-0.092
-0.123
-0.012
0.106
0.137
-0.027
-0.089
-0.078
-0.037
0.136
-0.002
-0.101
-0.040
-0.044
0.121
-0.080
-0.035
-0.143
-0.147
-0.100
-0.107
0.015
0.021
-0.091
0.061
-0.163
-0.088
-0.165
-0.125
-0.043
0.135
0.300
0.144
-0.187
-0.218
-0.086
0.050
0.102
0.036
0.108
0.039
-0.129
-0.078
-0.178
0.038
0.078
-0.146
-0.146
-0.011
-0.048
0.051
0.164
0.097
0.072
-0.033
-0.304
-0.080
-0.030
0.032
0.211
0.127
0.074
-0.064
-0.065
-0.065
-0.047
0.034
-0.058
-0.103
-0.059
-0.017
-0.023
-0.019
0.004
-0.056
-0.121
-0.234
0.053
0.029
0.029
-0.025
-0.181
-0.002
0.105
-0.024
-0.051
0.135
0.123
0.012
-0.127
-0.016
-0.077
-0.025
0.010
0.018
0.034
0.017
-0.003
-0.096
-0.003
-0.097
-0.141
0.073
-0.069
-0.102
0.053
-0.006
-0.107
-0.178
0.015
0.172
0.135
0.034
-0.064
-0.164
-0.100
0.047
0.063
-0.025
-0.017
0.006
0.112
0.004
0.067
-0.010
-0.050
-0.162
-0.189
-0.108
-0.101
-0.017
0.019
-0.026
0.104
-0.136
-0.143
-0.024
0.048
0.145
0.015
-0.167
-0.107
-0.032
0.208
0.100
-0.209
0.040
-0.050
-0.333
-0.097
0.296
0.423
0.167
-0.384
-0.501
-0.468
0.038
0.177
0.215
-0.084
0.258
0.315
-0.066
-0.247
-0.168
-0.092
-0.005
0.099
0.080
-0.030
-0.051
-0.076
0.070
0.098
-0.088
0.034
-0.120
-0.130
-0.160
-0.037
0.059
-0.020
-0.057
0.059
0.131
0.076
-0.008
-0.008
-0.132
-0.134
-0.033
0.002
0.094
-0.030
-0.002
-0.093
-0.054
-0.153
-0.073
-0.010
0.095
0.044
-0.066
0.040
-0.098
0.078
0.005
0.128
-0.037
-0.145
0.063
0.025
0.065
0.165
-0.029
0.062
0.058
-0.162
-0.320
-0.089
-0.105
0.105
-0.046
-0.051
-0.038
0.062
-0.018
0.033
-0.046
-0.193
-0.280
0.165
0.194
0.079
0.045
-0.007
-0.099
-0.123
-0.001
-0.033
0.033
-0.002
0.012
-0.003
0.085
-0.115
-0.065
-0.081
-0.213
0.106
0.091
-0.019
-0.161
-0.013
0.046
0.087
0.089
-0.011
-0.023
-0.149
-0.158
-0.020
0.069
0.063
-0.027
-0.059
-0.009
-0.187
0.048
0.031
0.019
0.017
-0.222
-0.097
0.075
0.195
-0.034
0.002
-0.220
-0.080
-0.053
-0.013
0.033
-0.207
0.013
0.339
0.100
-0.020
0.045
-0.247
-0.133
-0.182
-0.000
0.129
0.214
-0.030
-0.074
0.029
-0.117
-0.087
-0.084
0.122
-0.065
-0.103
-0.259
-0.000
0.065
0.102
0.172
0.055
0.049
-0.122
-0.145
-0.186
-0.234
-0.216
0.293
0.127
0.108
-0.044
-0.111
-0.003
0.075
-0.123
-0.058
-0.146
0.070
-0.045
-0.094
0.079
-0.008
0.074
0.056
0.038
0.024
-0.031
-0.125
0.014
-0.055
-0.056
0.060
0.033
-0.044
0.000
-0.029
0.003
-0.046
-0.106
-0.125
-0.126
0.079
0.128
-0.017
-0.098
0.059
0.142
-0.067
-0.321
-0.072
0.112
-0.085
-0.093
0.082
0.099
-0.016
-0.010
0.034
-0.153
-0.121
-0.024
-0.058
0.132
-0.097
0.106
0.028
-0.013
0.005
-0.076
-0.045
0.020
0.103
0.104
-0.074
-0.175
-0.209
-0.057
0.147
0.001
0.022
0.032
0.011
-0.134
0.091
-0.044
-0.035
0.002
-0.018
0.013
-0.066
-0.027
-0.118
0.015
-0.017
0.067
0.035
0.003
0.010
-0.008
0.004
-0.107
-0.119
-0.119
-0.040
0.102
0.008
-0.006
-0.082
0.108
0.212
-0.082
-0.057
-0.149
-0.203
-0.044
0.055
0.074
0.176
0.053
-0.051
-0.118
-0.085
0.039
0.108
0.014
-0.026
-0.098
-0.079
0.078
-0.064
0.054
0.103
-0.013
-0.142
-0.001
0.001
0.014
-0.054
-0.010
0.005
0.059
-0.046
-0.065
-0.160
-0.070
0.090
-0.073
0.001
0.196
0.150
0.202
-0.103
-0.127
-0.106
-0.131
-0.066
-0.053
-0.063
0.039
0.221
0.102
-0.081
-0.113
-0.138
-0.027
-0.201
-0.078
-0.025
-0.029
-0.054
0.043
-0.002
0.139
-0.001
0.068
-0.004
-0.058
-0.060
0.003
-0.115
0.021
-0.023
-0.069
-0.028
-0.071
-0.058
-0.063
-0.082
-0.008
0.173
-0.011
-0.003
0.051
0.046
0.023
-0.058
-0.033
0.058
0.087
-0.076
-0.004
-0.138
-0.082
-0.058
0.025
-0.020
-0.252
-0.249
-0.144
0.356
0.194
-0.050
0.074
-0.075
-0.244
-0.162
-0.103
0.200
0.258
0.142
-0.070
0.008
-0.119
-0.071
0.025
0.030
-0.048
-0.046
-0.008
-0.065
-0.198
0.070
-0.005
0.118
-0.031
0.139
-0.068
-0.103
0.036
-0.037
-0.057
-0.010
0.004
0.089
0.038
0.068
-0.079
-0.008
-0.078
-0.137
0.318
0.305
0.060
-0.196
-0.359
0.095
0.081
0.090
0.000
0.123
0.118
-0.001
-0.057
-0.153
0.046
-0.057
-0.084
-0.094
0.051
0.185
-0.018
0.039
-0.178
-0.192
-0.064
-0.057
0.057
0.067
0.062
0.069
0.107
-0.036
-0.019
-0.057
-0.126
-0.006
0.058
-0.046
0.051
-0.059
-0.029
-0.056
0.042
-0.025
-0.053
-0.134
0.145
0.014
-0.072
-0.049
0.030
-0.081
0.042
0.123
0.104
-0.083
-0.030
-0.015
-0.201
-0.049
-0.045
-0.010
0.155
0.115
0.040
-0.056
-0.018
-0.062
-0.131
-0.104
-0.073
0.075
0.008
0.015
-0.041
0.006
-0.013
-0.073
-0.134
0.002
-0.029
-0.007
-0.179
-0.042
0.053
-0.079
0.020
0.211
0.159
-0.071
0.017
0.026
-0.056
-0.012
-0.067
0.070
0.118
0.052
-0.072
-0.041
-0.119
-0.045
0.040
-0.046
-0.030
-0.056
-0.079
-0.152
-0.085
0.061
-0.120
0.035
-0.064
-0.135
-0.073
-0.188
0.103
-0.025
0.019
0.160
-0.020
0.073
-0.066
0.083
0.099
-0.035
-0.049
0.028
0.084
0.042
0.128
-0.006
-0.152
-0.132
-0.016
-0.070
-0.012
0.015
0.057
-0.159
-0.349
-0.157
0.293
0.334
-0.075
-0.168
-0.183
-0.089
-0.028
0.058
0.014
0.111
0.019
-0.025
-0.040
-0.120
-0.077
-0.131
-0.178
-0.044
0.105
-0.042
-0.012
-0.080
-0.053
0.116
0.009
-0.009
-0.018
-0.119
0.071
0.070
-0.106
-0.083
0.018
0.095
-0.241
-0.081
0.022
-0.036
0.039
-0.008
-0.243
0.089
0.192
-0.029
-0.067
0.032
0.064
0.078
0.043
-0.067
-0.095
-0.063
-0.008
0.044
0.052
0.026
0.097
-0.013
-0.115
-0.201
-0.192
-0.006
-0.002
-0.052
-0.040
0.009
