0.075
0.082
-0.087
0.055
-0.008
0.053
0.002
0.012
-0.043
0.096
-0.035
0.010
-0.082
-0.039
-0.104
0.135
0.012
0.076
0.026
0.006
-0.019
-0.016
-0.005
0.042
0.148
0.009
-0.000
-0.035
0.004
0.015
0.019
0.157
0.028
-0.125
-0.018
0.077
0.048
-0.073
0.071
0.012
0.253
-0.072
-0.086
-0.071
0.109
0.057
0.019
0.036
0.081
0.038
-0.021
0.069
-0.031
0.014
0.014
0.045
0.028
-0.013
0.028
-0.033
0.047
0.192
0.021
0.003
-0.035
0.006
0.062
0.054
-0.037
0.037
-0.108
0.082
0.188
-0.024
0.070
0.037
0.021
-0.071
0.022
-0.003
0.068
-0.007
0.012
0.064
0.049
-0.060
0.026
0.075
0.039
0.071
0.059
-0.040
0.077
0.006
0.040
0.064
-0.071
0.086
0.085
-0.029
0.042
-0.067
-0.005
-0.012
0.037
0.119
0.046
0.017
-0.042
-0.053
0.008
0.034
-0.004
0.081
0.013
0.091
-0.045
-0.023
-0.064
0.021
0.121
0.033
-0.050
-0.007
-0.006
0.051
0.086
0.011
-0.094
0.145
0.085
-0.141
0.032
0.076
0.177
-0.157
0.019
-0.040
0.048
0.032
-0.017
0.079
-0.033
0.060
0.063
-0.009
-0.022
0.092
0.112
-0.085
-0.049
-0.034
0.062
-0.001
0.054
0.016
-0.029
0.031
0.011
0.018
0.076
-0.032
-0.033
0.075
-0.008
0.042
0.126
-0.103
0.073
0.008
0.024
0.028
0.030
0.007
-0.099
0.136
0.105
0.141
0.028
-0.035
-0.011
-0.041
0.002
0.074
-0.035
-0.039
-0.055
-0.010
0.051
0.008
0.055
0.092
-0.101
-0.008
0.083
-0.043
0.106
0.044
0.012
0.006
0.138
-0.057
-0.020
0.131
0.009
-0.044
0.036
0.006
-0.064
0.136
0.044
0.001
0.035
-0.058
0.056
-0.031
-0.023
0.147
-0.088
0.056
-0.043
0.013
0.036
0.121
0.027
-0.013
0.056
-0.008
0.005
0.047
0.118
0.038
-0.022
0.025
0.099
0.062
-0.063
0.082
0.028
-0.100
0.047
-0.011
0.140
0.064
-0.053
0.008
-0.105
-0.081
0.086
0.118
0.104
0.049
-0.083
-0.096
0.125
0.066
0.174
-0.020
-0.151
-0.007
0.063
0.072
0.174
0.106
-0.116
-0.009
-0.060
0.066
-0.132
0.008
0.130
0.034
0.024
-0.073
0.096
0.077
0.109
0.086
-0.073
-0.042
0.069
-0.027
0.086
0.062
0.094
0.041
-0.036
0.081
0.037
-0.051
-0.060
0.030
0.049
0.078
0.028
0.055
-0.021
-0.049
0.088
0.010
0.020
-0.074
0.097
0.095
-0.001
0.032
0.095
0.040
-0.028
-0.057
0.025
0.074
0.002
0.015
0.025
0.086
0.087
-0.012
-0.066
-0.041
-0.211
0.161
0.099
0.115
-0.030
-0.038
-0.035
-0.041
-0.002
-0.011
0.097
0.168
0.062
-0.001
0.035
-0.021
-0.003
0.002
0.203
0.086
-0.011
-0.074
0.015
0.186
0.012
0.087
-0.050
0.018
0.065
0.006
0.098
0.071
0.004
-0.039
0.052
0.047
-0.002
0.018
0.030
-0.012
0.135
0.073
-0.068
-0.072
0.019
0.057
0.034
0.083
0.145
0.016
-0.100
-0.093
-0.090
0.050
-0.008
0.032
0.128
0.035
0.027
0.107
0.004
0.027
0.059
0.125
-0.029
-0.151
0.056
0.060
0.027
0.003
0.127
0.089
-0.077
0.097
0.104
0.043
-0.109
0.027
0.030
0.036
0.077
0.029
-0.010
0.069
-0.058
0.168
-0.133
-0.097
0.038
0.173
0.036
0.052
-0.078
-0.034
-0.019
0.096
0.122
0.064
-0.125
-0.105
0.004
0.006
0.050
0.101
0.120
0.012
-0.011
0.063
0.060
0.022
-0.028
-0.022
0.005
0.101
-0.039
0.017
0.083
0.098
-0.060
0.083
-0.056
0.071
-0.029
-0.079
0.001
0.002
0.049
0.175
0.033
0.011
-0.002
-0.064
0.105
-0.031
-0.039
0.193
-0.047
0.070
-0.155
0.016
0.109
0.059
0.020
0.063
0.086
0.046
0.068
-0.010
-0.048
0.002
-0.004
-0.016
0.061
0.026
0.100
0.054
0.060
-0.014
-0.099
-0.053
0.129
0.063
-0.060
0.115
0.001
0.047
0.033
0.076
-0.128
0.012
-0.019
0.042
0.039
0.002
-0.003
-0.057
0.039
0.029
0.020
-0.025
0.105
0.032
-0.112
0.162
0.045
-0.099
-0.084
0.077
0.013
0.018
0.078
0.065
0.007
0.097
-0.072
-0.043
0.127
-0.011
-0.027
-0.044
0.119
0.102
-0.050
-0.090
0.031
-0.016
-0.018
0.015
0.107
0.074
-0.055
0.011
-0.000
-0.095
-0.064
0.121
0.106
0.080
-0.072
0.105
0.004
-0.086
0.066
0.018
-0.063
0.000
0.082
0.158
-0.032
-0.062
0.077
0.039
0.017
-0.026
0.022
-0.042
-0.008
0.012
0.045
0.081
0.015
0.050
-0.004
-0.014
0.063
0.058
0.005
-0.037
0.081
0.037
0.008
0.073
0.027
0.070
-0.050
0.011
-0.035
0.071
0.138
-0.022
-0.127
-0.047
0.072
0.065
0.112
0.001
0.023
0.042
-0.082
-0.042
0.154
-0.041
-0.078
-0.041
0.048
0.097
0.015
0.023
0.080
0.042
-0.027
0.010
0.055
0.032
-0.011
0.027
-0.053
-0.027
0.091
-0.020
0.125
0.027
-0.029
0.074
0.050
-0.057
-0.030
0.186
-0.100
0.017
-0.021
0.047
0.029
0.063
0.015
0.012
0.144
0.057
0.030
0.003
-0.023
-0.088
0.089
-0.009
-0.002
-0.033
-0.023
0.020
0.021
0.014
0.081
0.017
0.100
-0.068
-0.049
0.117
0.151
0.042
0.044
0.058
0.074
-0.118
-0.077
0.119
0.103
0.029
0.043
0.002
0.003
0.052
0.056
0.041
0.056
0.039
-0.049
-0.009
-0.099
0.138
0.044
0.086
0.064
-0.062
0.082
0.087
0.028
-0.117
0.104
0.064
0.045
0.024
-0.057
0.003
0.045
0.144
-0.011
-0.027
0.058
0.086
-0.073
0.030
0.046
-0.019
0.007
0.105
0.125
-0.007
-0.039
0.079
0.128
0.028
-0.100
-0.064
0.103
0.056
-0.083
0.086
-0.011
0.109
-0.054
-0.085
-0.018
0.046
0.187
0.022
0.030
-0.017
0.118
0.031
-0.108
0.118
0.046
-0.001
-0.066
-0.019
0.085
0.055
-0.045
0.074
-0.043
0.124
-0.064
-0.035
0.074
0.116
-0.029
-0.130
0.097
0.077
0.049
0.152
-0.017
-0.058
0.132
0.038
-0.059
0.034
0.002
-0.046
0.152
0.115
0.043
-0.082
0.038
-0.114
0.039
0.106
-0.178
0.009
0.148
-0.090
0.073
-0.008
-0.027
0.098
0.015
0.119
0.029
-0.063
0.049
0.062
-0.007
-0.005
-0.000
0.060
0.020
0.040
0.018
0.045
0.183
-0.001
-0.013
-0.067
0.124
0.043
-0.047
-0.025
-0.110
0.080
0.056
0.135
-0.035
0.077
0.028
0.039
-0.029
0.011
-0.008
-0.040
-0.037
0.077
-0.010
0.070
0.026
-0.027
-0.005
0.034
-0.007
-0.069
0.018
-0.074
0.120
-0.036
0.109
0.021
-0.113
0.133
0.022
-0.102
-0.080
0.042
-0.020
0.090
0.033
0.057
-0.055
0.099
0.087
-0.000
-0.011
0.064
-0.045
0.087
0.021
0.043
-0.041
-0.110
0.007
-0.016
0.173
0.039
-0.023
-0.022
0.057
-0.044
-0.076
0.100
-0.017
0.050
0.022
0.067
0.111
-0.030
0.061
-0.008
-0.005
0.025
0.028
0.006
0.056
-0.066
0.007
0.018
0.032
-0.060
0.062
-0.051
0.028
-0.011
0.024
-0.014
0.169
-0.073
-0.104
0.006
0.112
0.080
0.022
0.017
-0.001
-0.000
0.129
-0.080
0.032
0.043
0.122
-0.045
0.024
0.017
-0.045
0.059
0.105
0.071
0.053
-0.022
-0.049
0.063
0.002
0.058
-0.024
0.120
0.014
0.117
-0.048
0.006
0.102
0.010
0.161
0.110
-0.046
-0.018
0.015
-0.103
0.094
-0.014
0.062
0.067
-0.033
-0.115
0.087
-0.033
-0.037
0.175
0.001
0.000
-0.013
0.047
-0.008
0.075
0.039
0.090
-0.016
0.154
-0.110
0.008
0.057
0.013
0.071
0.023
-0.004
0.082
-0.047
0.103
-0.009
0.081
0.054
0.054
-0.016
0.036
0.020
0.003
0.141
0.065
0.028
-0.058
0.060
-0.169
-0.042
0.088
0.080
0.148
0.064
-0.025
0.014
0.029
0.011
0.054
0.035
0.043
-0.037
0.028
0.071
-0.054
-0.112
0.138
0.067
-0.044
-0.033
-0.012
0.035
0.034
0.043
0.005
0.022
0.028
-0.092
0.036
0.055
-0.028
-0.089
0.081
-0.048
0.111
0.090
-0.006
-0.008
0.136
-0.019
-0.065
0.018
0.147
-0.025
-0.047
-0.066
0.071
0.037
0.076
0.033
-0.012
-0.014
0.106
-0.010
0.020
0.069
-0.105
0.009
-0.116
0.076
0.038
0.147
-0.056
-0.015
0.079
0.032
-0.074
0.033
0.099
-0.048
-0.015
-0.056
-0.006
0.042
0.007
-0.021
0.056
0.038
-0.061
0.209
0.049
-0.161
0.058
0.087
0.139
-0.053
0.053
-0.009
0.029
0.097
-0.071
0.045
0.061
0.114
0.009
-0.081
-0.017
0.135
0.023
-0.054
-0.076
-0.032
0.116
0.072
0.023
-0.046
0.102
0.095
-0.076
-0.012
-0.020
-0.007
-0.005
0.144
0.184
-0.045
0.066
0.025
-0.128
0.049
0.049
-0.020
0.048
0.079
-0.034
-0.020
0.190
0.038
-0.011
-0.010
0.131
0.025
0.083
0.027
-0.107
0.085
0.082
-0.073
0.069
0.130
-0.004
-0.126
0.061
0.090
0.035
-0.050
0.044
-0.028
0.034
-0.011
0.087
0.063
-0.152
0.106
0.022
0.005
-0.040
-0.049
-0.022
0.080
0.078
-0.053
-0.085
0.058
0.118
-0.029
0.008
0.077
-0.055
0.062
0.059
0.038
-0.072
-0.073
0.128
0.002
0.088
-0.068
0.027
0.109
-0.051
0.199
-0.059
0.113
-0.026
0.155
-0.052
-0.007
-0.031
0.071
0.042
-0.067
0.153
0.028
0.005
-0.011
-0.041
0.037
0.091
-0.037
-0.127
0.114
0.105
-0.013
-0.079
-0.047
0.038
0.103
-0.041
-0.037
0.107
-0.029
0.091
0.068
0.058
0.010
-0.035
0.044
0.025
0.071
-0.032
-0.007
0.088
0.030
0.057
0.042
-0.052
-0.099
0.173
0.080
0.044
-0.031
-0.076
-0.047
0.083
0.029
0.012
0.002
0.063
0.070
0.018
-0.016
0.123
-0.043
0.075
0.022
0.054
-0.009
0.079
-0.043
-0.028
0.059
0.069
-0.037
0.050
0.120
0.046
-0.081
-0.075
0.134
0.193
0.023
0.023
0.008
0.058
-0.161
0.042
0.024
-0.043
-0.010
0.062
-0.130
-0.005
-0.004
-0.118
-0.002
0.080
0.067
-0.017
-0.032
0.097
0.026
0.043
0.080
0.062
0.145
-0.060
0.016
0.125
-0.076
-0.004
0.079
0.056
-0.058
-0.008
0.121
-0.006
0.095
0.042
0.039
-0.122
-0.030
0.051
0.065
0.143
0.009
-0.051
-0.089
0.013
0.147
0.080
-0.016
0.024
0.158
0.049
0.064
-0.066
-0.019
-0.063
0.006
0.077
0.040
0.030
0.030
0.007
-0.032
-0.016
0.021
-0.008
0.107
0.064
0.054
-0.044
0.068
0.026
0.037
0.047
-0.063
-0.071
0.115
0.058
0.058
0.012
-0.084
0.064
0.121
-0.007
-0.042
-0.137
0.047
0.004
0.063
0.124
0.039
-0.115
-0.047
0.020
0.040
0.118
-0.011
-0.003
0.209
0.023
-0.045
0.031
-0.055
0.028
0.052
0.068
-0.021
-0.091
0.036
-0.018
0.011
0.129
-0.067
0.102
0.052
0.009
0.026
-0.056
0.050
0.070
0.061
-0.119
-0.026
0.049
0.039
0.074
-0.095
-0.089
0.093
0.027
-0.068
0.003
0.063
-0.018
0.115
0.048
0.048
0.024
0.072
0.022
-0.077
0.038
0.062
0.068
0.045
0.007
0.104
0.105
-0.080
0.008
-0.060
0.058
0.094
0.098
-0.027
0.153
0.048
-0.054
0.011
0.055
0.019
0.076
0.085
0.082
-0.127
-0.037
0.099
0.123
-0.013
0.029
0.024
0.041
0.053
0.014
-0.017
0.048
0.007
0.103
0.037
-0.021
0.068
0.018
-0.079
-0.002
0.079
-0.014
0.126
-0.016
0.080
0.023
-0.044
-0.034
0.003
0.149
-0.046
0.023
0.010
0.063
0.057
-0.111
-0.089
0.111
0.047
0.086
-0.009
-0.011
0.109
0.026
-0.093
0.016
0.023
-0.045
0.031
0.059
0.037
-0.072
-0.021
0.163
0.059
-0.004
-0.031
-0.060
-0.023
0.064
0.000
-0.012
0.035
0.042
-0.017
0.113
-0.001
0.029
0.023
-0.003
-0.076
0.012
0.037
0.078
0.044
0.059
-0.077
-0.020
0.118
0.016
-0.015
0.132
0.049
0.073
-0.023
-0.108
-0.018
-0.016
0.066
-0.007
-0.022
0.055
-0.062
0.009
-0.007
0.177
0.043
-0.117
0.074
0.046
0.094
-0.048
0.083
0.004
0.007
-0.066
0.137
0.046
-0.014
0.036
0.028
0.094
0.063
0.016
-0.059
0.037
0.013
0.168
0.110
-0.044
0.047
0.047
-0.013
0.114
0.060
0.016
-0.038
0.047
-0.038
0.051
0.071
-0.047
0.055
-0.025
0.094
-0.009
0.019
0.067
0.033
-0.062
0.041
0.061
-0.082
0.111
-0.072
0.033
0.032
-0.041
0.038
0.064
0.021
-0.070
0.077
-0.043
-0.021
-0.000
0.072
0.056
-0.030
0.095
-0.073
-0.009
0.086
0.118
-0.017
0.080
-0.006
0.101
-0.042
-0.025
-0.008
0.035
-0.036
0.085
-0.042
0.009
0.120
-0.006
-0.016
0.050
-0.037
0.101
0.074
0.010
-0.007
0.047
-0.006
0.016
-0.078
0.030
0.057
-0.033
-0.050
0.023
0.121
0.109
-0.129
0.016
0.048
-0.096
-0.046
0.122
0.052
0.021
0.039
-0.021
0.167
-0.031
-0.153
0.089
0.170
0.103
-0.039
-0.011
-0.026
0.187
-0.061
0.022
0.027
0.116
-0.034
-0.007
-0.041
0.126
0.109
-0.008
0.099
0.000
-0.131
-0.124
0.153
0.031
0.180
-0.016
0.024
0.044
0.067
-0.053
0.010
0.050
-0.012
0.060
-0.070
-0.023
0.059
0.077
0.041
0.023
-0.089
0.054
0.127
-0.045
0.012
0.032
0.098
-0.051
-0.121
0.062
0.127
-0.054
0.118
0.078
-0.063
-0.054
0.017
0.129
0.028
-0.063
0.024
0.104
0.097
0.033
0.057
-0.058
-0.097
-0.006
0.109
0.129
0.071
0.025
0.113
-0.006
-0.091
-0.026
0.063
0.004
0.065
0.054
0.030
-0.013
-0.011
-0.081
0.088
-0.006
0.014
0.044
0.012
-0.047
-0.033
-0.031
0.116
0.025
-0.082
0.096
0.071
0.057
-0.002
0.106
0.081
0.039
0.110
-0.069
-0.035
0.120
0.042
-0.032
0.071
0.034
0.086
-0.035
-0.050
-0.039
0.011
0.086
0.145
-0.045
0.005
0.013
0.104
0.142
-0.072
0.002
-0.050
0.025
0.095
0.050
0.067
0.079
-0.088
0.002
0.028
0.020
0.109
0.050
-0.025
-0.006
0.024
0.029
-0.013
0.047
-0.042
0.071
-0.095
0.094
0.002
0.076
0.014
-0.006
-0.011
-0.047
0.090
-0.013
0.029
-0.133
0.060
0.015
0.042
0.012
0.034
-0.110
0.040
-0.008
0.167
-0.043
0.045
0.053
0.072
-0.042
0.144
-0.132
-0.027
0.132
-0.015
0.018
0.037
-0.038
0.061
0.132
0.001
-0.102
-0.030
-0.102
0.072
-0.007
0.128
0.067
-0.079
-0.004
0.128
-0.022
-0.058
-0.039
0.028
0.021
0.060
-0.005
0.067
0.029
-0.056
0.058
-0.044
0.022
0.034
0.091
0.018
-0.020
-0.009
0.092
-0.015
0.022
0.031
-0.026
0.040
0.057
-0.007
0.065
0.014
0.163
0.026
-0.027
0.011
0.039
0.036
0.066
-0.063
0.062
-0.038
-0.068
0.029
0.122
0.039
0.078
-0.018
-0.017
0.098
-0.031
-0.047
0.023
0.138
0.105
0.072
-0.097
0.012
0.007
0.134
-0.064
-0.054
0.031
-0.021
-0.085
0.127
0.029
0.142
0.044
-0.049
0.067
0.011
-0.049
-0.025
0.014
0.039
0.065
0.064
-0.016
0.016
0.069
0.058
0.040
0.002
0.026
0.014
-0.068
-0.029
-0.023
0.016
0.039
-0.066
0.102
0.030
-0.148
-0.002
0.106
0.037
-0.020
-0.047
0.037
0.119
-0.003
0.011
0.117
-0.186
0.006
-0.053
-0.051
0.015
0.040
-0.064
0.011
0.027
-0.102
0.103
0.092
0.004
0.010
0.031
0.027
0.041
-0.007
0.052
0.034
0.054
-0.049
-0.150
-0.019
0.100
0.009
0.056
0.064
0.036
-0.064
-0.050
0.021
-0.033
0.022
0.170
0.100
-0.138
-0.085
-0.099
0.131
0.137
0.118
0.063
-0.025
-0.079
0.045
0.053
-0.020
-0.035
-0.010
0.077
0.048
0.047
0.089
0.002
-0.050
-0.005
0.080
-0.056
-0.002
-0.082
0.134
0.151
0.085
0.025
-0.012
-0.121
-0.019
-0.075
0.063
0.113
0.086
0.006
-0.077
-0.013
0.089
0.030
-0.039
0.054
0.014
0.155
-0.000
0.083
0.067
0.024
0.044
0.043
0.063
0.058
-0.041
-0.022
0.058
0.103
0.074
0.143
-0.033
-0.041
-0.048
0.025
0.047
0.043
0.049
0.016
0.022
-0.106
0.032
-0.062
-0.068
0.045
0.107
0.164
0.015
-0.042
-0.027
0.118
0.082
-0.021
0.010
0.000
-0.040
-0.001
-0.052
0.072
0.018
0.012
0.064
-0.144
-0.015
-0.038
0.087
0.045
-0.145
-0.007
-0.031
0.176
0.095
0.130
0.016
-0.096
-0.034
0.004
0.105
0.031
-0.047
0.018
0.056
0.032
0.139
0.078
-0.056
0.005
0.083
-0.050
-0.029
-0.063
-0.077
0.071
0.078
0.171
-0.051
0.045
-0.045
0.049
-0.098
0.131
-0.005
0.024
0.093
0.065
0.055
-0.023
-0.063
0.033
0.075
0.054
-0.032
-0.033
0.002
0.101
-0.003
0.044
0.030
0.093
-0.129
-0.066
0.108
0.102
0.009
-0.047
0.016
0.051
0.057
0.031
-0.015
0.001
0.032
0.027
0.096
0.100
-0.018
0.080
0.010
0.128
-0.069
0.066
0.002
0.056
0.046
0.084
-0.055
-0.042
0.134
0.056
0.061
0.036
-0.122
-0.030
0.081
0.055
0.050
0.110
0.074
-0.010
0.058
-0.082
0.083
-0.022
-0.014
-0.035
-0.018
-0.019
0.058
0.094
-0.037
0.067
-0.009
-0.133
0.048
0.015
-0.061
0.094
0.059
-0.029
0.044
0.060
-0.025
0.117
-0.019
0.020
0.046
0.064
0.076
0.019
0.093
-0.075
-0.011
0.065
0.051
0.186
-0.030
-0.088
0.013
-0.031
0.147
0.057
-0.080
-0.078
0.025
0.042
0.038
-0.014
0.046
0.052
-0.002
0.011
0.090
-0.018
-0.047
-0.019
0.022
0.096
0.055
-0.033
0.067
0.031
-0.023
-0.042
0.079
0.021
0.020
0.056
-0.022
0.082
0.035
-0.014
-0.021
0.148
-0.022
-0.076
0.051
0.098
0.108
-0.032
0.037
0.037
0.122
0.088
0.025
0.049
-0.067
-0.019
0.022
0.038
-0.048
0.074
-0.007
0.191
0.120
0.060
-0.065
0.009
0.049
0.111
-0.011
0.123
0.025
-0.057
-0.011
-0.042
0.074
0.003
0.056
-0.051
0.098
0.035
-0.181
0.024
0.055
-0.013
0.139
0.046
-0.070
0.008
0.003
0.049
0.070
-0.021
-0.157
0.090
0.160
0.101
0.061
-0.044
-0.093
0.091
0.091
-0.069
0.074
0.095
0.000
0.097
-0.023
-0.086
0.120
0.099
0.158
-0.110
-0.033
0.028
0.004
0.036
0.046
-0.006
0.063
0.105
0.026
0.036
-0.151
0.007
0.060
0.015
-0.122
0.090
0.071
0.070
-0.063
0.041
-0.001
0.113
-0.004
-0.111
0.035
0.008
-0.046
-0.011
0.143
0.043
-0.001
0.146
0.001
-0.025
0.058
-0.043
0.085
0.039
-0.016
0.011
0.068
-0.085
0.042
0.038
0.034
0.107
0.045
-0.045
-0.059
0.013
0.105
-0.039
0.123
-0.013
-0.033
0.034
0.046
0.063
-0.075
-0.016
0.135
-0.081
0.032
0.064
0.021
0.019
-0.001
0.044
-0.055
0.057
-0.021
-0.023
0.039
0.091
0.050
0.047
0.011
0.001
-0.124
0.008
0.087
0.114
-0.105
0.039
-0.044
0.036
0.086
0.084
0.059
-0.017
-0.048
-0.027
0.055
0.056
-0.008
0.090
0.039
-0.100
0.046
0.064
-0.003
-0.030
-0.012
-0.029
-0.021
0.064
-0.077
0.018
0.067
0.054
-0.015
0.021
0.100
-0.049
0.057
-0.003
-0.027
-0.011
-0.084
0.067
0.072
-0.003
0.007
-0.026
0.062
0.096
-0.029
-0.080
0.055
-0.121
0.018
-0.001
0.023
0.067
0.047
0.109
0.095
0.026
0.006
0.053
0.063
0.096
0.001
0.031
-0.070
0.042
-0.016
-0.008
0.070
-0.021
0.012
0.019
0.027
0.010
-0.029
-0.033
0.039
0.089
-0.028
-0.034
0.004
0.036
-0.054
-0.000
0.047
0.022
0.082
0.096
0.044
0.032
-0.023
-0.037
0.007
-0.095
0.174
0.095
-0.086
0.085
-0.049
0.035
0.053
0.174
-0.056
-0.027
0.065
0.042
-0.048
0.067
0.019
0.049
0.017
0.096
-0.043
0.063
-0.133
0.068
-0.069
-0.004
0.190
-0.050
0.049
-0.056
0.042
0.019
-0.037
-0.009
0.134
0.105
0.105
-0.013
-0.216
0.062
0.020
0.019
-0.002
0.074
0.026
0.025
-0.016
0.047
0.032
-0.020
0.015
-0.059
-0.018
0.041
0.093
-0.070
0.102
0.005
0.001
0.129
-0.028
-0.109
-0.094
0.033
0.053
0.048
0.001
-0.004
0.018
-0.018
0.128
0.153
-0.034
0.073
-0.025
0.035
0.034
-0.003
0.053
-0.012
0.033
-0.087
0.007
0.063
0.037
-0.069
0.000
0.004
-0.001
0.107
0.072
-0.055
-0.003
0.055
0.024
-0.007
0.040
0.047
-0.018
0.088
-0.012
-0.043
-0.011
0.017
0.163
0.096
-0.043
0.033
-0.086
-0.041
0.111
0.055
0.038
-0.077
0.003
-0.001
0.098
0.043
-0.014
0.020
-0.012
0.085
0.079
-0.010
0.072
-0.016
0.042
-0.058
0.043
-0.076
0.126
0.033
0.072
0.007
0.105
-0.081
0.018
-0.021
-0.021
0.159
-0.108
0.121
-0.111
0.064
0.034
-0.061
-0.004
0.052
0.028
0.111
-0.033
-0.106
0.010
0.101
0.076
0.186
0.001
0.020
-0.070
0.054
0.112
-0.114
0.125
-0.015
0.002
0.097
-0.060
0.079
0.002
0.035
-0.029
0.032
0.067
0.041
-0.032
0.032
-0.015
0.184
0.097
0.046
0.039
-0.047
-0.016
0.087
-0.028
0.068
0.047
0.076
-0.012
-0.019
0.095
0.093
-0.085
0.055
0.003
0.019
-0.085
-0.013
0.116
0.080
0.022
-0.050
0.105
0.008
-0.009
0.090
0.128
0.030
0.003
0.085
0.091
-0.013
-0.102
-0.049
-0.014
0.039
0.088
0.043
-0.031
-0.007
0.080
0.115
0.025
-0.024
-0.014
0.099
-0.101
0.072
0.203
-0.035
-0.047
0.109
-0.036
-0.002
0.134
0.034
-0.029
0.025
0.034
0.003
0.105
0.110
-0.036
0.062
-0.138
-0.021
0.075
0.066
-0.038
-0.015
-0.008
0.021
-0.045
-0.055
0.069
0.023
0.036
0.027
0.019
-0.148
0.147
0.142
-0.047
-0.085
-0.089
0.030
0.069
0.107
0.001
0.023
-0.015
0.055
0.119
-0.003
0.076
0.158
0.041
-0.019
-0.047
-0.068
-0.011
-0.008
0.086
0.058
0.053
0.103
-0.068
-0.007
-0.032
0.036
-0.024
0.113
0.015
0.110
0.041
0.111
-0.072
0.011
0.057
-0.049
0.015
0.077
0.004
0.033
0.052
0.070
0.084
0.041
-0.097
0.037
0.107
-0.054
0.002
-0.062
0.064
0.158
0.225
-0.085
0.030
-0.037
0.017
-0.057
-0.016
-0.022
0.082
0.108
0.012
-0.003
-0.021
0.059
0.145
0.075
-0.055
0.142
0.036
0.065
-0.065
0.016
-0.015
-0.023
0.081
0.085
-0.000
0.046
-0.028
0.033
-0.016
-0.066
-0.005
0.032
0.164
0.111
0.035
-0.106
0.021
0.021
0.063
-0.037
0.042
0.138
-0.048
-0.045
0.050
0.113
0.047
0.028
-0.144
0.000
0.094
0.076
0.009
0.003
-0.033
0.051
0.051
0.052
0.088
0.029
-0.050
0.006
0.045
0.083
-0.015
0.165
0.027
-0.008
0.000
-0.019
-0.041
-0.022
0.094
0.004
0.175
0.001
0.067
-0.125
0.091
0.075
0.075
-0.006
-0.007
0.112
0.059
0.030
0.091
-0.034
0.019
-0.075
-0.017
0.085
0.041
0.055
0.002
0.051
0.026
0.016
-0.008
-0.009
0.069
0.056
0.051
0.018
-0.009
0.066
0.023
-0.032
0.065
0.080
0.073
0.055
0.127
0.007
-0.038
0.048
0.019
0.003
0.019
-0.036
-0.014
0.010
0.064
0.107
-0.007
0.023
0.052
0.055
-0.011
0.077
0.027
-0.055
-0.018
0.003
0.074
0.049
0.026
0.097
-0.011
0.116
0.025
-0.072
0.046
0.052
0.061
0.038
-0.082
0.041
-0.002
-0.015
0.142
-0.014
0.059
0.055
0.029
0.001
0.024
-0.030
-0.025
0.060
-0.026
0.036
-0.019
0.131
0.082
-0.040
-0.009
-0.072
0.095
0.042
0.093
-0.002
0.019
-0.034
0.042
0.013
-0.051
0.115
0.064
0.247
-0.059
-0.068
0.017
0.105
0.088
0.028
-0.114
0.039
0.180
-0.011
-0.020
0.079
-0.089
0.065
-0.070
0.097
0.039
0.080
0.010
0.058
0.014
0.013
0.116
-0.042
0.115
0.035
-0.028
-0.083
0.174
0.061
-0.049
-0.073
-0.010
0.010
-0.011
0.160
0.141
-0.026
-0.116
-0.006
0.080
-0.030
-0.068
0.075
0.033
0.007
0.082
0.099
-0.007
0.056
-0.041
0.041
0.201
-0.052
0.058
0.053
-0.055
0.043
-0.040
0.078
0.115
-0.033
-0.045
0.011
-0.019
0.033
0.030
-0.016
-0.064
0.022
0.126
0.043
0.018
0.036
0.021
0.035
-0.005
0.033
0.076
0.116
-0.042
-0.035
-0.019
0.041
0.013
0.034
0.033
0.037
-0.019
-0.001
-0.067
0.059
0.002
-0.041
0.208
0.024
-0.031
0.099
0.084
-0.060
0.049
0.054
0.022
0.038
-0.056
0.023
-0.002
0.017
0.016
-0.028
0.018
0.062
0.095
0.068
0.052
-0.014
0.019
0.076
0.044
0.001
0.088
0.073
0.075
-0.012
-0.072
0.137
0.026
-0.077
0.035
-0.012
-0.072
0.062
0.105
0.135
0.020
-0.068
0.014
0.005
0.194
0.103
-0.036
0.005
-0.016
-0.025
0.071
0.108
-0.047
-0.039
0.152
0.052
-0.085
0.106
-0.049
-0.082
0.002
0.089
0.050
0.073
0.106
-0.101
0.109
-0.039
0.119
0.063
0.016
0.043
0.076
0.052
0.089
0.032
-0.005
-0.070
0.009
0.066
0.105
0.038
-0.066
-0.107
-0.042
0.068
0.054
0.057
-0.137
0.082
0.015
0.107
0.033
-0.049
0.092
0.013
0.024
-0.000
0.050
-0.080
0.021
0.015
0.008
0.058
-0.013
0.021
-0.016
0.092
0.002
0.022
0.110
0.023
0.092
0.131
0.140
-0.067
-0.079
0.025
-0.049
0.113
-0.033
-0.087
-0.075
0.073
0.024
0.074
0.117
0.006
0.004
0.119
-0.041
-0.067
0.104
0.011
-0.008
0.090
0.061
0.035
-0.035
0.023
0.123
-0.104
0.010
0.033
0.000
0.124
0.069
-0.054
0.044
0.072
0.107
-0.049
-0.007
-0.000
0.093
0.050
0.085
0.045
-0.036
0.094
-0.006
0.063
-0.080
-0.002
0.013
0.044
0.064
-0.037
0.039
0.107
-0.009
0.001
0.148
0.120
0.043
-0.048
0.019
0.038
-0.060
0.062
-0.077
0.146
-0.002
-0.002
-0.005
-0.042
-0.031
0.089
0.080
-0.019
0.126
0.073
-0.018
-0.024
0.019
-0.071
0.046
0.104
0.015
0.090
0.059
0.027
-0.009
-0.095
0.114
0.022
-0.012
0.038
0.121
-0.013
-0.047
-0.014
0.129
-0.020
-0.013
0.008
0.128
-0.046
-0.049
0.012
-0.015
0.039
-0.062
0.129
-0.059
0.057
0.011
-0.023
0.009
0.107
0.080
-0.041
0.132
-0.051
0.151
0.038
-0.006
-0.065
0.061
0.020
0.066
0.039
-0.074
0.019
0.000
-0.016
0.108
-0.076
0.109
0.025
0.047
-0.159
0.024
0.008
0.014
-0.043
0.072
0.087
0.078
-0.007
-0.043
0.009
0.061
0.204
-0.064
0.094
0.060
0.044
-0.002
0.088
0.018
0.061
0.013
-0.095
0.062
0.031
-0.027
0.067
0.101
-0.064
0.029
0.043
0.112
-0.034
-0.065
-0.077
0.009
0.030
0.162
-0.096
0.045
0.071
0.033
0.084
-0.049
0.041
0.092
0.007
0.033
0.051
-0.046
-0.043
0.086
0.110
-0.047
-0.058
0.048
0.026
-0.050
0.046
0.078
0.136
-0.075
0.044
-0.074
-0.101
0.093
0.033
0.083
0.060
-0.067
-0.010
0.078
0.129
-0.039
0.059
0.028
-0.049
0.026
0.055
0.090
0.028
-0.042
0.036
0.044
-0.086
-0.060
0.094
0.050
0.056
-0.018
0.035
0.038
-0.022
-0.113
0.129
0.123
0.062
-0.019
0.059
0.024
0.043
-0.058
-0.035
-0.001
0.118
-0.011
0.051
0.061
-0.094
-0.118
0.055
-0.001
-0.026
0.174
-0.089
0.029
0.023
0.018
-0.001
0.032
0.026
0.065
0.041
-0.022
0.160
0.040
-0.028
0.019
0.065
0.054
-0.093
0.018
-0.079
0.003
0.089
-0.019
0.137
0.085
0.067
-0.056
-0.054
0.005
0.125
-0.061
0.057
0.096
-0.027
0.004
0.075
0.146
0.136
-0.008
0.004
-0.068
-0.013
0.032
0.061
0.003
0.003
-0.038
0.110
0.045
-0.080
0.010
0.099
0.051
0.033
-0.034
0.051
-0.093
-0.037
0.035
0.063
0.012
0.101
0.137
-0.024
0.006
-0.007
0.007
-0.031
0.025
0.067
0.101
0.021
-0.103
0.169
0.061
0.042
-0.011
-0.144
0.166
-0.038
0.051
-0.084
0.009
0.089
0.067
0.055
0.111
-0.032
0.006
0.054
-0.038
-0.063
0.036
0.032
-0.058
-0.007
0.065
0.022
0.037
0.101
-0.099
0.001
0.038
0.059
-0.024
0.009
0.025
0.039
-0.070
-0.038
0.057
0.060
0.106
-0.082
-0.072
0.008
-0.012
0.032
-0.010
-0.031
-0.098
0.077
0.165
0.012
-0.029
0.009
-0.011
0.161
0.066
-0.070
-0.042
-0.013
0.031
0.064
0.079
0.058
0.026
-0.002
0.110
-0.011
-0.058
0.083
-0.040
-0.036
0.059
-0.077
0.098
-0.041
0.019
0.082
-0.037
0.060
-0.008
-0.018
-0.011
0.049
0.053
0.056
-0.005
-0.061
0.003
0.034
0.126
-0.059
0.067
0.029
-0.104
0.123
0.062
-0.003
-0.015
-0.015
0.058
0.042
-0.044
0.038
0.061
-0.042
0.013
0.122
0.063
0.017
-0.087
-0.045
-0.016
0.175
0.049
-0.008
0.024
0.108
0.033
0.045
0.098
-0.105
-0.046
0.027
0.009
0.014
0.028
0.088
0.075
-0.006
-0.042
0.000
-0.004
0.005
0.029
0.005
0.112
-0.023
-0.079
0.133
0.037
0.047
0.008
0.036
-0.057
0.077
-0.021
0.053
-0.112
0.002
0.080
0.060
-0.056
-0.042
0.095
-0.020
0.105
0.029
0.109
-0.018
-0.062
0.006
-0.011
-0.015
0.017
0.050
0.090
0.001
0.019
-0.112
-0.039
0.070
0.049
0.156
0.021
0.052
-0.115
0.130
0.135
0.080
-0.019
-0.000
-0.036
0.065
0.009
-0.005
-0.044
0.007
0.031
0.119
0.016
-0.079
0.004
0.030
-0.026
0.079
0.059
-0.073
0.055
0.067
-0.020
0.021
0.089
0.090
-0.025
0.022
0.023
-0.067
0.014
0.066
0.119
-0.007
0.006
-0.013
-0.006
-0.017
0.071
0.035
0.141
0.069
-0.020
-0.046
0.035
-0.033
0.023
-0.048
0.035
0.163
0.088
-0.043
0.046
0.047
0.018
-0.001
0.092
-0.016
0.013
-0.035
0.027
0.112
0.056
0.079
-0.129
0.026
-0.069
0.087
0.123
0.001
-0.014
0.174
-0.047
-0.005
-0.018
0.016
0.096
0.038
0.101
-0.091
-0.069
0.074
0.007
0.048
0.021
0.057
-0.080
0.034
0.103
-0.008
0.073
-0.060
-0.080
0.017
0.135
0.094
-0.064
-0.045
0.049
0.095
0.085
0.081
-0.007
0.016
0.092
0.017
0.011
-0.083
0.100
-0.063
0.098
0.062
-0.024
0.099
0.095
0.014
0.034
-0.065
0.054
-0.036
0.069
-0.023
0.037
0.050
0.001
0.074
-0.092
-0.006
0.016
0.078
0.038
-0.017
-0.002
0.074
0.192
0.038
-0.072
-0.056
0.093
0.079
-0.047
-0.019
0.054
-0.067
0.041
-0.025
0.104
-0.026
-0.029
-0.117
0.179
0.132
0.027
0.067
-0.030
0.043
0.028
-0.025
0.113
-0.056
0.048
-0.077
0.009
0.111
-0.100
0.095
0.088
0.025
-0.188
0.009
-0.013
0.071
-0.035
0.058
0.090
0.000
0.033
-0.069
0.079
0.010
-0.020
-0.033
0.050
0.085
-0.012
0.065
0.029
0.077
0.052
-0.129
0.010
0.071
-0.043
0.041
0.036
-0.020
-0.052
0.122
0.059
0.014
0.029
-0.081
-0.055
-0.044
0.044
0.015
-0.089
-0.006
0.040
0.077
-0.003
0.115
-0.110
-0.006
0.054
0.053
0.012
0.016
0.145
0.020
-0.024
0.103
-0.022
0.102
0.060
-0.079
-0.006
0.017
0.063
0.012
0.020
-0.037
0.034
0.048
0.083
-0.015
0.059
-0.093
0.067
-0.012
-0.008
0.101
0.049
0.033
-0.029
0.038
0.032
-0.001
-0.027
0.189
-0.039
0.128
0.039
0.022
0.034
-0.032
0.062
0.083
0.044
-0.078
0.004
0.107
-0.023
-0.009
0.090
0.135
0.071
-0.029
-0.024
0.047
-0.019
0.022
0.058
-0.023
0.061
-0.022
-0.025
0.012
0.076
0.163
-0.079
-0.115
0.044
0.088
0.084
0.039
-0.028
-0.040
0.058
0.023
-0.016
-0.051
0.057
0.073
0.011
-0.024
0.065
-0.069
0.031
-0.079
-0.017
0.141
0.046
-0.033
0.095
0.084
-0.033
0.035
-0.002
0.075
0.103
0.003
0.054
-0.014
-0.062
0.066
0.086
0.087
0.003
0.002
-0.018
0.011
-0.023
0.143
0.099
0.003
-0.112
-0.077
0.080
0.098
-0.016
-0.007
-0.086
0.068
0.043
0.044
-0.055
-0.004
0.057
-0.019
0.078
0.072
0.002
0.112
0.126
0.014
0.002
-0.048
-0.162
0.132
0.054
-0.039
0.121
-0.044
0.104
-0.009
0.054
-0.028
0.008
0.041
-0.043
0.046
0.014
0.016
0.117
0.027
0.056
0.030
0.004
0.027
0.073
0.052
-0.028
0.004
0.008
0.003
0.008
0.073
0.160
-0.006
-0.080
-0.039
-0.057
0.148
-0.069
0.040
0.078
-0.028
0.062
-0.090
0.044
0.203
-0.119
0.150
0.027
-0.124
-0.013
0.033
-0.010
0.107
-0.064
0.015
0.002
-0.011
0.078
0.078
0.041
-0.014
0.098
0.028
0.005
-0.042
-0.076
-0.056
0.012
-0.068
0.104
0.065
-0.002
-0.030
0.014
0.070
0.056
0.017
-0.051
0.033
-0.032
0.017
-0.127
0.077
0.049
0.048
0.075
-0.029
0.103
0.042
-0.022
-0.093
0.038
0.072
0.072
0.051
-0.054
0.058
0.056
0.056
-0.029
-0.045
-0.033
0.077
0.095
0.126
0.008
0.004
-0.077
-0.004
-0.036
0.036
0.075
0.111
-0.017
0.075
0.111
0.022
-0.178
0.015
0.178
-0.095
0.112
-0.033
0.041
0.020
0.025
-0.076
-0.020
0.080
-0.079
0.152
-0.020
0.040
-0.124
0.096
-0.005
0.014
0.084
-0.014
-0.060
0.114
0.070
-0.004
-0.029
-0.167
0.107
0.115
0.010
0.039
0.103
-0.078
0.080
0.079
0.022
-0.040
0.024
0.004
0.070
-0.102
-0.016
0.105
-0.005
0.111
0.142
-0.021
0.023
-0.049
0.079
-0.003
0.051
0.028
0.034
0.062
-0.101
0.085
0.048
-0.002
0.032
0.017
0.075
0.029
0.052
-0.039
0.003
0.104
-0.018
0.022
-0.011
-0.075
-0.022
0.019
0.117
-0.176
0.013
0.085
-0.029
-0.029
-0.009
0.049
0.172
-0.022
-0.024
0.042
-0.135
0.103
0.031
0.123
0.023
0.021
0.003
-0.037
0.061
0.103
0.146
-0.016
-0.049
0.107
-0.010
0.071
0.060
0.039
-0.004
0.055
0.060
0.027
-0.043
-0.098
0.038
0.009
0.091
0.053
-0.091
0.105
-0.087
0.032
-0.062
0.046
0.085
0.050
-0.064
-0.053
0.024
-0.117
0.095
0.015
0.023
-0.014
0.006
0.018
0.070
0.050
0.006
-0.109
0.079
0.181
0.073
-0.037
0.022
0.009
0.104
-0.074
-0.003
0.003
0.027
0.083
0.013
-0.058
0.017
0.096
0.023
0.074
-0.039
-0.154
0.108
-0.040
0.157
0.016
0.041
-0.119
-0.039
0.039
0.070
-0.079
0.058
-0.012
0.116
0.057
-0.097
0.085
0.065
-0.036
0.005
0.002
0.026
0.097
0.148
-0.026
-0.026
-0.033
0.010
0.035
-0.083
0.135
0.039
0.102
-0.012
0.017
-0.049
-0.033
-0.005
0.120
-0.061
0.193
-0.085
0.041
-0.031
0.084
-0.024
-0.034
0.050
0.057
0.032
0.021
-0.060
0.016
-0.065
0.022
-0.004
0.054
0.011
0.113
-0.016
0.060
0.041
0.004
0.022
-0.023
-0.018
-0.034
0.028
0.000
0.017
0.014
0.061
-0.040
0.109
0.076
-0.034
0.143
-0.076
0.019
0.124
-0.006
-0.058
0.013
0.040
0.062
0.109
0.059
-0.011
0.003
-0.042
0.021
0.009
-0.032
0.087
0.030
-0.042
-0.035
0.085
-0.120
0.022
0.177
0.044
0.065
-0.035
-0.012
0.074
0.051
0.010
0.053
0.148
0.003
0.070
-0.089
0.011
0.060
0.027
0.007
0.136
0.056
-0.069
0.036
-0.074
0.017
0.103
0.054
0.150
-0.021
-0.032
0.034
0.099
0.091
0.014
-0.050
0.116
-0.022
0.024
0.052
-0.068
0.084
-0.012
0.051
-0.062
0.091
0.082
-0.084
0.065
0.054
0.021
0.015
0.151
0.040
-0.027
0.015
0.117
-0.139
-0.107
0.095
-0.014
0.124
0.099
0.014
-0.023
0.093
0.088
0.034
0.002
-0.069
0.078
0.024
-0.049
-0.061
0.132
0.029
-0.093
0.009
0.128
0.168
-0.014
-0.081
0.083
0.091
-0.088
0.013
-0.019
0.053
-0.077
-0.100
0.073
0.040
-0.031
0.122
0.036
0.122
-0.005
-0.116
0.047
-0.059
-0.037
0.042
0.087
0.062
-0.134
-0.019
0.064
0.126
-0.061
-0.100
0.174
0.109
0.010
-0.061
-0.066
0.017
0.167
0.030
0.038
0.058
-0.058
-0.045
0.023
0.120
0.057
0.012
0.131
-0.009
0.005
-0.007
0.014
0.029
0.081
0.044
-0.080
-0.014
0.022
-0.008
0.048
-0.012
0.059
-0.063
0.080
0.046
0.107
0.003
0.003
-0.056
0.074
0.024
-0.024
-0.044
0.136
0.071
-0.126
0.004
0.094
0.039
0.053
-0.023
0.036
0.028
-0.050
-0.046
0.007
-0.030
0.007
0.066
-0.044
0.009
-0.003
0.081
-0.087
0.135
0.086
-0.073
-0.061
-0.040
0.110
0.083
-0.016
0.017
-0.020
-0.039
0.047
-0.058
-0.012
-0.025
0.163
-0.046
0.040
0.067
0.091
0.037
-0.059
0.116
-0.015
-0.038
0.044
0.024
0.054
0.024
0.101
-0.091
-0.057
0.001
-0.016
0.083
0.085
0.039
-0.100
-0.019
0.017
0.093
-0.109
0.027
0.044
0.003
-0.004
0.006
0.120
0.095
-0.103
-0.043
0.040
0.152
-0.083
-0.017
0.045
0.076
0.101
-0.061
0.100
-0.033
0.095
0.012
0.033
0.079
-0.079
-0.025
0.036
0.035
0.013
0.019
0.087
0.018
0.048
-0.002
-0.099
0.115
0.138
0.114
-0.064
-0.075
0.094
-0.059
0.079
-0.019
0.066
0.131
-0.068
-0.071
0.004
-0.068
0.006
0.141
0.026
0.127
0.150
-0.004
-0.073
-0.042
0.039
0.054
0.072
-0.036
0.099
0.099
-0.030
-0.125
-0.029
0.028
-0.162
0.015
0.027
0.079
0.027
-0.013
0.060
-0.014
-0.076
-0.047
0.085
0.069
0.018
0.085
0.002
0.009
0.031
-0.001
0.002
0.044
0.107
0.023
0.037
-0.071
0.008
-0.106
-0.064
0.085
0.041
-0.006
0.164
0.044
-0.129
0.040
0.156
0.103
-0.115
0.027
0.070
-0.013
0.037
0.024
0.016
-0.014
0.009
-0.034
0.138
-0.017
-0.002
0.141
-0.039
0.049
0.084
-0.006
0.052
-0.062
0.174
0.048
-0.053
0.127
0.135
-0.045
0.018
0.055
-0.053
-0.058
0.039
0.017
0.033
0.007
-0.026
-0.040
0.127
0.066
0.064
0.002
0.022
0.024
-0.039
0.042
0.161
-0.070
0.011
0.088
0.105
0.123
-0.039
-0.125
-0.058
-0.054
0.106
0.128
-0.084
0.001
0.063
-0.009
0.112
-0.000
-0.027
0.018
-0.047
0.022
0.057
0.112
0.086
0.060
-0.006
-0.052
-0.045
0.104
0.111
0.011
0.031
-0.042
0.011
-0.045
0.077
-0.015
-0.065
0.050
-0.016
0.049
0.097
0.080
-0.113
-0.029
0.144
0.010
0.050
0.020
0.034
0.115
-0.103
-0.070
-0.026
0.036
0.011
0.121
-0.048
-0.054
-0.007
0.056
0.058
0.019
-0.000
0.127
-0.049
-0.050
0.023
0.006
0.143
0.073
0.046
-0.000
-0.049
0.102
-0.062
0.008
0.036
-0.131
0.045
0.046
0.044
0.094
0.047
0.003
0.133
0.079
-0.093
0.002
0.064
0.008
0.048
0.070
-0.163
-0.037
0.086
-0.036
0.046
-0.052
0.160
-0.058
0.112
0.059
0.025
-0.033
0.076
-0.007
-0.027
0.086
0.064
0.087
-0.057
-0.062
0.076
0.092
-0.080
0.030
0.041
-0.072
0.018
0.043
0.090
0.007
0.044
-0.023
0.008
0.009
-0.043
0.021
0.154
-0.074
-0.059
-0.049
0.100
0.060
0.004
-0.010
-0.029
0.054
-0.030
0.127
0.023
-0.070
0.017
0.169
-0.047
0.056
0.034
0.124
0.139
-0.059
0.028
-0.057
0.035
0.138
-0.061
-0.009
0.044
-0.032
-0.153
0.004
0.077
0.009
0.069
-0.063
0.033
0.035
-0.011
0.140
0.001
0.036
-0.084
0.078
0.089
0.088
-0.053
0.029
0.026
0.026
0.069
0.027
-0.022
0.077
0.032
0.001
0.016
-0.031
0.056
0.084
-0.007
0.004
0.025
-0.009
-0.019
-0.080
0.083
0.111
0.052
-0.020
0.046
0.014
0.050
0.120
-0.068
0.002
-0.037
0.074
0.063
0.048
0.008
0.113
-0.001
-0.006
0.063
0.078
-0.066
0.107
-0.016
0.062
0.059
-0.021
0.092
-0.049
-0.029
0.006
0.083
0.055
0.007
0.022
-0.106
-0.012
-0.078
-0.037
-0.010
0.128
0.129
0.011
0.004
-0.061
0.138
0.010
0.088
0.016
0.146
0.042
-0.038
-0.056
0.093
-0.056
0.015
0.043
-0.047
0.044
0.037
0.008
0.072
-0.027
-0.014
0.135
0.083
-0.039
0.094
-0.109
-0.039
0.115
0.068
0.061
-0.107
-0.010
0.093
0.069
0.018
-0.076
-0.030
0.054
0.085
0.033
-0.050
0.009
0.067
0.007
-0.011
-0.051
0.074
0.022
0.128
0.055
-0.077
-0.025
-0.003
-0.065
-0.040
0.180
0.002
-0.088
-0.059
-0.006
0.056
-0.034
0.029
-0.071
0.029
0.041
0.078
0.122
-0.006
-0.038
-0.068
0.055
0.005
0.034
0.001
0.134
0.060
-0.033
-0.064
0.032
0.014
-0.145
0.128
0.059
-0.010
0.096
0.036
0.041
-0.093
0.004
-0.016
0.052
-0.004
-0.036
0.039
0.053
-0.061
0.065
-0.145
-0.013
-0.003
-0.009
0.246
-0.187
-0.046
0.082
0.092
-0.043
0.044
-0.080
0.114
0.131
-0.075
-0.002
-0.040
-0.005
-0.005
0.129
-0.056
0.041
-0.045
0.055
-0.046
0.150
0.025
-0.051
0.111
0.071
-0.029
-0.033
0.147
0.021
0.127
0.051
-0.132
0.057
-0.077
0.030
0.048
0.051
0.007
-0.024
-0.079
0.005
-0.009
0.036
0.060
0.064
0.035
-0.037
0.011
-0.018
0.070
0.066
0.045
0.051
0.026
0.133
-0.035
-0.043
0.049
-0.010
0.100
-0.082
0.120
0.019
-0.053
0.034
0.101
0.049
0.098
-0.023
-0.093
0.048
0.144
-0.020
0.012
0.063
0.069
0.048
-0.067
-0.083
-0.025
-0.032
0.132
0.031
-0.006
0.040
0.073
0.047
-0.009
-0.001
0.021
0.067
0.166
0.003
0.021
-0.083
0.098
-0.112
0.050
0.083
0.071
0.190
0.041
0.010
-0.043
0.143
0.043
-0.049
0.009
0.106
0.033
0.006
-0.009
-0.001
0.095
-0.008
-0.005
-0.080
-0.025
0.164
-0.024
-0.014
-0.009
0.028
0.002
-0.026
0.024
0.033
0.072
0.013
-0.133
0.043
0.057
0.002
0.017
0.049
-0.019
0.017
0.016
0.044
-0.012
0.120
0.089
0.092
0.015
-0.007
0.083
-0.047
0.103
0.103
0.071
-0.016
-0.012
0.058
-0.007
-0.086
-0.027
0.112
-0.037
0.059
0.023
-0.015
0.029
-0.002
0.016
0.041
0.145
0.010
-0.003
0.020
-0.064
-0.021
0.009
-0.088
0.058
0.046
-0.097
-0.012
-0.104
0.040
0.135
0.043
-0.081
0.111
0.010
0.003
-0.018
0.076
0.089
0.066
-0.020
-0.071
0.095
-0.093
0.043
0.052
0.123
0.010
-0.144
0.048
0.005
0.032
0.087
-0.054
0.005
0.123
-0.111
-0.095
-0.018
0.015
0.127
0.126
-0.026
0.062
-0.065
-0.045
-0.040
0.061
0.033
0.067
0.123
-0.022
-0.013
0.043
0.035
0.043
0.061
0.030
0.199
0.028
-0.117
-0.021
0.029
-0.059
-0.033
0.044
0.102
0.117
-0.047
-0.010
0.046
-0.027
0.120
-0.130
-0.107
0.200
-0.000
0.065
-0.055
0.038
0.048
-0.002
-0.008
0.118
0.062
0.024
-0.034
0.064
0.111
0.068
-0.007
-0.008
0.001
0.056
-0.054
-0.067
0.099
-0.028
-0.027
0.137
0.026
-0.043
0.125
0.152
0.135
-0.007
-0.056
0.028
0.001
-0.056
0.118
0.090
0.092
0.118
0.020
-0.038
0.025
-0.032
0.065
0.046
0.048
0.090
0.041
-0.017
0.114
-0.051
-0.076
-0.023
0.063
0.151
0.115
-0.059
0.001
-0.036
0.134
0.067
-0.066
0.038
0.028
0.003
0.039
-0.014
-0.005
-0.022
0.114
-0.066
0.220
-0.011
-0.163
0.080
0.002
0.032
-0.068
0.113
0.135
0.076
-0.007
-0.011
0.016
0.065
-0.056
-0.020
0.008
0.167
0.020
0.027
0.017
-0.012
0.061
-0.029
-0.008
0.090
0.066
-0.029
-0.026
0.104
0.040
0.009
-0.019
0.079
-0.004
0.035
-0.195
0.066
-0.012
0.065
-0.022
0.107
0.004
-0.012
0.104
0.072
-0.084
0.002
0.024
0.114
0.045
-0.089
0.002
0.119
0.015
0.087
0.042
-0.064
-0.066
-0.013
0.121
0.050
0.041
0.002
0.103
0.023
0.011
0.077
-0.032
-0.099
-0.031
0.025
0.159
0.088
0.082
0.037
-0.134
-0.025
0.045
-0.134
0.043
0.172
0.065
-0.014
-0.000
0.004
0.012
0.170
-0.114
-0.034
0.023
0.087
0.115
-0.017
-0.003
0.012
-0.048
0.062
0.099
-0.019
0.046
-0.014
-0.058
0.027
0.205
0.038
0.035
0.024
0.161
-0.073
-0.058
0.135
0.045
0.074
-0.031
-0.032
-0.140
0.087
0.110
-0.011
-0.053
-0.085
-0.087
0.127
0.051
0.004
0.023
-0.066
0.070
-0.020
0.059
-0.019
0.011
0.023
-0.061
0.142
0.086
0.037
0.132
0.033
0.007
0.093
-0.029
0.010
-0.064
0.035
0.100
0.051
0.050
0.020
-0.032
0.026
0.001
-0.034
0.077
-0.038
-0.030
0.072
0.122
0.000
-0.009
0.003
-0.045
-0.011
0.112
0.115
-0.005
0.092
-0.103
-0.105
0.040
0.127
0.076
0.049
0.098
-0.078
0.048
-0.079
0.017
0.164
-0.036
-0.055
0.020
0.013
0.079
-0.044
0.044
0.080
-0.020
0.077
0.043
0.090
0.094
0.027
0.095
-0.014
-0.151
-0.029
0.127
-0.013
0.133
0.018
-0.100
-0.127
0.118
0.021
-0.006
-0.023
0.028
0.006
0.179
0.075
0.149
-0.055
-0.109
0.074
-0.061
-0.051
-0.038
-0.029
0.076
0.057
0.042
0.043
0.007
0.119
0.021
-0.000
-0.133
0.022
0.057
-0.005
0.099
-0.074
-0.006
-0.013
0.107
0.144
0.161
0.052
-0.094
-0.061
-0.014
0.031
-0.032
0.051
-0.010
0.099
-0.050
-0.031
0.013
0.038
0.068
-0.103
0.020
-0.103
0.066
0.191
-0.019
-0.031
0.098
0.013
0.037
-0.067
-0.022
0.012
-0.002
0.037
-0.030
0.089
0.093
0.014
-0.075
0.022
0.035
0.070
-0.002
-0.144
0.049
0.007
0.110
0.047
-0.069
0.022
0.004
0.038
-0.001
0.072
0.010
0.023
-0.017
0.068
-0.051
0.038
-0.037
-0.070
-0.036
0.070
0.077
-0.074
0.047
0.107
-0.042
-0.010
0.048
-0.015
0.041
0.031
0.010
0.008
-0.048
-0.006
0.121
0.000
-0.002
0.085
-0.011
-0.041
0.132
0.040
-0.127
-0.106
0.191
-0.031
0.079
-0.147
-0.032
-0.050
0.141
0.125
-0.125
-0.072
0.075
0.063
0.034
0.044
-0.054
-0.077
0.086
0.082
-0.117
-0.078
0.175
-0.053
-0.016
0.084
0.065
0.138
0.005
0.007
-0.058
0.097
0.116
-0.045
0.002
-0.201
0.082
0.102
0.074
0.030
0.106
-0.006
0.035
-0.025
0.057
0.078
0.063
0.014
0.025
0.075
-0.073
0.018
0.085
-0.059
0.032
0.017
0.116
0.014
-0.022
-0.087
-0.005
0.111
0.007
0.032
0.106
0.076
0.009
-0.061
-0.046
0.061
0.134
-0.062
0.129
0.016
-0.102
0.026
0.044
0.034
0.028
0.074
0.027
-0.125
0.035
0.004
0.127
-0.146
0.060
0.136
-0.046
-0.033
0.009
0.030
0.073
-0.004
0.058
0.123
0.007
0.053
0.043
0.056
0.009
-0.004
-0.011
0.032
-0.001
0.066
0.104
-0.140
0.101
0.031
0.020
0.086
-0.012
-0.053
0.022
-0.024
0.071
0.061
-0.014
0.032
-0.004
-0.016
0.015
-0.037
-0.081
0.177
0.056
0.134
-0.125
-0.049
0.113
0.062
-0.115
-0.083
0.032
0.036
0.060
0.012
0.050
-0.049
0.095
0.003
-0.041
0.028
0.032
0.039
0.002
0.123
-0.066
-0.062
0.037
-0.030
-0.077
0.153
0.020
0.042
-0.050
0.190
-0.029
-0.023
0.068
-0.039
0.095
0.070
0.001
-0.052
0.056
0.054
0.058
0.016
-0.008
-0.059
-0.047
0.067
0.146
-0.040
-0.110
-0.006
-0.003
0.046
-0.109
0.013
0.005
0.203
-0.021
-0.029
-0.012
0.019
0.131
-0.016
0.068
-0.057
-0.006
0.175
0.055
-0.039
-0.050
-0.042
0.149
0.013
-0.024
-0.054
0.111
-0.057
0.040
0.010
0.063
0.126
-0.124
-0.067
0.015
0.001
0.093
0.185
-0.012
-0.053
0.019
0.017
0.035
0.036
0.094
-0.072
0.147
0.013
0.020
-0.018
-0.102
0.076
0.072
0.012
-0.035
0.086
0.048
0.049
-0.054
0.058
0.045
-0.004
0.056
0.110
0.055
-0.002
-0.071
0.086
0.068
0.076
-0.047
-0.006
0.022
-0.013
0.119
-0.077
0.023
0.014
0.073
0.094
-0.009
0.000
0.020
0.042
-0.097
0.043
0.016
0.012
0.129
0.017
-0.067
0.133
0.013
0.077
0.062
0.011
-0.078
0.014
0.117
0.133
0.028
0.016
0.029
-0.021
-0.048
0.077
0.100
-0.001
0.002
-0.008
0.003
0.007
0.158
0.030
-0.001
-0.069
0.027
-0.010
0.119
-0.106
-0.030
0.078
0.026
0.058
-0.044
0.046
0.031
0.002
0.003
0.010
0.081
0.110
0.030
0.005
-0.043
0.034
0.037
0.077
0.030
-0.061
0.066
0.000
-0.025
0.040
0.124
0.091
-0.021
0.009
-0.072
0.064
-0.035
0.031
0.050
0.111
0.084
0.010
-0.059
0.134
-0.034
0.029
0.046
-0.010
0.004
0.011
-0.021
0.142
0.006
-0.053
0.056
-0.003
0.029
0.137
0.077
0.093
0.093
-0.141
0.036
-0.117
0.021
0.003
0.201
-0.026
-0.021
-0.027
0.001
0.051
-0.021
0.120
-0.047
-0.002
0.046
-0.007
0.000
0.132
0.040
-0.052
0.097
0.048
0.100
-0.005
0.053
-0.027
0.107
0.081
0.025
0.087
0.063
-0.019
0.075
0.029
0.116
-0.075
0.067
-0.068
0.042
0.038
0.015
0.053
0.039
0.049
-0.002
0.051
-0.108
-0.003
-0.003
0.108
0.063
-0.049
0.053
0.175
-0.058
0.001
-0.008
0.014
0.014
0.021
0.175
0.120
0.002
-0.023
-0.044
-0.094
0.072
0.107
-0.017
-0.106
-0.055
0.121
-0.032
0.036
0.147
0.022
0.025
0.063
-0.040
0.044
0.202
-0.007
0.015
0.055
0.054
0.080
0.022
0.013
-0.022
-0.071
0.137
0.047
0.128
-0.018
0.065
-0.060
-0.037
-0.140
0.096
-0.023
0.099
0.117
-0.013
-0.094
0.017
0.071
-0.123
0.087
-0.031
-0.072
0.046
0.042
0.034
0.069
0.077
0.016
0.018
0.005
0.013
0.031
0.086
-0.002
0.014
0.173
0.049
-0.106
0.048
0.136
0.076
-0.133
-0.045
0.162
0.015
0.082
-0.038
0.013
-0.087
-0.053
0.073
0.031
0.075
-0.061
-0.031
0.084
-0.031
-0.007
-0.030
-0.105
0.135
-0.026
0.131
0.015
-0.027
0.020
0.092
-0.073
-0.040
0.028
0.045
-0.042
0.215
0.028
-0.047
0.000
0.016
-0.047
-0.038
-0.006
0.007
0.026
0.016
0.064
0.045
0.059
-0.112
-0.012
0.070
0.036
0.150
-0.122
0.031
0.080
-0.010
-0.087
-0.103
0.076
0.059
0.071
0.042
-0.078
0.085
0.041
0.053
0.048
-0.045
-0.033
0.140
0.009
0.099
-0.098
0.006
0.020
-0.086
0.146
0.074
-0.020
0.014
-0.038
0.168
-0.069
0.055
0.093
-0.042
-0.042
0.061
0.099
0.029
0.034
0.012
0.020
0.066
0.039
0.109
-0.067
0.012
0.023
-0.081
0.112
0.063
0.121
-0.134
-0.072
0.073
-0.080
0.144
0.144
0.062
-0.020
0.015
-0.003
0.127
0.064
0.014
0.107
-0.081
-0.019
0.050
-0.029
-0.012
0.089
0.018
0.140
-0.089
0.073
0.018
0.026
-0.003
-0.040
0.126
0.116
0.058
0.079
0.047
-0.032
0.065
0.056
0.028
-0.160
-0.062
0.145
-0.127
0.099
-0.056
0.061
0.050
0.087
0.034
0.028
0.033
0.150
-0.009
-0.015
-0.021
0.014
-0.028
-0.060
-0.072
0.113
0.080
0.007
0.071
0.020
0.041
-0.110
0.003
-0.011
0.081
0.118
0.076
0.104
-0.065
-0.034
0.100
0.004
0.081
0.054
-0.059
-0.041
0.085
0.082
-0.012
0.047
0.067
0.036
-0.016
-0.049
0.039
0.102
0.098
-0.011
-0.017
0.031
0.004
-0.081
0.101
-0.003
-0.035
0.010
0.142
0.093
-0.179
-0.013
0.060
0.094
0.058
-0.052
-0.051
0.068
0.099
-0.126
0.076
-0.059
0.143
0.028
0.174
-0.012
-0.024
0.054
0.069
-0.066
0.078
0.050
-0.016
-0.016
0.001
0.128
-0.009
-0.017
0.147
0.013
-0.086
0.021
-0.008
0.026
-0.044
0.180
-0.049
-0.038
0.121
-0.045
0.037
-0.029
-0.050
-0.022
0.155
0.053
-0.027
-0.024
-0.024
-0.000
-0.057
0.178
-0.019
0.063
0.093
0.015
-0.100
-0.065
-0.052
0.077
0.066
0.136
-0.060
-0.092
0.058
0.111
0.031
-0.042
0.049
-0.025
0.094
0.049
-0.048
-0.004
0.152
-0.049
-0.031
0.073
0.005
0.089
-0.034
0.112
-0.023
0.140
-0.171
-0.090
0.079
0.051
0.123
-0.071
-0.138
0.082
0.051
0.063
0.121
-0.089
-0.060
0.036
0.031
0.060
0.003
-0.029
-0.008
0.061
0.085
-0.013
0.010
0.055
-0.080
-0.005
0.060
0.031
0.091
-0.003
-0.004
0.056
0.133
-0.130
0.105
0.016
-0.037
0.058
0.170
0.013
0.015
0.036
-0.131
0.032
0.003
0.113
-0.010
0.051
-0.062
0.151
-0.041
-0.009
0.149
0.036
-0.059
-0.055
0.071
-0.099
0.138
0.096
0.083
-0.096
-0.014
0.029
0.016
0.006
0.151
0.006
-0.039
0.033
-0.079
0.033
0.057
0.123
-0.000
-0.012
0.075
-0.089
0.074
0.055
0.016
0.037
-0.031
-0.020
0.010
0.069
-0.066
0.126
0.046
0.029
0.007
0.035
0.104
-0.000
0.031
-0.111
-0.028
0.055
0.066
0.045
-0.072
0.029
0.018
0.110
0.030
-0.000
0.062
0.035
-0.059
0.080
-0.039
0.053
-0.061
0.049
0.042
0.048
-0.037
0.165
0.000
-0.058
-0.066
0.080
0.015
0.100
0.010
0.012
0.045
-0.027
-0.029
-0.101
0.070
0.165
-0.025
-0.041
0.043
0.062
0.176
-0.157
-0.056
0.026
-0.006
-0.184
0.102
0.052
0.084
0.114
0.014
-0.013
-0.028
-0.097
0.217
0.056
-0.032
0.071
0.020
0.055
0.012
0.005
-0.004
0.103
0.035
0.047
-0.022
0.043
0.019
0.047
-0.042
-0.014
-0.028
-0.008
-0.032
0.135
0.063
-0.043
0.054
0.043
0.081
-0.020
0.047
-0.054
0.013
0.060
0.099
-0.041
-0.038
0.154
0.029
0.064
-0.043
-0.033
0.003
-0.062
-0.048
0.041
0.116
-0.029
0.030
0.051
0.012
0.083
0.013
0.004
0.036
0.022
0.109
0.126
0.016
-0.033
-0.035
0.067
0.100
-0.070
0.041
0.078
0.037
0.018
0.034
-0.003
0.010
-0.008
-0.008
0.045
0.007
-0.108
0.023
0.080
0.049
-0.086
-0.010
0.070
0.155
0.018
-0.052
0.073
0.099
-0.102
0.103
0.062
0.088
-0.060
0.012
0.031
0.129
0.089
0.113
-0.121
-0.041
0.000
0.115
0.034
0.045
0.052
0.035
0.008
0.017
-0.021
-0.090
0.090
0.065
0.026
-0.077
0.026
-0.008
0.140
0.029
0.011
-0.037
0.074
0.027
-0.093
0.028
0.037
0.046
0.019
0.126
0.012
-0.048
0.065
0.038
0.011
-0.009
0.086
0.093
0.072
-0.046
0.093
-0.185
0.020
-0.105
0.044
0.117
0.082
0.077
0.014
-0.042
-0.028
-0.013
0.109
-0.057
0.006
0.237
0.000
-0.100
0.045
0.099
0.081
0.107
-0.045
-0.005
0.051
-0.006
-0.009
-0.022
-0.046
0.030
0.016
0.073
0.039
-0.034
0.187
-0.069
-0.024
0.108
-0.064
0.002
0.148
0.019
0.071
-0.060
-0.082
0.025
0.160
0.092
-0.109
0.043
0.019
-0.142
0.071
0.137
0.041
0.104
0.012
-0.159
0.006
0.003
0.038
0.017
0.097
0.005
0.050
-0.137
0.073
0.074
-0.015
0.075
0.043
0.000
0.000
-0.036
0.016
0.027
0.030
-0.035
0.250
-0.051
0.010
-0.024
0.062
-0.048
0.122
0.003
0.085
-0.024
0.069
-0.036
-0.026
0.100
0.125
0.047
-0.035
0.038
-0.002
-0.076
0.038
-0.090
0.004
0.002
-0.027
0.008
0.038
0.061
-0.133
0.116
-0.039
0.061
0.010
0.007
0.100
-0.053
0.063
0.080
0.023
0.017
-0.050
0.069
0.036
-0.036
0.116
0.017
-0.079
-0.000
0.179
0.051
0.049
0.019
0.005
0.061
0.002
-0.071
0.070
0.209
-0.062
0.036
0.082
0.002
-0.022
0.014
0.010
0.020
0.034
0.050
0.181
0.091
-0.005
-0.100
0.164
-0.002
-0.056
-0.010
0.031
0.006
0.005
0.022
0.057
0.016
0.121
-0.031
0.140
-0.059
0.102
0.013
0.015
0.038
0.006
0.077
0.001
0.107
0.099
0.045
0.012
-0.034
0.034
0.055
0.002
0.102
0.050
0.058
-0.035
0.148
-0.039
0.068
-0.008
0.025
-0.022
-0.025
0.070
0.122
-0.076
-0.040
0.109
-0.003
0.027
0.056
0.032
-0.097
0.054
0.013
0.028
0.152
0.019
0.019
0.034
-0.054
-0.081
0.085
0.128
0.016
0.067
0.048
0.052
-0.169
0.035
0.010
0.120
0.075
-0.003
0.007
0.089
-0.115
0.028
0.057
0.059
-0.045
0.003
0.053
0.163
0.040
-0.062
-0.067
0.009
0.057
0.100
0.064
0.104
-0.107
-0.008
0.070
-0.080
0.048
0.067
0.094
0.106
0.020
-0.001
-0.104
0.024
0.038
0.054
0.082
-0.016
-0.016
-0.011
0.073
0.052
0.106
-0.053
-0.022
0.025
-0.003
-0.001
0.112
-0.092
-0.027
0.018
0.077
0.054
0.075
0.093
0.018
0.082
0.024
-0.040
0.061
0.128
0.070
-0.012
-0.135
-0.024
0.059
0.013
0.062
0.129
-0.030
-0.038
-0.014
0.010
0.036
0.045
0.133
0.068
-0.017
-0.069
0.003
0.016
0.125
-0.038
0.007
0.110
-0.019
-0.024
-0.057
-0.001
-0.002
0.129
-0.024
0.011
0.061
0.041
-0.077
-0.025
0.028
0.197
-0.030
0.005
0.026
-0.081
0.027
0.099
-0.091
-0.075
0.030
0.017
0.218
-0.016
-0.039
0.038
0.041
0.025
0.026
0.131
0.050
-0.031
0.092
-0.018
-0.102
-0.055
0.043
0.161
-0.042
0.077
0.023
0.009
-0.034
-0.007
0.019
-0.002
0.040
0.006
0.090
-0.006
0.000
-0.013
0.013
0.063
0.103
-0.031
-0.070
0.026
0.018
0.084
0.027
0.008
0.010
-0.026
-0.038
0.007
0.105
0.037
0.024
-0.027
-0.062
0.004
0.069
-0.083
0.096
0.180
-0.054
-0.037
-0.004
0.116
-0.012
0.054
0.029
0.050
-0.100
0.006
0.063
-0.000
0.052
-0.098
0.065
0.005
0.047
0.010
-0.029
0.047
0.057
-0.096
0.029
0.052
0.127
-0.044
0.057
-0.054
0.091
0.106
-0.025
0.040
0.098
-0.148
-0.028
0.182
-0.002
0.066
-0.081
-0.107
0.077
0.101
0.015
-0.019
0.005
-0.221
-0.012
0.111
0.132
0.170
0.000
-0.073
0.067
-0.011
0.004
-0.064
0.039
0.124
0.001
0.032
0.067
0.016
0.114
0.051
0.020
0.077
-0.049
-0.086
0.011
0.090
-0.114
0.067
0.093
-0.036
0.118
0.072
-0.108
-0.044
0.102
0.071
-0.023
0.106
-0.049
0.007
0.012
-0.024
0.061
0.058
0.064
-0.115
0.019
0.064
0.090
-0.003
-0.001
-0.029
0.014
0.195
0.133
-0.015
0.063
-0.046
-0.029
0.125
0.090
-0.044
0.020
0.082
0.082
-0.065
-0.010
0.108
0.046
-0.109
0.024
0.032
0.004
-0.048
0.039
0.118
0.055
-0.047
0.011
0.000
0.089
-0.053
0.044
-0.100
0.060
0.093
0.036
-0.026
-0.008
0.042
0.030
-0.109
0.025
0.077
0.010
0.060
0.137
0.081
0.038
-0.031
-0.036
0.108
0.133
0.094
-0.127
0.005
0.135
-0.132
-0.012
0.040
0.056
0.042
0.043
0.117
-0.053
0.074
0.024
-0.026
0.084
-0.054
-0.052
0.122
0.043
0.031
-0.060
0.079
0.020
-0.026
-0.029
0.035
-0.030
0.077
0.045
-0.063
0.154
0.082
-0.006
0.031
-0.082
0.056
0.000
0.055
0.065
-0.064
-0.025
0.090
0.044
0.075
-0.102
0.043
0.028
0.056
-0.035
0.034
0.031
0.070
-0.051
0.186
-0.023
-0.050
-0.019
-0.014
0.112
0.128
0.082
-0.036
0.049
-0.037
-0.055
0.076
0.042
0.114
-0.047
0.147
0.035
0.032
0.015
-0.034
-0.018
-0.041
0.072
-0.028
0.146
0.014
0.068
0.056
-0.086
0.031
-0.022
0.101
-0.011
-0.097
0.011
0.029
0.071
0.043
0.023
-0.069
0.052
-0.009
0.030
0.063
0.096
-0.007
0.017
0.080
0.064
-0.068
0.014
0.068
0.031
0.049
0.123
-0.011
0.033
0.131
0.098
-0.053
-0.007
0.070
0.176
-0.020
-0.095
0.049
0.078
0.027
0.034
0.014
-0.074
-0.042
0.040
-0.034
0.093
-0.045
0.076
0.050
0.048
-0.034
-0.040
-0.025
0.084
0.006
0.036
-0.063
-0.051
0.177
-0.025
0.028
-0.054
0.052
0.046
0.072
0.009
-0.028
0.066
0.027
-0.077
0.067
0.079
-0.022
0.044
-0.059
0.036
0.054
0.076
0.030
0.110
0.006
0.039
-0.085
0.028
-0.057
0.028
0.061
-0.095
0.048
0.049
0.047
-0.093
0.019
-0.016
0.010
0.043
-0.074
0.021
0.121
-0.070
-0.058
0.044
0.028
0.017
-0.003
-0.111
0.213
-0.032
0.030
-0.028
0.069
-0.050
-0.021
-0.062
0.057
-0.016
0.054
0.094
0.181
0.054
-0.020
0.134
-0.108
0.057
-0.030
0.030
-0.078
-0.026
0.115
0.045
0.074
-0.110
0.178
-0.005
0.072
-0.014
-0.171
-0.009
-0.040
0.113
-0.056
0.090
0.118
0.010
-0.050
-0.037
0.009
0.185
-0.006
0.096
-0.005
0.048
0.018
0.095
-0.155
0.145
0.060
-0.064
-0.020
0.107
-0.086
-0.079
0.060
0.028
0.176
0.037
-0.048
-0.083
-0.020
0.113
0.058
0.063
0.048
-0.049
0.028
-0.023
0.080
0.004
-0.001
-0.020
0.019
0.078
0.131
-0.032
0.085
0.053
-0.039
0.001
-0.047
0.002
-0.043
0.032
0.006
0.121
-0.086
0.017
0.053
0.023
-0.066
0.015
-0.093
0.113
0.052
0.086
-0.004
0.013
-0.020
0.007
0.033
0.016
0.078
-0.063
0.001
-0.000
-0.050
0.057
-0.013
-0.035
-0.059
0.009
-0.103
0.119
0.082
-0.046
-0.080
0.006
0.030
0.040
0.085
-0.001
0.043
-0.029
0.043
0.042
-0.057
0.036
0.058
0.036
0.080
0.054
-0.046
0.074
-0.061
0.079
0.053
0.075
-0.078
-0.043
-0.016
0.063
0.017
0.053
-0.011
0.000
-0.010
0.019
0.023
0.004
-0.044
0.067
-0.185
0.101
0.133
0.034
0.023
0.062
0.055
-0.031
-0.044
0.015
0.068
0.099
-0.074
0.069
-0.122
0.002
-0.013
-0.079
0.181
0.008
0.069
0.011
-0.012
0.052
-0.039
0.008
0.041
0.106
-0.029
0.090
0.037
-0.008
0.067
0.135
0.018
-0.029
-0.010
0.108
-0.124
-0.016
0.052
0.105
-0.133
0.024
0.153
0.077
-0.189
0.066
0.093
0.042
-0.077
0.113
0.082
0.024
0.017
0.022
0.078
-0.057
-0.091
0.117
0.145
0.033
-0.034
-0.017
0.046
0.045
-0.025
-0.022
0.047
0.181
0.010
0.035
-0.136
-0.016
0.072
-0.002
0.053
-0.031
0.046
-0.168
0.090
0.083
0.009
0.040
-0.081
0.008
0.039
0.113
0.113
-0.012
-0.021
-0.082
0.177
0.019
0.081
0.043
-0.019
0.067
0.023
-0.033
-0.037
0.075
0.074
0.004
0.037
0.058
0.091
0.041
-0.119
-0.095
-0.062
0.117
-0.010
0.043
0.055
-0.069
0.036
0.082
0.074
0.079
-0.037
0.051
0.014
0.064
0.091
0.014
0.018
0.103
-0.029
0.032
0.009
-0.101
-0.010
0.080
0.069
0.232
0.193
-0.337
-0.275
-0.025
0.129
0.250
0.009
0.237
-0.108
-0.101
0.073
-0.075
0.115
0.055
-0.012
0.239
0.117
-0.066
-0.014
-0.066
-0.197
0.399
0.489
0.132
0.051
-1.048
-0.845
0.131
0.354
0.374
0.225
0.141
-0.068
-0.188
-0.093
-0.084
-0.201
0.643
0.355
-0.143
-0.562
-0.063
0.449
0.227
0.294
0.035
0.054
-0.079
-0.268
0.068
0.284
0.601
0.147
0.110
-0.044
0.001
-0.080
0.413
0.277
0.045
-0.010
-0.252
-0.189
-0.457
-1.500
-0.570
0.270
0.727
0.597
0.149
-0.111
-0.431
-0.352
-0.158
0.114
0.172
-0.017
-1.289
-0.215
0.879
1.093
0.676
0.224
-0.192
-0.209
-0.571
-0.458
-0.225
0.179
0.304
0.369
0.319
0.344
0.244
0.108
0.114
0.188
-0.001
-0.019
-0.167
-0.080
-0.064
-0.026
-0.062
-0.088
-0.154
0.027
0.021
-0.072
0.013
-0.095
-0.042
-0.055
0.005
-0.071
0.027
-0.096
0.020
-0.029
0.030
-0.115
0.224
0.026
0.223
0.214
-0.504
0.026
-0.201
0.017
0.006
0.565
-0.178
-0.142
0.061
0.179
0.199
-0.180
0.255
0.239
0.245
-0.895
-0.320
0.122
0.376
0.271
0.185
0.169
0.364
-0.243
-0.109
0.271
0.285
0.129
-0.158
-0.109
0.026
0.210
0.130
0.314
-0.146
-0.958
-0.342
0.064
0.257
0.271
-0.037
-0.329
-0.528
-0.187
0.065
-0.001
0.304
0.137
0.040
0.092
0.260
0.077
0.180
0.194
0.214
0.042
0.090
0.047
-0.015
-0.145
0.017
0.068
0.016
-0.060
-0.131
-0.021
-0.032
-0.104
0.041
0.098
-0.048
0.032
0.037
-0.066
0.011
-0.053
0.088
0.061
0.146
-0.205
-0.120
0.008
0.083
0.089
0.176
-0.090
-0.111
-0.017
0.413
0.458
-0.112
-0.707
-0.463
0.636
0.133
-0.357
0.051
0.152
0.711
0.515
0.016
-0.042
-0.159
-0.090
0.001
0.509
0.522
-2.190
-0.320
1.447
0.349
0.655
0.498
-0.889
-0.177
0.307
0.104
-1.585
-0.917
0.250
1.012
1.134
0.710
0.527
0.236
-0.542
-1.070
0.148
-0.239
0.617
0.493
-0.660
-0.363
-0.194
0.184
0.325
0.162
-0.173
0.177
-0.394
-0.390
-0.126
0.030
-0.010
0.225
0.627
0.538
0.267
-0.600
-0.431
0.020
0.108
0.056
0.156
0.068
0.004
0.071
0.061
0.030
-0.032
0.063
0.032
0.061
0.090
0.116
0.010
-0.030
-0.026
-0.063
0.058
-0.078
-0.059
-0.019
0.045
0.040
0.030
-0.156
-0.138
0.005
0.083
0.004
0.061
-0.046
-0.000
0.022
0.045
0.006
0.128
-0.021
-0.010
0.003
-0.027
0.048
0.010
-0.015
0.084
-0.031
-0.062
0.059
0.023
-0.027
0.030
0.138
0.080
0.148
-0.185
0.075
0.071
0.147
0.310
0.236
-0.611
0.064
-0.047
-0.007
0.042
0.166
0.193
0.117
-0.218
-0.192
0.044
0.319
0.059
-0.350
0.031
0.523
0.645
-0.096
-1.096
-0.255
0.436
0.658
0.500
0.235
0.217
0.015
0.029
0.043
-0.015
0.094
0.121
-0.076
-0.068
0.461
0.569
0.228
-1.001
-0.332
0.045
0.274
0.106
-0.069
-0.085
-0.110
-0.131
0.002
0.036
0.029
0.029
0.087
0.155
0.256
0.071
0.079
0.040
0.085
0.052
-0.077
-0.089
0.142
0.124
0.087
0.089
0.151
-0.223
-0.327
0.076
0.496
0.226
-0.065
-0.106
0.048
0.040
0.030
0.160
0.131
0.085
0.142
-0.087
-0.149
0.151
0.117
0.126
-0.056
-0.005
-0.062
0.016
0.024
0.044
-0.047
-0.018
-0.016
0.082
-0.056
0.113
-0.116
-0.067
-0.073
0.081
-0.008
-0.068
-0.048
-0.086
0.110
0.044
-0.032
-0.067
-0.111
0.003
0.007
-0.157
0.012
0.071
0.064
-0.010
0.137
0.147
0.023
-0.143
-0.361
-0.083
0.054
-0.338
-0.772
-0.092
0.548
0.494
0.206
-0.068
-0.165
-0.267
-0.348
-0.268
-0.915
-2.620
-0.825
0.460
1.663
1.766
0.601
0.016
-0.451
-1.591
-0.235
0.593
1.014
1.062
0.699
0.654
0.659
-0.786
0.152
0.488
0.269
0.193
0.062
-0.119
-2.033
-3.903
1.404
3.569
3.892
1.362
-1.624
-3.610
-4.009
-2.132
-0.292
1.027
2.170
2.604
2.291
1.687
1.230
0.916
0.335
-0.206
-0.261
-0.396
-0.448
-0.344
-0.342
-0.220
-0.184
-0.048
0.256
-0.011
-0.016
0.319
0.449
0.541
0.185
-0.087
-0.367
0.405
0.518
-0.135
-0.117
0.410
0.676
0.505
0.257
0.105
0.256
0.344
0.262
0.323
0.320
0.303
0.387
0.359
0.280
0.146
0.503
0.254
-0.037
0.063
0.230
0.371
0.267
0.078
0.113
0.164
0.132
0.071
-0.005
0.132
0.115
0.056
0.069
-0.018
0.051
0.001
-0.038
0.034
-0.095
-0.273
-0.024
0.110
-0.100
-0.109
-0.207
-0.115
0.088
0.013
-0.131
-0.105
-0.188
-0.155
-0.188
-0.097
0.055
0.007
-0.025
-0.065
-0.087
0.147
0.352
0.317
0.203
-0.173
-0.123
-0.053
-0.099
0.136
0.131
0.174
0.095
-0.252
-0.070
0.460
0.237
-0.164
-0.113
-0.153
-0.027
-0.029
0.144
0.135
0.141
-0.021
0.057
0.180
0.068
0.111
0.086
-0.046
-0.071
-0.069
0.092
0.167
0.076
0.014
0.112
0.090
-0.020
0.092
0.092
0.135
0.085
0.053
0.236
0.079
0.082
0.081
0.000
-0.027
-1.582
-2.618
-0.594
2.418
2.167
0.783
0.044
-0.107
-0.545
-0.591
-0.223
0.307
0.823
0.978
0.798
0.719
0.545
0.315
0.118
-0.208
-1.461
-0.561
0.522
0.575
-0.006
-0.353
-0.450
-0.430
-0.396
-0.275
-0.047
0.109
0.355
-2.305
-0.326
1.452
1.432
0.663
-0.221
-3.245
-1.106
2.912
3.012
1.913
0.424
-0.839
-0.639
-0.494
-0.282
-0.034
-0.871
-0.055
1.717
2.643
2.377
1.645
0.810
0.087
-0.482
-0.646
-0.978
-0.747
-0.647
-0.459
-0.394
-0.055
-0.045
0.204
0.205
0.213
0.295
0.356
0.233
0.097
0.216
0.198
0.063
0.177
0.264
0.376
0.355
0.504
0.471
-0.214
0.057
0.400
-0.091
-0.201
0.214
0.599
0.632
0.427
0.039
0.114
0.151
0.096
0.172
0.442
0.206
0.242
0.659
0.886
0.611
0.465
0.481
0.252
-0.128
-0.056
0.307
0.134
-0.180
0.120
0.341
-0.070
-1.566
-0.408
0.434
0.388
0.111
-0.245
-0.451
-0.329
0.040
0.054
-0.127
0.187
0.040
0.034
-0.002
-0.019
0.052
0.056
0.032
-0.127
-0.096
-0.173
-0.076
-0.245
-0.121
0.022
-0.036
-0.076
-0.163
0.025
0.036
-0.038
0.120
0.034
-0.001
0.089
-0.025
0.011
0.019
0.186
0.066
-0.017
0.031
-0.216
-0.091
0.250
0.122
-0.012
-0.097
0.045
-0.108
-0.022
0.079
0.250
0.117
0.022
-0.036
0.072
0.044
0.190
0.182
0.032
0.166
0.036
0.059
0.018
-0.012
-0.029
0.091
0.090
-0.116
-0.023
-0.066
0.150
-0.002
0.074
0.052
-0.069
-0.019
0.021
-0.042
-0.089
-0.040
-0.087
0.156
0.347
0.181
0.090
-0.013
0.075
-0.039
-0.251
-0.078
0.111
0.325
0.210
0.154
0.092
0.036
-0.068
-0.278
-0.101
-0.036
-1.794
-2.510
2.032
3.058
0.237
-1.804
1.047
1.518
0.480
-0.269
-0.434
-0.112
-0.701
0.530
1.352
1.394
1.017
0.810
0.454
0.403
0.085
-0.095
-0.142
-0.426
-0.570
-0.495
-0.857
-0.952
-0.666
0.053
-0.331
-0.327
0.082
0.229
0.119
0.102
0.166
0.226
0.225
0.245
0.388
0.427
0.563
0.490
0.364
0.309
0.312
0.241
0.224
0.165
0.126
0.053
0.026
-0.006
-0.091
0.100
0.030
0.100
0.091
0.161
0.214
0.475
-2.054
-3.560
2.064
3.990
0.826
-2.815
0.415
3.339
2.402
0.496
-0.643
-0.467
0.278
1.301
2.092
2.665
2.904
2.512
2.063
1.222
0.464
-0.107
-0.734
-1.461
-1.598
-2.219
-4.145
0.573
1.089
2.259
1.531
0.589
-0.559
-1.144
-1.124
-0.421
0.481
0.914
1.579
1.849
1.944
-0.475
1.741
2.223
1.465
0.603
-0.129
-0.429
-0.559
-0.522
-0.191
0.231
0.455
0.739
0.761
0.852
0.800
0.641
0.661
0.576
0.529
0.280
0.431
0.490
0.463
0.439
0.383
0.485
0.084
0.052
0.416
0.567
0.438
0.195
0.310
0.571
0.434
0.232
0.097
0.067
0.080
0.063
-0.059
-0.116
-0.025
0.232
0.062
-0.015
-0.136
-0.229
-0.176
0.014
-0.229
-0.190
-0.351
-0.279
-0.133
-0.158
-0.015
-0.152
-0.228
-0.295
-0.158
-0.093
-0.240
-0.134
-0.323
-0.150
-0.215
-0.074
-0.137
-0.196
-0.040
-0.086
-0.175
-0.084
-0.062
-0.086
-0.140
-0.055
-0.052
0.038
-0.212
-0.107
0.061
-0.029
0.109
-0.002
0.060
0.022
0.052
-0.010
-0.112
-0.120
-0.127
-2.087
-3.678
-2.168
1.608
3.625
2.503
0.711
-0.661
-0.994
-0.909
-0.370
0.284
0.998
1.271
1.459
1.231
1.002
0.660
0.474
-0.113
-0.184
-0.323
-2.429
-4.030
0.951
3.445
3.367
1.051
-1.036
-2.133
-2.056
-1.156
-0.299
0.741
1.576
1.946
1.990
1.703
1.330
0.642
0.202
-0.044
-0.461
-0.555
-0.543
-0.546
-0.401
-0.478
-0.140
-0.246
-0.530
-0.069
0.483
0.631
0.350
0.191
0.309
0.470
0.297
-0.195
0.171
0.250
0.317
0.285
-2.152
0.655
1.920
1.649
0.855
0.212
-0.146
-0.146
0.172
0.357
-0.939
-0.881
1.896
2.363
1.590
0.611
-0.105
-1.108
-1.929
-2.056
-2.477
1.056
2.603
-1.062
0.872
3.373
3.338
1.485
-0.390
-1.168
-1.298
-1.099
-0.014
0.491
0.967
1.547
1.277
-1.519
-3.977
0.223
3.033
3.835
3.035
-0.048
-2.550
-3.466
-2.617
-1.384
0.179
1.414
2.281
2.564
2.517
-2.044
0.325
3.238
3.658
1.767
-0.366
-1.629
-2.009
-1.828
-0.921
-0.029
-0.676
0.908
1.943
2.108
1.788
-1.560
0.591
1.261
0.547
1.510
0.701
0.861
0.411
0.079
-0.089
0.020
0.419
0.896
1.249
1.448
1.425
1.308
-0.580
-2.244
1.595
2.885
1.824
0.460
-0.772
-0.743
-0.684
-0.415
-0.055
0.193
0.454
-2.754
0.165
2.526
3.100
1.045
0.114
-0.698
-1.842
-1.185
-0.497
-0.040
0.302
0.418
0.511
0.561
0.421
0.384
0.060
0.018
0.045
0.047
0.025
-0.097
-0.389
-0.244
0.024
-0.111
-0.226
-0.154
-0.092
-0.045
0.000
0.002
0.062
0.127
0.079
0.128
0.118
0.345
0.377
0.407
0.199
0.151
0.059
0.242
0.097
0.012
0.087
0.257
0.428
0.143
0.102
-0.137
-0.163
-0.131
0.005
0.058
-0.055
-0.020
0.058
-0.094
-0.053
0.009
0.049
-0.033
0.061
0.192
0.199
0.016
-0.022
0.074
0.038
0.045
0.069
0.035
0.234
0.079
0.073
0.086
0.059
0.069
0.071
0.090
0.101
-0.042
0.051
0.128
-0.112
0.002
0.227
0.125
-0.017
-0.066
-0.004
0.046
0.131
0.162
-0.155
-0.244
0.325
0.601
0.132
-0.023
0.044
-0.038
-0.080
-0.170
0.114
0.080
0.180
0.007
-0.001
0.046
0.019
-0.002
-0.223
-0.079
-0.016
0.011
0.100
-0.501
-0.921
0.367
0.523
-0.449
-3.284
-0.419
3.173
4.174
3.037
0.178
-1.891
-2.770
-2.056
-0.849
0.525
2.051
2.795
2.854
2.818
2.214
1.836
1.147
0.628
0.194
-0.362
-0.740
-0.985
-1.517
-3.097
-2.140
-1.125
-1.647
-0.616
1.049
1.339
-0.374
-1.403
-0.270
0.207
1.113
1.218
1.214
1.102
1.042
0.992
1.102
0.952
0.668
-1.639
-0.652
1.099
0.937
0.641
0.603
0.479
0.268
0.045
0.009
0.096
0.269
0.277
0.492
1.101
1.300
0.704
0.683
0.622
0.323
0.159
0.068
-0.016
-0.123
-0.098
-0.094
-0.151
-0.227
-0.137
-0.198
-0.078
-0.086
0.037
-0.134
-0.101
-0.097
0.045
-0.031
-0.097
-0.257
-0.059
-0.100
-0.095
-0.181
-0.134
-0.084
-0.116
-0.126
-0.022
-0.546
-3.354
-0.977
2.865
3.166
1.467
-0.046
-0.933
-1.125
-0.897
-0.312
0.102
0.581
0.826
0.947
0.929
0.604
0.532
0.205
0.008
-0.271
-0.354
-0.384
-0.502
-0.336
-0.341
-0.355
-0.080
-0.037
-0.002
-0.088
-0.005
0.144
0.244
0.129
0.021
0.123
0.043
0.088
0.060
-0.076
-0.409
0.040
0.094
-0.213
-0.221
-0.086
-0.757
-3.181
-2.923
1.927
4.085
3.773
1.419
-0.208
-1.322
-1.446
-0.606
0.187
1.079
1.627
2.120
2.246
2.041
1.625
1.128
0.659
0.127
-0.286
-0.601
-0.796
-0.795
-0.880
-0.712
-0.555
-0.642
-0.275
-0.286
-0.160
-0.003
-0.037
-0.117
0.031
0.090
0.068
-0.005
0.188
0.094
0.142
0.075
0.116
0.201
0.166
0.230
0.332
0.322
0.180
0.113
0.311
0.335
0.279
0.139
0.260
0.265
0.465
0.214
0.164
0.422
0.357
0.386
0.484
0.314
0.419
0.148
0.283
0.370
0.255
0.094
0.218
0.124
-0.645
-2.968
-0.721
1.034
1.502
1.158
0.631
-0.325
-0.862
-0.720
-0.382
-0.021
0.302
0.507
0.727
0.626
0.589
0.451
0.196
-0.047
-0.198
-0.324
-0.359
-0.278
-0.400
-0.330
-0.379
-0.239
-0.001
-0.016
-0.035
-0.002
0.105
0.086
-0.026
0.106
-0.039
-1.668
-3.382
-2.325
0.147
1.587
1.544
1.672
0.948
-0.499
-2.212
-1.431
-0.929
0.970
2.375
1.856
0.693
0.788
0.809
0.741
0.675
0.509
-0.113
0.337
0.249
-0.045
-0.297
-0.057
-1.402
-1.357
-0.239
0.541
0.960
0.634
-0.218
-0.815
-0.951
-0.531
0.170
0.336
0.242
0.108
0.009
-0.066
-0.049
-0.576
-0.072
0.243
0.239
0.040
-0.163
0.156
0.105
-0.105
0.056
-0.122
-0.278
-0.016
-0.281
-1.047
-0.429
0.039
0.201
0.106
0.098
-0.127
-0.102
-0.101
-0.150
0.098
0.244
0.340
0.383
0.329
0.469
0.550
0.448
0.536
0.155
0.097
0.243
0.552
0.615
0.246
-0.096
-0.027
0.058
-0.091
-0.097
-0.068
0.054
0.013
0.003
0.053
-0.033
-0.028
-0.102
-0.131
-0.072
-0.209
-0.173
-0.252
-0.250
-0.169
-0.002
-0.105
-0.177
-0.158
-0.082
-0.076
-0.080
-0.021
-0.197
-0.016
0.049
-0.191
-0.091
0.059
0.302
0.460
0.365
0.069
0.025
0.320
0.192
-0.680
-0.610
0.351
0.382
0.049
0.047
-0.065
-0.264
-0.187
-0.084
-0.286
-0.284
-0.013
0.269
0.086
0.106
0.468
0.311
0.121
0.172
0.204
0.180
0.123
0.131
0.259
0.247
0.091
0.156
0.110
-0.042
-0.039
-0.081
0.065
0.114
0.043
-0.018
-0.032
0.027
0.043
0.049
-0.209
-0.043
0.097
0.050
0.008
0.001
-0.076
-0.149
-0.009
0.033
-0.167
-0.142
0.172
0.155
0.063
-0.032
-0.074
0.135
0.006
-0.025
-0.056
0.016
0.019
0.055
-0.100
0.066
0.004
0.028
-0.071
0.163
0.133
-0.147
-0.162
-0.077
-0.082
0.078
-0.141
0.022
0.250
0.445
0.354
-0.017
-0.302
-0.216
-0.124
0.130
0.222
0.179
0.223
0.452
0.283
0.034
0.022
0.035
0.141
-0.028
-0.179
-0.175
0.296
0.152
-0.147
-0.322
-0.331
-0.280
-0.043
0.216
-0.030
-0.196
-0.106
0.059
-0.200
-0.269
-0.366
0.042
0.370
0.371
0.080
-0.088
0.218
0.269
0.241
0.104
0.023
0.180
0.082
0.176
0.283
-0.023
0.248
0.161
0.414
0.372
0.256
0.155
0.013
-0.011
-0.003
-0.014
0.045
-0.025
-0.206
0.129
-0.088
-0.335
-0.260
-0.206
0.269
0.191
0.103
-0.071
-0.021
-0.076
-0.042
0.042
0.188
0.271
0.237
0.357
0.136
0.235
0.112
0.095
0.004
0.069
-0.064
0.042
0.130
0.098
-0.006
-0.030
-0.082
0.053
0.146
0.195
0.050
0.054
0.088
0.013
-0.066
-0.034
-0.069
-0.002
0.133
0.303
0.209
0.253
-1.711
-3.520
-2.515
1.354
2.975
2.202
0.493
-0.828
-1.504
-3.304
-3.434
-0.801
1.645
2.469
2.237
1.532
0.949
0.590
-0.114
-0.143
0.206
0.405
0.740
0.913
0.947
0.897
0.723
0.509
0.074
-0.058
-0.385
-0.576
-0.791
-0.641
-0.690
-0.622
-0.784
-0.797
-0.577
0.091
0.204
-0.021
-0.255
-0.151
-0.028
0.141
0.083
0.021
0.068
0.146
0.296
0.022
-0.009
0.138
0.315
0.190
0.371
0.297
0.174
0.207
0.270
0.262
0.217
0.324
0.292
0.163
0.273
0.213
0.546
0.574
0.135
0.118
0.117
0.099
0.128
0.092
0.154
0.198
0.234
0.173
0.117
0.022
-0.052
0.011
0.155
0.031
-0.055
-0.072
-0.146
-0.096
-0.083
-0.182
0.119
-0.021
-0.145
-0.118
0.055
-0.044
-0.123
0.008
-0.044
-0.196
-0.072
-0.116
-0.511
-1.655
-3.206
-3.908
-0.393
0.337
-2.120
-1.729
-0.143
0.510
0.791
0.529
0.274
0.088
0.344
0.672
1.302
1.981
2.593
2.785
2.325
1.799
1.189
0.692
0.323
-0.113
-0.445
-0.666
-0.692
-0.863
-1.099
-1.011
-0.812
-0.750
-0.746
-0.854
-0.628
-0.211
-0.208
-0.410
-0.156
-0.205
-0.139
0.063
0.010
0.054
0.141
0.229
-0.066
-0.089
0.181
0.397
0.140
-0.097
-0.028
0.255
0.296
0.302
0.441
0.321
0.348
0.327
0.211
0.199
0.215
0.091
0.156
0.216
0.610
0.623
0.486
0.211
0.048
0.383
0.394
0.226
0.416
0.211
0.257
0.308
0.267
0.219
0.339
0.252
0.339
-0.469
-0.358
0.092
0.412
0.058
-0.091
-0.086
-0.162
-0.089
-0.093
-0.184
-0.049
-0.204
-0.098
-0.148
-0.163
-0.139
-0.214
-0.093
-0.035
-0.145
-0.035
0.014
-0.142
-0.184
-0.189
-0.021
-0.084
-0.219
-0.223
-0.056
0.203
0.020
-0.125
-1.059
-3.536
-0.857
3.000
4.145
3.152
0.095
-2.241
-3.325
-3.014
-3.785
0.845
3.630
3.332
2.953
2.716
1.938
-0.069
-0.398
-0.116
0.083
0.052
0.106
-0.133
-0.149
-0.139
-0.279
-0.193
-0.117
-0.001
0.068
0.107
0.133
0.003
0.052
0.083
0.210
0.073
0.015
0.179
0.165
0.110
0.169
0.179
0.170
0.379
0.309
0.296
0.174
0.315
0.272
0.254
0.360
0.245
0.328
0.339
0.306
0.310
0.383
0.239
0.351
0.287
0.176
0.187
0.240
0.302
0.376
0.033
0.110
0.306
0.295
0.105
-0.004
0.066
0.027
0.014
-0.011
0.163
-0.027
-0.141
0.044
-0.020
-0.095
-0.190
-0.003
-0.052
-0.110
-0.002
-0.210
-0.219
-0.020
-0.029
-0.097
-0.066
-0.298
-0.094
-0.106
-0.200
-0.132
-0.237
-0.105
-0.082
-0.108
-0.107
-0.143
-0.148
-0.139
-0.050
0.047
-0.109
-0.127
-0.043
-0.064
-0.088
-0.119
-0.029
-0.124
0.059
0.005
-0.106
-0.083
0.079
0.067
-0.060
0.006
0.021
0.024
-0.056
0.130
0.076
-0.022
0.087
0.087
0.074
0.146
0.042
-0.009
0.039
0.158
0.108
0.091
0.125
0.024
0.095
0.082
0.082
0.149
0.063
0.167
0.101
0.060
0.019
-0.005
0.218
-0.060
0.062
0.097
0.144
-0.038
0.039
0.107
-0.014
-0.003
-0.067
-0.004
0.051
0.122
0.078
0.154
-0.007
0.113
0.354
0.288
0.121
0.083
0.040
0.043
0.209
0.145
0.212
0.113
0.171
0.021
0.060
-0.075
-0.290
-0.426
-0.519
-0.356
-0.339
-1.287
-2.338
0.039
1.250
1.079
0.473
-0.038
-0.215
-0.014
-0.430
-0.442
-0.128
0.575
0.897
0.857
0.825
0.911
0.715
0.426
-0.115
-0.197
-0.315
-0.264
-0.168
-0.103
-0.087
0.002
0.061
-0.105
-0.000
-0.071
-0.135
-0.247
-0.228
-0.025
-0.143
-0.052
-0.077
-0.027
-0.101
-0.004
-0.007
-0.009
0.030
0.175
-0.122
-0.078
-0.148
0.369
0.382
-0.015
-0.008
0.245
0.033
0.151
0.005
0.101
0.196
0.195
0.223
0.217
0.048
0.233
-0.051
-0.332
-0.146
0.394
0.418
0.218
-0.153
-0.135
0.109
0.241
-0.008
-0.184
-2.193
-2.997
2.030
3.040
-1.895
-2.124
-0.247
0.759
0.576
0.157
0.002
-0.043
0.359
0.770
0.865
1.010
0.999
1.016
1.052
1.071
0.902
0.335
0.043
-0.217
-0.671
-0.688
-0.753
-0.855
-0.692
-0.551
-0.455
-0.216
-0.122
-0.193
-0.112
-0.060
-0.029
-0.055
0.039
0.065
0.019
0.047
-0.012
-0.029
0.065
-0.020
0.065
0.164
0.195
0.183
0.110
0.304
0.113
0.110
0.346
0.245
0.094
0.209
0.196
0.302
0.314
0.202
0.284
0.175
0.070
0.267
0.145
0.235
0.257
0.197
0.272
-0.090
0.077
0.187
0.434
0.449
0.409
0.347
0.177
0.160
0.201
0.079
0.139
-0.816
-0.326
0.499
0.682
0.230
0.050
-0.178
-0.348
-0.387
-0.150
-0.109
-0.054
-0.018
-0.057
-0.133
0.157
0.091
0.067
-0.080
-0.013
-0.003
-0.081
-0.172
-0.131
0.031
-0.076
-0.130
0.064
0.122
0.137
-0.106
-0.073
0.067
0.064
0.146
0.129
0.129
-0.069
-0.161
-0.045
-0.167
-0.104
-0.144
-0.149
-0.465
-0.059
0.040
0.117
0.194
-0.126
-0.055
-0.026
-0.308
-0.170
-1.573
-0.579
1.360
0.345
1.030
0.999
0.531
-0.972
-0.238
-1.143
0.167
1.074
-2.161
-1.626
1.709
2.576
1.750
0.575
-0.460
-1.018
-1.019
-0.633
-0.112
0.165
0.754
1.110
1.145
0.490
0.089
0.022
0.005
0.174
0.512
0.322
-0.123
-0.424
-0.492
-0.541
-0.533
-1.084
-1.017
-0.335
0.026
-0.228
0.007
0.147
0.038
0.117
-0.072
0.053
0.121
0.131
0.228
0.474
0.628
0.675
0.759
0.565
0.496
0.527
0.391
0.479
0.297
0.178
0.171
0.035
0.078
0.110
0.229
0.359
0.128
-0.076
0.051
0.135
-0.156
0.124
0.115
0.071
0.138
-0.024
0.063
0.040
-0.067
0.017
-0.257
-0.169
-0.117
-0.041
-0.036
-0.107
0.022
-0.001
-0.042
-0.219
-0.107
0.071
-0.129
-0.148
-0.170
-0.105
0.001
-0.039
-0.021
-0.155
-0.163
0.059
-0.009
-0.115
-0.053
-0.020
-0.055
0.093
-0.053
0.058
-0.025
-0.009
0.045
-0.059
0.138
-0.069
0.038
0.179
0.180
-0.116
-0.142
0.015
0.075
0.066
0.036
0.001
0.011
0.047
0.077
-0.047
0.260
0.405
0.016
-0.271
-0.250
0.143
0.376
0.267
0.246
0.278
0.057
-0.197
0.105
0.402
0.195
0.031
0.041
-0.079
-0.161
-0.012
-0.006
-0.032
-0.071
0.111
0.002
-0.053
-0.101
-0.106
-0.114
-0.005
-0.012
-0.055
-0.050
0.029
0.054
0.085
0.064
0.206
-0.030
-0.044
0.171
0.013
-0.036
0.086
0.063
0.088
0.129
0.154
0.120
0.074
0.003
0.128
0.147
0.124
0.192
-0.163
-0.165
-0.246
-0.015
0.379
0.334
0.309
-0.032
-0.130
-0.086
0.012
0.022
0.043
0.044
0.023
0.012
-0.005
0.124
0.173
0.037
-0.038
-0.128
-0.170
-0.241
-0.198
-0.094
0.265
0.301
0.006
0.054
-0.180
-0.281
0.081
-0.127
-0.041
0.049
0.019
-0.037
-0.224
-0.075
-0.199
-0.116
-0.160
0.059
-0.374
-0.372
-2.286
0.051
0.935
0.958
0.419
-0.105
-2.201
-0.261
1.025
0.818
0.049
-2.156
-2.718
-0.751
1.237
2.085
1.706
0.930
-0.169
-0.347
-0.404
-0.194
0.108
0.570
0.744
0.834
0.808
0.786
0.473
0.062
-0.065
-0.307
-0.375
-0.129
-0.063
-0.155
-0.387
-0.347
-0.538
-0.309
-0.264
-0.157
-0.097
-0.036
0.029
0.095
0.141
-0.005
-0.033
0.057
0.164
-0.045
-0.023
0.181
0.051
0.037
0.231
0.030
-0.006
0.148
0.101
0.187
0.068
0.140
0.218
0.216
0.179
0.106
0.053
0.131
0.272
0.219
0.147
0.121
0.235
0.275
0.143
0.172
0.022
0.099
0.175
0.051
0.137
-0.073
-0.134
0.188
0.197
0.129
0.142
0.009
0.137
0.104
0.209
0.080
-0.486
-0.502
-0.140
0.100
0.182
0.184
0.167
0.009
-0.130
-0.092
-0.217
-0.361
-0.163
0.030
0.102
0.219
-0.093
-0.317
0.067
0.194
0.220
-0.179
-0.032
-0.178
-0.118
0.048
0.114
-0.106
-0.056
0.081
-0.030
0.036
-0.054
-0.050
-0.028
-0.009
0.048
0.107
-0.003
-0.060
-0.032
-0.055
0.095
0.004
0.106
0.069
0.028
-0.001
0.065
0.067
0.096
0.018
-0.113
-0.038
0.066
0.066
0.116
-0.021
0.046
-0.202
0.002
0.104
-0.020
0.166
0.012
0.164
0.206
0.101
-0.074
-0.027
0.017
0.097
-0.009
0.084
0.045
0.061
-0.005
-0.247
-0.296
-0.051
0.009
0.001
-0.009
-0.010
-0.065
-0.097
-0.012
-0.051
-0.024
0.209
0.208
-0.031
-0.061
0.149
0.213
0.185
0.084
0.046
-0.091
-0.061
0.176
0.190
0.041
0.162
-0.028
-0.084
0.029
0.058
0.032
0.075
0.037
0.025
-0.012
-0.259
-0.106
0.323
0.322
-0.005
-0.305
-0.160
0.361
0.251
0.064
-0.074
-0.098
-0.161
-0.024
-0.000
0.037
0.095
0.081
-0.163
0.077
-0.067
-0.096
-0.165
-0.169
-0.064
0.210
0.060
0.013
-0.031
-0.146
0.029
0.062
0.090
-0.006
0.043
0.061
-0.010
-0.170
0.029
0.130
-0.026
0.043
-0.062
-0.079
0.065
0.023
0.005
0.140
0.174
-0.025
0.117
0.078
0.129
0.151
-0.030
0.069
0.070
0.034
0.092
-0.029
0.077
0.066
0.049
0.026
-0.019
-0.058
0.050
0.015
0.046
0.012
0.034
-0.038
-0.004
0.111
0.056
0.008
0.023
-0.059
0.087
0.147
-0.008
-0.003
-0.031
0.000
0.103
0.011
-0.054
0.227
0.052
-0.024
0.017
-0.039
0.018
0.077
0.112
0.057
0.059
-0.064
-0.185
0.030
0.095
0.074
0.137
0.218
0.247
0.201
-0.033
-0.295
-0.314
-0.285
0.412
0.593
0.526
0.229
-0.225
-0.367
-0.730
-0.406
-0.055
0.451
0.600
0.330
0.049
-0.069
-0.514
-0.610
-0.377
-0.263
-0.064
0.410
0.343
0.174
-0.042
-0.026
-0.072
0.048
-0.045
-0.034
0.092
0.186
0.279
0.207
-0.041
0.136
0.019
0.198
0.029
0.056
-0.011
-0.040
-0.015
-0.119
-0.093
-0.110
0.111
0.057
-0.035
-0.054
-0.029
0.103
0.135
-0.068
-0.077
0.048
-0.168
0.073
0.068
0.080
-0.079
0.050
-0.045
0.023
0.086
0.066
0.019
-0.057
-0.036
0.128
0.106
-0.271
-0.030
0.213
0.132
-0.032
0.027
0.003
-0.125
0.094
0.153
-0.004
0.076
0.085
-0.091
-0.028
0.016
0.041
0.076
0.054
0.046
0.018
-0.102
0.042
0.113
0.053
0.017
-0.089
-0.078
-0.010
0.147
0.097
0.101
-0.123
0.035
0.046
-0.070
0.091
0.041
0.142
0.115
-0.077
-0.235
-0.027
0.122
0.174
0.140
-0.072
-0.019
0.019
-0.083
0.017
0.069
0.131
0.010
-0.182
-0.003
0.053
0.040
0.318
0.098
-0.123
-0.080
0.016
0.073
-0.014
0.045
0.064
0.072
0.137
-0.057
0.037
0.059
0.074
0.184
0.248
0.093
0.131
0.061
0.061
-0.019
0.077
-0.002
0.101
0.036
-0.039
-0.235
-0.033
0.008
-0.194
-0.157
-2.198
-1.335
0.870
1.335
1.214
0.496
-0.024
-0.245
-0.049
0.009
0.285
0.684
0.470
0.094
0.377
0.613
0.502
0.097
-0.100
-0.169
-0.369
-0.240
-0.224
-0.064
-0.211
-0.231
-0.178
-0.117
-0.143
-0.179
-0.195
-0.212
0.092
0.329
0.137
0.057
0.011
0.080
0.129
0.059
0.042
0.073
0.154
0.163
0.156
0.366
0.493
0.083
0.066
-0.075
-0.062
-0.145
-0.072
-0.185
-0.321
-0.203
-0.457
-1.424
-3.389
-1.861
2.304
3.515
2.231
0.443
-0.779
-1.388
-1.062
-0.545
0.287
0.827
1.434
1.542
1.637
1.325
1.014
0.738
0.339
-0.041
-0.355
-0.504
-0.617
-0.581
-0.544
-0.582
-0.413
-0.275
-0.351
-0.153
0.005
0.010
-0.019
-0.069
0.068
0.031
0.131
0.122
0.048
0.017
0.017
0.076
0.086
0.142
0.204
0.137
0.130
0.104
0.259
0.172
0.276
0.183
0.254
0.212
0.216
0.248
0.102
0.152
0.193
0.278
0.257
0.226
0.207
0.131
0.071
0.059
0.188
0.083
0.144
0.184
0.056
-0.032
0.203
0.031
-0.059
-0.124
-0.142
-0.012
0.197
0.092
-0.017
-0.100
-0.064
0.049
-0.049
0.089
0.015
-0.139
0.002
-0.126
-0.063
-0.065
-0.067
-0.112
-0.004
-0.038
-0.040
-0.002
0.189
0.331
0.247
0.102
-0.041
-0.045
0.047
0.069
0.096
0.156
0.016
-0.056
-0.050
0.143
0.108
-0.053
-0.182
-0.057
-0.146
-0.073
-0.076
-0.084
0.041
0.111
0.084
-0.105
-0.196
-0.001
0.273
0.284
0.238
-0.320
-0.291
-0.148
-3.078
-1.392
0.997
1.946
1.917
0.868
-0.125
-0.505
-0.010
-0.391
-0.192
0.201
1.017
1.223
1.323
0.999
0.706
0.079
-0.000
-0.128
0.102
-0.244
-0.455
-0.626
-0.662
-0.586
-0.427
-0.504
-0.173
0.035
0.093
0.114
0.197
0.186
0.100
0.240
0.192
0.212
0.089
0.098
-0.036
0.050
-0.040
-0.113
0.096
0.149
-0.143
-0.140
0.216
0.219
0.220
0.302
0.314
0.115
0.170
-0.071
-0.738
-0.869
0.138
0.658
0.775
0.369
0.040
-0.057
-0.127
-0.246
0.090
0.141
0.218
0.582
0.656
0.470
-0.536
-1.079
-0.156
0.683
1.029
-0.081
-0.548
-0.170
0.361
0.277
0.075
-0.117
-0.209
-0.039
-0.389
-0.309
0.431
0.119
0.171
0.160
0.133
0.131
0.222
0.077
-0.024
-0.257
-0.089
-0.034
-0.011
0.106
0.109
0.033
-0.046
0.046
0.129
-0.047
-0.227
-0.036
-0.101
0.030
-0.089
-0.124
-0.010
0.083
-0.067
-0.191
-0.400
0.121
0.273
0.086
-0.054
-0.238
-0.096
0.110
-0.106
-0.103
-0.209
0.187
0.239
-0.013
-0.036
0.160
0.115
0.221
0.406
0.288
0.189
0.288
0.255
0.385
0.138
-0.054
-0.124
-0.019
0.056
0.094
0.055
-0.101
-0.122
-0.093
-0.034
-0.086
-0.164
-0.292
-0.236
-0.075
-0.091
0.102
0.065
-0.177
-0.111
-0.163
0.181
0.169
-2.789
-1.309
1.103
1.502
1.094
0.297
-0.319
-0.732
-0.434
-0.181
0.071
0.295
0.595
0.718
0.927
1.010
0.397
-0.073
0.099
0.280
0.247
-0.184
-0.297
-0.287
-0.220
0.049
-0.010
0.047
0.016
-0.197
-1.036
-0.726
0.028
0.247
0.359
0.269
0.127
-0.132
-0.054
0.122
0.145
0.188
0.150
0.246
0.397
0.336
0.111
0.326
0.370
0.307
0.042
0.153
0.008
0.043
0.195
-0.062
-0.115
0.103
0.092
0.016
0.085
0.138
0.128
-0.055
-0.022
0.024
-0.088
0.097
-0.012
-0.103
0.098
0.072
0.021
-0.091
-0.079
-0.181
-0.035
0.166
0.222
0.429
0.245
0.078
-0.133
-0.303
-0.438
-0.475
-0.632
0.336
0.561
-0.050
-0.098
0.017
0.017
-0.166
-0.268
-0.145
-0.135
0.150
0.256
0.161
0.149
0.124
0.230
0.182
0.170
0.054
0.120
-0.010
-0.065
0.069
0.048
-0.036
0.027
0.060
-0.069
0.012
-0.074
0.101
0.029
0.094
0.052
-0.074
-0.028
0.081
0.132
0.026
0.144
-0.102
-0.038
-0.060
0.056
0.086
-0.055
0.024
-0.013
0.086
-0.001
0.030
0.003
-0.062
0.171
0.027
0.076
-0.141
0.070
0.013
0.023
-0.009
0.003
-0.000
0.021
0.136
-0.022
0.090
-0.003
0.015
0.066
0.286
0.423
0.036
0.126
0.203
0.191
0.307
0.292
0.206
0.052
0.014
0.103
0.190
0.061
0.034
0.021
0.095
-0.031
-0.063
-0.194
-0.186
0.009
-0.031
-0.049
0.153
-0.117
-0.062
-0.219
-0.409
0.115
0.404
0.285
0.068
-0.013
-0.181
-0.001
-0.094
-0.021
0.074
0.158
0.130
0.087
-0.026
0.033
-0.064
-0.050
0.102
0.017
0.157
0.217
-0.143
0.118
0.157
-0.070
-0.218
0.008
0.010
0.129
0.114
0.036
-0.011
-0.019
0.046
0.036
-0.299
0.109
0.284
0.144
-0.121
-0.107
-0.500
-1.036
-0.973
-1.388
-1.766
-2.594
-1.460
1.399
2.351
1.479
0.423
-0.185
-0.450
-0.435
0.028
0.495
1.178
1.470
1.364
1.101
1.116
0.945
0.625
0.130
-0.344
-0.743
-0.629
-0.842
-0.667
-0.637
-0.610
-0.499
-0.293
-0.270
-0.076
-0.092
0.073
-0.142
-0.137
-0.124
-0.038
-0.073
-0.001
0.026
-0.095
-0.106
0.085
0.249
0.196
0.090
0.059
0.072
0.014
-0.168
-0.058
0.346
0.442
0.339
0.314
0.084
-0.074
0.062
0.230
0.112
0.139
0.229
0.262
0.332
0.091
0.048
0.008
0.029
0.009
0.115
0.095
0.287
0.022
-1.170
-3.472
-2.340
1.347
2.768
2.172
0.723
-0.214
-0.887
-0.953
-0.637
0.026
0.767
1.322
1.695
1.465
1.249
0.990
0.553
0.178
0.138
-0.152
-0.111
-0.247
-0.455
-0.465
-0.515
-0.560
-0.545
-0.443
-0.387
-0.310
-0.147
-0.272
-0.144
-0.167
0.075
0.045
-0.060
-0.194
0.044
0.205
0.244
0.048
-0.008
0.077
0.222
0.259
0.249
0.331
0.231
0.278
0.298
-0.054
0.269
0.609
0.569
0.411
0.431
0.227
-0.035
0.104
0.167
0.141
-0.054
-0.284
-0.355
-0.070
0.076
-0.060
0.199
0.341
0.394
0.238
-0.021
-0.088
0.085
-0.212
-0.059
0.311
0.590
0.609
0.056
0.230
-0.002
0.006
-0.245
-0.161
-0.234
-0.406
-0.242
-0.243
-0.249
-0.238
-0.132
-0.103
-0.097
-0.197
-0.720
-2.938
-2.001
2.262
3.036
1.550
0.041
-0.527
-0.811
-0.639
-0.568
-3.336
-2.543
2.344
4.039
3.870
1.700
-0.610
-1.660
-1.586
-0.890
-0.238
0.698
1.193
1.553
1.476
1.474
1.335
1.010
0.518
0.302
-0.059
-0.279
-0.554
-0.671
-0.673
-0.551
-0.244
-0.337
-0.191
-0.171
-0.012
0.041
0.204
0.233
0.200
0.214
0.102
0.272
0.132
0.109
0.154
0.155
0.252
0.308
0.141
0.322
0.180
0.286
0.218
0.346
0.463
0.308
0.207
0.321
0.388
0.349
0.162
0.322
0.288
0.184
0.164
0.150
0.277
0.191
0.043
0.187
0.149
0.222
0.075
0.080
0.183
0.056
-0.011
0.111
0.032
0.388
0.476
0.205
0.067
0.048
-0.152
0.023
0.189
0.201
0.063
-0.135
-0.156
0.096
0.126
-0.096
-0.145
-0.232
-0.380
-0.188
-0.253
-0.111
-0.180
-0.205
-0.003
-0.027
-0.193
-0.235
-0.091
0.166
0.193
0.192
-0.130
-0.121
-0.041
-0.053
-0.055
0.124
-0.045
-0.008
-0.141
-0.134
-0.257
0.240
0.325
0.306
0.071
0.036
-0.103
0.168
0.074
0.135
0.119
0.181
0.247
0.306
0.129
0.023
0.196
0.147
-0.148
-0.182
-0.729
-0.034
0.290
0.197
0.139
0.038
-0.007
-0.023
-0.579
-1.187
-0.091
0.689
0.521
0.250
0.140
0.111
0.051
-0.179
-0.234
-0.112
0.055
0.181
0.108
0.032
-0.131
0.010
0.062
0.077
-0.028
-0.142
-0.049
-0.075
-0.115
0.007
0.144
0.037
-0.016
-0.036
0.086
-0.022
0.114
0.153
0.256
0.099
-0.011
0.061
0.034
-0.217
0.054
0.241
0.148
-0.093
-0.072
-0.080
-0.100
0.136
-0.100
-0.041
0.038
0.070
0.018
0.123
-0.010
0.007
-0.155
-0.084
0.026
0.013
-0.080
-0.083
0.061
0.052
0.023
-0.018
0.071
0.120
0.129
-0.053
0.108
-0.019
0.028
0.087
0.107
0.088
0.138
0.182
-0.253
-0.251
0.198
0.492
0.446
0.011
-0.118
-0.084
-0.045
0.044
0.050
-0.074
0.035
0.087
0.139
0.147
0.172
-0.020
0.117
0.110
0.026
-0.072
0.056
0.155
-0.078
0.181
0.111
-0.134
-0.108
0.242
0.239
0.067
-0.027
-0.178
0.205
0.209
0.117
0.089
0.079
-0.153
-0.042
0.187
0.171
0.046
0.028
0.071
0.149
-0.066
-0.037
0.016
-0.074
-0.048
-0.033
0.103
-0.008
-0.242
-0.122
0.132
0.120
-0.037
-0.006
0.039
0.018
-0.024
-0.133
0.020
-0.141
0.016
0.123
0.006
0.087
0.055
0.046
-0.123
-0.094
0.002
-0.017
-0.063
0.077
0.133
0.007
-0.403
-0.246
0.261
0.377
0.028
-0.155
-0.092
-0.052
0.137
0.023
0.029
0.038
-0.049
-0.046
0.123
0.119
0.096
0.090
0.055
-0.151
-0.187
-0.572
-1.224
-0.992
0.600
1.208
0.605
0.150
-0.263
0.113
-0.100
-0.056
0.177
0.238
0.325
0.374
0.311
0.516
0.271
0.134
0.102
-0.037
-0.064
-0.083
-0.328
-0.146
-0.003
-0.224
-0.381
-0.156
0.118
0.182
-0.044
-0.152
-0.390
-0.212
-3.212
-0.825
3.046
4.180
3.187
-0.347
-2.662
-3.182
-2.403
-0.945
0.871
2.134
2.891
3.185
2.923
2.403
1.798
0.882
0.047
-0.345
-0.921
-1.183
-1.206
-1.177
-1.048
-0.931
-0.644
-0.649
-0.229
0.016
0.068
0.051
0.241
0.220
0.358
0.140
0.231
0.096
0.229
0.365
0.397
-0.027
0.090
0.410
0.738
0.691
0.460
0.450
0.228
0.112
0.157
0.306
-2.701
0.465
1.380
2.578
4.102
3.643
0.131
-1.662
-1.219
-1.596
-1.713
-0.519
1.258
2.830
3.875
4.109
4.076
3.510
2.188
0.760
-0.329
-0.994
-1.262
-1.307
-1.394
-3.085
-4.448
-1.707
1.803
2.466
1.664
-0.597
-1.185
-1.339
-0.905
-0.386
0.314
0.691
1.043
1.491
1.478
1.334
1.215
1.061
0.921
0.562
0.480
0.385
0.281
0.098
0.169
0.384
0.330
0.436
0.475
0.364
0.495
0.611
0.569
0.529
0.442
0.461
0.722
0.893
0.896
0.507
-0.288
-1.494
-0.130
0.677
0.871
0.568
0.395
0.005
-0.346
-0.058
0.306
0.430
0.161
-0.123
0.047
0.249
0.282
0.322
0.421
0.108
-0.022
-0.191
-0.303
-0.561
-0.774
-0.338
-0.188
-0.154
0.070
-0.464
-0.760
-0.552
-0.044
0.011
-0.173
-0.054
-0.001
-0.012
0.125
0.191
0.046
0.107
0.183
-0.086
-0.191
0.036
0.051
0.159
-0.111
-0.144
-0.020
-0.007
0.138
0.199
0.034
0.047
0.076
0.147
0.105
0.142
0.093
-0.004
0.104
0.134
0.078
0.034
0.036
0.144
0.095
0.162
-0.022
0.012
0.077
0.103
0.017
0.197
0.050
0.003
-0.063
0.009
0.034
-0.078
0.075
0.128
-0.012
-0.096
-0.079
0.091
0.158
-0.309
-0.146
0.133
0.102
0.112
0.083
-0.116
-0.092
0.021
0.014
-0.065
-0.054
-0.000
0.119
0.039
-0.038
-0.051
-0.070
0.139
0.237
0.036
0.000
-0.006
0.056
0.058
0.182
-0.014
0.091
-0.047
0.224
-0.036
0.084
0.146
0.010
0.048
-0.056
0.004
0.132
0.040
0.099
0.081
0.157
-0.329
-0.300
-0.025
0.228
0.256
0.057
-0.028
0.021
-0.094
-0.035
0.014
0.072
-0.004
0.004
0.018
0.073
0.016
-0.180
-0.032
0.067
0.219
-0.176
-0.124
-0.073
-0.032
-0.055
0.005
-0.218
-0.015
0.138
-0.022
0.047
-0.001
-0.269
-0.223
-0.319
-0.181
0.043
0.202
-0.322
-0.445
-0.214
-1.319
-0.467
1.290
1.214
0.654
0.025
-0.237
-0.103
0.128
0.067
0.587
0.474
0.215
0.249
0.309
0.395
0.326
0.071
-0.034
-0.243
-0.156
-0.118
-0.181
-0.218
-0.059
-0.095
-0.054
0.181
0.030
-0.055
0.011
0.150
-0.084
-0.067
0.154
0.050
-0.030
0.061
-0.014
0.044
0.051
0.087
0.064
0.032
0.125
0.183
-0.303
-0.148
0.273
0.398
0.108
-0.035
-0.008
0.012
0.041
0.084
0.082
0.116
0.124
0.060
0.085
-0.168
-0.103
0.052
0.132
0.126
0.061
-0.083
-0.106
-0.059
-0.026
0.130
0.031
-0.179
-0.149
-0.277
0.115
0.386
0.011
-0.048
0.024
-0.150
-0.226
-0.023
-0.052
0.070
0.036
0.190
-0.018
-0.008
0.015
-0.124
-0.080
-0.053
0.018
-0.065
-0.019
0.135
0.119
0.033
-0.060
0.048
0.078
-0.002
-0.058
0.025
-0.006
0.037
0.107
0.015
-0.025
0.006
-0.009
-0.057
0.011
0.179
0.003
-0.088
-0.069
0.099
0.165
0.062
0.083
0.032
-0.006
-0.128
0.064
0.004
0.078
0.045
0.009
-0.031
0.113
0.026
-0.216
0.029
0.100
0.076
0.072
-0.392
-0.374
0.128
0.320
0.212
-0.114
0.061
-0.184
-0.029
-0.101
0.245
0.241
0.100
0.070
-0.025
-0.110
-0.044
0.032
0.091
0.094
0.023
0.014
0.033
-0.030
-0.012
-0.028
-0.027
-0.027
0.123
0.017
-0.038
0.016
0.065
0.062
-0.128
0.046
0.066
0.149
0.090
-0.050
-0.102
-0.006
-0.022
0.031
0.025
-0.067
-0.080
0.095
-0.009
0.090
-0.057
-0.079
-0.038
0.081
0.013
0.101
0.035
0.010
0.058
0.063
-0.008
0.001
0.168
0.117
-0.010
-0.054
0.026
0.189
0.050
-0.195
-0.143
0.066
0.118
0.033
0.081
-0.019
-0.094
0.078
0.128
0.078
0.136
0.081
0.003
0.081
0.103
-0.142
-0.117
-0.130
0.082
0.180
0.012
-0.213
0.053
0.274
0.081
-0.040
0.064
-0.027
-0.006
-0.008
-0.027
0.147
0.023
0.212
-0.052
-0.462
-0.122
0.242
0.335
0.176
-0.206
-0.066
-0.043
-0.150
0.092
0.029
0.081
0.109
0.186
0.093
0.052
0.122
0.176
0.047
-0.108
-0.045
-0.073
0.134
0.145
0.044
0.078
-0.023
0.068
-0.029
-1.326
-1.472
1.246
1.766
1.217
0.331
-0.250
-0.590
-0.460
-0.277
0.055
0.162
0.362
-0.375
0.502
0.695
0.479
0.318
0.138
-0.094
-0.427
-0.193
-0.197
0.021
-0.112
-0.123
-0.064
0.081
0.133
0.084
-0.029
-0.013
0.038
0.010
-0.042
0.038
0.008
0.087
-0.113
-0.227
-0.127
0.224
0.305
0.149
0.170
-0.037
-0.224
0.034
0.070
0.184
0.079
0.231
0.248
-0.031
-0.014
0.065
-0.002
-0.068
-0.189
-0.040
0.003
-0.033
0.121
0.262
0.330
-0.701
-0.027
0.309
0.333
0.194
0.086
0.039
0.131
0.004
0.154
0.179
0.001
0.127
0.077
-0.070
0.016
0.044
-0.204
-0.252
-0.257
0.051
-0.130
0.111
-0.132
0.016
-0.097
-0.020
-0.122
-0.129
-0.036
-0.097
0.022
-0.085
-0.114
-0.162
-0.073
0.079
-0.099
-0.203
-0.001
0.076
-0.036
0.083
0.077
-0.275
-0.282
0.051
0.275
0.348
0.098
-0.032
-0.043
0.007
0.070
0.179
-0.006
-0.097
-0.243
0.377
0.628
0.280
0.121
-0.028
-0.133
-0.142
0.046
0.138
0.186
0.021
0.042
-0.274
-2.818
-1.224
0.512
-2.272
0.945
0.821
0.202
0.547
0.101
0.037
-0.016
-0.627
-0.783
0.194
1.026
1.200
0.965
0.149
-0.033
0.416
0.433
-0.137
-0.554
-0.523
-0.523
-0.748
-0.659
-0.544
-0.540
-0.151
0.046
0.408
0.281
0.076
0.227
0.327
0.311
0.257
0.124
0.110
-0.069
-0.067
0.083
0.024
-0.012
-0.183
-0.161
0.005
0.502
0.662
-0.292
-2.871
-4.034
-4.102
-1.651
1.665
3.958
3.967
1.453
-0.450
-1.721
-1.468
-0.075
1.341
2.166
2.670
2.744
2.562
2.001
1.423
0.553
-0.145
-0.586
-1.049
-1.204
-1.221
-1.200
-1.061
-0.911
-0.631
-0.452
-0.227
-0.086
0.042
0.296
0.238
0.130
0.130
0.099
0.026
0.118
0.073
0.102
0.094
0.375
0.370
0.278
0.242
0.117
0.182
0.216
0.255
0.455
0.453
0.434
0.406
0.279
0.342
0.356
0.197
0.299
0.234
0.247
-0.635
-3.092
-3.886
-4.031
0.594
3.790
4.649
4.062
-0.803
-3.401
-4.097
-3.712
-1.113
2.319
4.097
4.504
4.485
4.299
4.095
3.833
2.923
1.367
-0.282
-1.384
-2.115
-2.668
-2.714
-2.472
-2.145
-1.809
-1.214
-0.783
-0.385
-0.105
-0.022
0.099
0.154
0.107
0.156
0.066
0.134
0.096
0.202
0.140
0.029
0.214
0.223
0.356
0.324
0.342
0.485
0.600
0.572
0.486
0.627
0.607
0.583
0.619
0.486
0.798
0.568
0.501
0.523
0.546
0.432
0.477
0.478
0.434
0.439
0.285
0.344
0.328
0.276
0.210
0.149
0.260
0.087
0.077
-0.039
0.052
0.053
-0.008
-0.166
-0.140
0.026
-0.049
-0.127
-0.160
-0.106
-0.237
-0.112
-0.247
-0.285
-0.168
-0.143
-0.066
-0.255
-0.298
-0.195
-0.168
-0.112
-0.170
-0.235
-0.307
-0.154
-0.136
-0.246
-0.087
-0.114
-0.121
-0.049
-0.035
-0.001
0.550
0.610
0.292
0.032
0.044
0.106
0.107
0.276
0.125
0.155
0.167
0.182
0.112
-0.118
0.051
-0.097
-0.124
-0.133
-0.022
-1.857
-2.707
1.870
3.270
2.239
0.753
-0.310
-0.800
-0.796
-0.442
0.041
0.362
0.739
1.149
0.576
-2.758
0.491
2.549
2.158
0.947
-0.285
-0.923
-0.954
-0.536
-0.720
-0.287
0.572
1.025
0.814
0.847
0.919
0.975
0.806
0.556
0.090
-0.146
-0.089
-0.213
-0.328
-0.303
-0.215
-0.103
-0.203
-0.041
-0.155
-2.961
-0.786
1.898
2.967
2.746
0.950
-0.777
-0.872
-0.586
-0.260
0.284
0.921
1.510
1.450
1.346
1.238
0.934
0.626
0.347
0.233
-0.030
-0.213
-0.356
-2.453
-0.389
0.903
1.636
0.795
-0.700
-1.051
-0.827
-0.457
-0.296
-0.307
-0.011
0.738
1.486
1.227
-0.504
-2.335
0.416
1.948
1.577
0.259
-0.352
-0.430
-0.355
-0.180
-0.000
0.191
0.271
0.118
0.410
0.447
0.346
0.440
0.272
0.068
-0.032
-0.189
-0.246
-0.191
-0.186
-0.170
-0.291
-0.129
-0.181
0.165
0.385
0.478
0.304
0.044
-1.237
-0.601
0.310
0.632
0.671
0.301
0.040
0.103
0.108
0.207
0.014
-0.115
-0.059
0.128
0.162
0.484
0.402
0.078
0.246
-0.029
-0.125
-0.035
-0.099
0.050
0.058
0.079
0.010
0.114
0.150
0.068
-0.071
0.198
0.134
0.124
0.144
0.129
0.229
0.039
0.031
0.065
0.088
0.109
-0.015
0.012
0.038
-0.142
0.061
0.014
-0.055
-0.090
-0.137
0.011
-0.058
-0.089
-0.222
0.020
-0.162
-0.048
0.076
-0.055
-0.014
-0.034
-0.091
-0.117
0.015
-0.008
-0.008
-0.006
-0.106
-0.126
-0.028
0.122
-0.010
-0.132
0.045
0.045
-0.060
0.068
-0.088
0.057
-0.032
-0.065
0.186
-0.000
-0.000
0.177
0.072
0.029
0.072
-0.052
0.084
0.092
0.047
0.103
0.093
0.091
-0.010
-0.157
0.094
0.098
0.072
0.042
0.118
0.080
0.152
0.081
0.054
-0.003
0.183
-0.032
-0.162
0.068
0.254
0.179
-0.011
-0.083
-0.016
-0.026
0.104
0.045
0.059
0.091
-0.110
0.168
0.003
-0.048
0.059
0.049
0.040
-0.079
0.012
-0.108
0.059
0.041
0.128
-0.137
-0.059
0.058
-0.017
0.113
0.063
-0.010
-0.092
-0.043
0.110
0.016
0.079
-0.023
-0.007
0.090
-0.091
0.055
0.096
0.096
-0.090
0.001
0.154
0.052
-0.145
0.057
-0.048
0.063
0.006
-0.054
0.146
-0.036
0.043
-0.012
0.025
0.058
-0.011
-0.072
-0.063
0.023
0.192
0.127
-0.098
0.023
-0.117
-0.063
0.040
0.165
0.090
-0.022
-0.142
0.015
0.068
0.133
-0.139
-0.077
-0.059
0.013
-0.052
-0.031
0.015
-0.061
0.056
0.041
0.102
-0.089
-0.122
0.061
0.228
-0.007
0.026
0.069
0.003
-0.014
-0.050
0.209
0.146
-0.060
0.023
0.076
0.026
-0.096
-0.044
0.044
0.048
0.093
0.118
0.100
0.017
-0.093
0.080
0.073
0.117
-0.005
-0.059
0.042
0.036
0.055
0.030
0.104
0.075
0.044
-0.048
-0.055
0.141
0.029
0.012
-0.095
-0.022
0.035
-0.072
0.067
0.014
-0.112
0.033
0.016
0.021
-0.003
0.007
0.229
0.020
0.060
-0.006
0.022
0.075
-0.088
-0.122
0.091
0.074
0.022
-0.088
0.034
0.012
-0.023
-0.020
0.099
0.031
-0.084
0.027
0.201
0.077
-0.108
-0.059
0.091
0.074
0.000
0.067
0.039
-0.144
0.061
0.160
0.043
0.016
-0.048
-0.128
-0.024
0.105
0.044
0.018
-0.093
0.178
0.103
-0.045
0.095
0.026
-0.118
-0.087
0.159
0.110
0.022
0.055
0.089
-0.070
-0.028
0.051
0.126
-0.004
-0.057
0.033
0.042
0.050
-0.072
0.096
0.015
-0.191
-0.001
0.184
0.148
-0.023
-0.040
0.104
-0.144
-0.043
0.044
0.078
-0.033
-0.068
0.075
0.184
0.111
0.014
-0.135
0.007
0.027
0.072
-0.077
0.128
0.041
0.024
0.050
-0.053
0.028
0.003
0.019
0.110
0.060
-0.068
-0.059
0.008
0.029
0.085
0.090
-0.088
0.054
-0.029
0.007
0.103
-0.002
0.003
0.002
-0.018
0.032
0.072
-0.089
0.158
-0.055
-0.005
-0.048
-0.047
0.040
0.123
0.288
0.323
0.327
-0.173
-1.429
-0.376
0.386
0.560
0.376
0.226
0.026
-0.216
-0.422
-0.210
0.059
0.039
0.098
0.136
0.424
0.566
0.302
0.405
0.093
-0.619
-0.287
0.208
0.159
-0.228
-0.337
-0.767
-0.016
0.370
0.434
0.300
0.339
0.141
-0.026
-0.154
0.050
-0.038
0.164
0.424
0.259
0.276
-0.105
-0.802
-1.281
0.915
1.133
0.587
-0.731
-1.027
-0.823
-1.467
-0.036
0.251
0.684
0.729
-0.008
-0.133
0.364
0.772
0.487
0.095
0.214
-0.337
0.397
0.754
0.534
0.267
0.002
-0.068
-0.525
-0.226
-0.466
-1.313
0.210
1.204
0.117
0.066
-0.643
-0.404
0.035
0.255
-1.103
-0.180
0.541
0.602
0.577
0.649
0.496
-1.287
-0.961
0.493
0.312
0.539
0.048
0.131
0.314
-0.338
-0.999
-0.408
0.650
0.753
-0.025
0.091
0.436
0.339
0.389
0.144
-1.491
-1.325
-0.084
1.256
1.702
0.442
-0.324
-0.709
-1.591
-1.010
0.773
1.301
0.883
-1.272
0.140
0.530
0.714
0.061
-0.248
-1.726
-0.096
0.623
0.761
0.327
0.107
-0.154
-0.131
-0.253
-0.235
0.013
0.266
0.589
-0.381
-0.017
0.291
0.078
0.056
0.163
0.210
0.087
-0.205
-0.059
-0.133
-0.182
-0.185
0.111
-0.010
-0.091
0.150
0.365
-0.109
-0.167
-0.159
0.305
-0.182
-0.225
0.056
0.065
0.167
0.017
-0.132
-0.006
-0.069
-0.065
0.218
-0.021
0.308
-0.068
-0.020
0.237
-0.172
0.062
0.043
0.064
0.201
-0.095
-0.048
-0.129
0.665
0.295
0.167
0.037
-0.915
-0.917
-0.371
0.022
0.013
0.361
0.880
0.335
0.525
-0.305
0.010
0.169
-0.397
-0.084
0.592
0.595
-1.433
-1.652
0.484
1.781
1.709
0.844
-0.108
-2.280
-1.871
-0.249
0.210
1.276
0.567
-0.861
-0.743
0.042
0.298
0.811
0.812
0.350
-0.888
0.105
0.795
-0.152
-0.827
0.483
-0.132
0.043
0.491
0.016
-0.046
0.266
0.532
-0.010
-0.085
0.142
0.035
0.047
0.072
-0.028
0.176
0.233
0.426
0.152
0.134
-0.076
0.031
-0.120
-0.068
0.059
0.038
-0.139
-0.088
0.047
-0.139
-0.357
-0.491
-0.446
-2.409
-3.106
0.363
2.434
2.042
0.877
-0.146
-0.321
-0.144
-0.112
0.079
0.647
0.990
1.163
-1.157
0.456
2.395
2.110
1.110
0.234
-0.341
-0.686
-0.513
-2.207
-0.626
0.288
1.149
1.033
0.218
-0.579
-0.511
-0.284
0.048
0.030
0.360
0.128
0.205
0.283
0.322
0.094
-0.109
-0.231
-1.712
-0.154
2.622
2.436
-0.685
-2.153
-1.460
1.007
1.528
-1.064
-0.059
-0.513
-0.320
1.235
1.464
0.543
0.859
0.174
-0.423
0.262
0.624
0.233
1.058
0.702
0.790
0.299
-0.131
-1.150
-1.748
0.239
0.241
0.752
-0.226
0.555
0.692
-0.594
-0.340
0.426
-0.010
0.469
0.149
0.693
0.855
-0.237
-1.258
-0.314
1.080
1.255
0.749
0.465
-0.017
0.004
0.045
0.073
0.073
0.054
0.168
0.149
-2.222
-0.318
1.951
1.771
0.882
-2.693
-0.988
0.547
0.736
0.220
0.030
-0.085
0.177
0.041
-1.811
-0.866
2.221
0.999
1.429
1.593
-0.811
-1.429
-0.870
-0.519
-0.125
0.552
1.079
0.728
0.423
0.387
0.520
0.642
0.732
0.482
0.362
0.208
0.125
-0.044
0.014
-0.047
-0.246
-0.385
-0.178
0.012
-0.131
-0.080
-0.098
-0.123
-0.186
0.070
0.660
0.496
0.135
0.129
-0.087
0.139
0.089
0.110
0.221
0.130
0.293
0.214
0.315
-0.062
-0.279
0.029
0.415
0.353
0.117
0.171
-0.011
0.062
0.082
0.085
0.216
0.070
0.003
0.147
-0.099
-0.080
-0.263
-0.277
0.170
0.421
0.145
0.274
-0.053
-0.210
-0.184
-0.021
0.097
-0.027
0.096
0.349
0.286
0.009
0.036
-0.042
-0.096
-0.140
-0.103
-0.107
-0.165
0.037
-0.211
-2.192
0.928
3.407
3.457
1.521
-2.954
-1.209
2.521
3.718
2.610
0.360
-1.021
-1.208
-0.729
-0.011
0.903
1.780
2.120
2.132
1.417
0.270
0.923
-0.345
-1.527
1.124
1.245
-0.056
-0.757
-1.411
-1.258
-0.946
-0.274
0.286
0.768
0.921
1.166
1.100
1.065
0.903
0.663
0.600
0.583
0.456
0.520
0.331
-0.035
0.331
0.711
0.867
0.799
0.606
0.589
0.600
0.785
0.644
0.693
0.697
0.663
0.530
0.610
0.366
0.522
0.404
0.338
0.472
0.323
0.305
0.261
0.276
-0.110
0.079
0.203
0.225
0.022
-0.194
0.012
0.049
-0.034
-0.089
-2.622
-0.683
2.864
3.878
3.314
-0.513
-2.719
-4.217
-3.619
-0.295
1.793
2.711
2.560
2.409
2.034
1.512
0.874
0.351
0.629
0.438
-0.615
-1.635
-0.603
-0.165
-1.950
-1.400
-0.335
0.149
0.120
0.327
0.320
-0.007
-0.068
-0.087
-0.065
-0.708
-1.768
0.214
1.460
1.655
1.516
1.006
0.082
-1.332
-0.500
0.501
1.032
1.362
1.312
0.437
0.107
0.479
-0.039
1.020
1.299
0.150
1.037
1.311
0.774
0.384
0.386
0.428
0.570
0.484
0.420
-0.220
-0.567
-2.281
0.891
2.590
1.983
0.578
-1.248
-0.589
-0.470
-0.315
-0.153
0.129
0.599
0.349
-0.058
0.113
0.521
0.534
-0.637
-2.413
-1.410
-0.065
1.595
1.365
0.190
-0.661
-0.880
-0.555
0.038
0.010
0.245
0.569
0.547
0.559
0.410
0.274
0.269
0.117
0.051
-0.200
-0.239
-0.186
-0.319
-0.346
-0.244
-0.232
-0.129
0.070
0.066
0.177
-0.064
-0.021
0.055
0.161
0.160
0.163
0.137
0.018
-1.272
-0.961
0.570
0.989
0.530
-0.361
-2.838
-2.613
0.224
0.307
1.052
1.159
1.336
0.719
-0.009
-0.186
-0.319
0.214
0.876
0.639
0.439
1.051
1.074
0.759
0.213
0.013
-0.287
-0.400
-3.237
-2.071
2.326
3.659
3.181
0.870
-1.079
-1.938
-1.895
-1.202
-0.070
0.888
1.397
1.463
1.485
1.475
1.693
0.968
0.252
0.044
-0.551
-0.769
-0.790
-0.643
-0.392
-0.569
-0.474
0.130
0.025
-0.554
-0.452
0.548
0.208
1.058
1.021
0.622
0.294
0.260
-0.352
-0.471
0.645
0.971
-0.028
-0.329
1.379
1.693
1.134
-0.766
-1.065
-0.803
1.194
1.685
1.224
0.196
0.275
0.354
-0.271
-0.075
0.653
-2.325
-0.307
2.379
2.609
1.620
-0.316
-0.737
-0.456
-0.612
-0.574
-0.483
-2.243
-0.327
0.542
1.857
1.502
0.538
-0.020
-0.244
0.139
-1.037
-1.255
-0.829
-0.536
-0.221
0.020
-0.182
-0.189
-0.119
0.151
0.516
-0.145
-0.186
0.169
0.042
0.619
0.413
-0.241
-0.470
0.394
0.968
0.700
0.363
-0.146
0.509
0.785
0.617
0.462
-0.634
-0.488
-0.334
-1.572
0.556
2.011
1.295
0.751
0.435
-0.254
-1.100
0.135
0.722
0.195
0.097
-0.314
0.721
1.474
1.178
-1.619
-1.641
0.708
1.983
1.499
0.606
-0.269
-0.727
-1.477
-0.829
0.339
-0.792
0.728
1.523
1.122
-0.218
-1.765
0.560
-0.065
-1.413
-0.197
0.127
-0.408
-0.302
-0.275
0.045
-0.463
-0.030
0.412
-0.346
0.228
0.829
1.018
-0.294
0.299
0.858
0.657
-1.660
-0.644
0.267
0.241
0.448
0.017
0.271
0.014
-0.176
-0.757
-0.177
-0.036
0.637
0.210
0.297
0.565
0.545
0.736
-0.251
-0.330
0.152
0.172
0.282
-0.364
0.534
0.765
-0.807
-0.333
0.088
0.703
0.787
0.336
-0.867
-0.504
0.311
0.582
0.326
-1.206
-1.040
0.969
1.453
-0.165
0.049
0.319
-0.847
-1.521
-0.457
0.215
0.404
0.331
0.287
0.017
-0.069
-0.117
0.247
0.447
0.029
0.257
-0.369
-0.092
0.221
0.355
0.052
0.130
0.093
-0.066
-0.108
-0.151
-0.007
-0.079
0.040
0.057
-0.025
-0.059
0.028
0.093
0.252
0.607
0.550
0.315
-0.020
0.066
0.005
-0.835
-0.411
0.618
0.826
0.486
-2.290
-0.455
1.084
-0.466
-0.033
0.670
-0.266
-0.516
-0.318
-0.063
-0.154
0.249
0.136
0.405
0.314
0.619
0.760
0.796
0.475
0.232
-1.372
-0.711
0.063
-0.118
0.282
0.294
0.176
0.048
-0.374
-0.309
-0.042
0.084
-0.235
-0.048
-0.695
-0.320
0.617
0.569
0.495
0.594
-0.428
-0.067
0.061
-0.766
-0.077
0.087
0.701
0.807
-0.902
-0.216
-0.494
0.354
0.755
0.504
-0.270
0.075
-0.765
-0.985
0.573
-0.522
-0.212
0.272
0.337
0.201
0.248
0.033
0.146
-0.071
0.545
-0.194
-0.362
0.012
0.301
0.530
0.869
-0.607
-0.150
0.494
0.500
0.284
-1.117
0.075
0.461
0.364
-1.385
-0.512
0.786
-0.705
-0.062
0.344
0.223
0.207
-0.112
-0.194
0.031
0.480
0.055
0.176
0.277
-1.319
-0.296
0.958
-0.157
-0.377
0.411
0.264
0.588
0.326
0.042
-0.036
-1.343
-1.744
-0.170
0.783
1.153
1.007
0.348
-1.489
-0.853
-0.016
0.284
0.207
0.110
0.195
-0.080
-0.113
0.246
0.453
0.485
0.207
-1.057
-0.550
0.328
0.917
1.171
-0.149
-0.106
0.142
-0.611
-1.423
-0.541
0.479
0.639
0.555
0.603
0.406
0.090
-0.118
-0.129
-0.106
0.239
0.348
0.231
0.409
0.325
0.301
0.213
0.050
-1.101
-0.143
0.307
0.234
0.008
-0.031
-0.154
-0.258
-0.418
0.063
0.104
0.269
0.168
0.051
0.255
0.178
0.144
0.143
0.246
-0.170
-0.110
-0.119
0.074
0.244
0.222
0.179
0.033
-0.036
-0.093
0.057
0.172
-0.041
-0.277
-0.086
0.243
0.208
0.058
-0.049
0.046
0.013
-0.100
0.066
0.019
0.056
0.017
-0.027
-2.389
-3.818
0.930
3.622
3.874
2.244
0.169
-1.010
-1.585
-1.397
-0.744
0.250
1.220
2.140
2.219
1.596
1.212
0.285
-0.480
-0.459
-1.352
-1.048
-0.296
-0.233
-0.619
-0.775
-0.946
-1.002
-0.583
-0.129
0.400
0.591
0.716
0.800
0.833
0.726
0.577
0.470
0.289
0.330
0.299
0.040
0.159
0.346
0.378
0.292
0.097
0.170
-2.165
-0.755
0.650
1.254
1.444
0.773
-0.399
-0.694
0.218
0.285
-0.227
-0.944
0.434
0.263
0.309
0.603
0.802
0.801
-0.354
-0.279
0.083
0.200
0.098
0.112
0.031
0.031
0.170
0.494
-0.299
-0.493
0.217
0.549
0.572
0.392
0.166
-0.104
-0.530
-0.153
0.142
0.332
-0.040
-0.103
0.241
0.150
-0.101
-0.208
-0.314
-0.440
-0.343
-0.108
0.111
-0.077
0.041
-0.160
-0.196
-0.243
-0.265
-0.051
0.166
0.155
0.058
-0.759
-3.262
-2.508
1.457
2.927
2.202
0.759
-0.362
-0.809
-0.927
-0.446
0.012
0.601
0.989
1.201
1.260
0.990
0.955
0.661
0.350
0.194
-0.025
-0.204
-0.371
-0.473
-0.478
-0.365
-0.101
-0.123
0.076
0.176
0.191
0.180
-0.062
-0.048
0.103
0.314
0.285
0.197
0.126
-0.081
0.144
-0.088
-1.008
-2.723
-1.006
1.492
1.685
1.106
0.047
-0.367
-1.787
-1.467
-0.058
0.690
1.694
1.581
0.931
0.563
0.286
0.185
-0.014
0.189
0.171
0.229
0.669
0.521
0.618
-2.176
-0.506
1.271
-1.439
-1.694
0.408
1.289
1.196
0.549
-0.099
-0.350
-0.305
-0.207
0.265
0.449
0.606
0.710
0.777
0.722
0.551
0.258
0.071
-0.167
-0.497
-1.289
-3.625
-1.251
1.928
2.368
1.237
-0.052
-0.767
-0.787
-0.926
-0.711
0.205
0.815
0.073
-0.832
-0.526
1.652
1.772
0.957
0.163
-2.828
-1.129
0.338
0.672
0.394
0.306
0.474
0.248
0.154
0.327
0.362
0.513
0.698
0.396
0.542
0.578
0.455
0.209
0.105
-0.050
-0.289
-0.787
-0.867
-0.396
-0.147
0.039
0.091
-0.186
-0.125
-0.040
-0.156
-0.008
-0.070
-0.083
0.145
0.553
0.307
0.426
0.231
0.106
0.060
0.218
0.223
0.184
0.164
0.127
0.129
0.042
-0.018
0.163
0.110
-0.108
-0.073
0.045
-0.007
0.106
0.164
0.054
-0.264
-0.090
0.159
-0.056
-0.118
-0.186
0.029
0.111
0.020
0.038
-0.129
-0.190
-0.068
-0.042
-0.105
-0.128
-0.009
0.080
0.020
-0.047
0.020
-0.175
-0.107
0.009
-0.048
0.062
-0.078
-0.086
-0.076
-0.007
-0.088
0.107
0.234
0.069
0.099
-0.308
-0.419
-0.012
0.295
0.305
-0.162
-0.001
0.066
-0.057
-0.083
0.152
0.488
0.534
0.071
-0.074
0.088
-2.432
-0.031
1.059
1.968
1.272
0.323
-0.301
-0.357
-0.400
-0.138
-0.036
0.155
0.578
0.555
0.244
0.223
0.401
0.153
0.108
0.020
-0.141
-0.461
-0.878
-2.062
-3.248
-1.415
1.069
1.663
1.127
0.431
-0.299
-0.468
-0.488
-0.249
0.169
0.681
1.031
1.073
1.023
1.041
0.794
0.608
0.301
0.246
0.080
-0.166
-0.277
-0.315
-0.310
-0.367
-0.213
-0.122
0.096
0.454
0.264
0.251
0.097
-0.017
-0.144
0.058
0.183
0.078
0.038
0.142
-0.001
-0.035
-0.209
-0.186
-0.229
-0.065
-0.137
-0.090
-0.082
-0.134
-0.111
-0.236
-0.144
-0.262
0.389
0.370
0.088
0.005
0.093
-0.090
0.155
0.020
0.090
0.276
0.210
0.343
-0.115
-0.226
0.137
0.350
0.068
0.065
0.161
0.157
-0.132
-2.879
-3.079
1.663
3.565
2.779
1.105
-0.453
-1.142
-1.182
-0.699
0.042
0.575
1.338
1.736
1.520
1.088
1.096
0.910
0.607
0.175
-0.166
-0.542
-2.974
-0.288
0.790
0.686
0.195
-0.483
-0.613
-0.510
-0.591
-1.365
0.203
0.785
0.631
0.498
0.485
0.386
0.199
-2.332
-0.756
0.705
1.010
1.219
1.102
0.277
-0.143
-0.486
-0.532
0.009
0.101
-0.495
0.049
1.471
2.013
1.631
0.478
-0.985
0.166
-0.193
-0.708
0.269
0.205
-0.141
0.325
0.387
-0.151
0.135
0.340
0.549
0.144
-0.001
0.127
0.068
0.092
0.064
-0.136
-0.031
0.284
0.180
0.135
-0.103
0.085
-0.134
-0.355
-0.128
0.360
-0.098
-0.075
-0.001
-0.098
-0.053
-0.129
0.257
-0.183
-0.208
-0.019
-0.041
0.028
0.105
-0.090
-0.204
0.002
-0.010
0.026
-0.014
-0.016
-0.112
0.086
0.054
-0.050
-0.050
-0.004
-0.028
0.070
0.096
0.243
-0.024
-0.105
0.080
0.020
0.054
0.093
-0.046
0.205
0.165
0.037
0.080
0.065
0.023
0.094
0.736
-0.141
-0.648
-0.271
0.327
0.274
0.326
-0.006
-0.037
-0.157
-0.002
0.235
0.123
0.163
-0.311
-0.290
0.064
0.481
0.083
-0.327
-0.640
0.004
0.128
0.794
0.562
-0.929
-0.245
0.222
0.318
-0.327
-0.032
0.066
0.147
0.200
0.078
-0.104
-0.141
0.264
0.169
-0.068
-0.224
0.046
0.495
-0.076
0.129
-0.243
-0.079
0.075
0.271
0.335
0.414
-0.050
-0.302
-0.741
-0.076
0.229
0.501
0.734
-0.255
-0.305
-0.211
0.318
-0.303
-0.308
-0.214
0.087
0.195
0.165
0.170
0.492
0.709
0.367
-1.068
-0.962
-0.190
0.510
0.526
0.257
0.167
0.025
-0.060
-0.058
-0.073
-0.109
-0.077
-0.044
0.059
0.046
-0.011
0.097
0.155
0.096
0.065
-0.014
0.010
-0.016
-0.030
0.037
0.082
-0.056
-0.134
-0.087
0.065
0.036
0.003
-0.086
-0.017
0.001
-0.033
0.057
0.041
0.015
0.063
-0.057
-0.030
-0.035
-0.074
0.000
0.130
0.064
-0.051
0.062
0.015
0.041
0.085
0.050
0.040
0.089
0.086
-0.001
0.021
-0.057
0.107
0.125
0.100
0.039
-0.050
-0.016
0.050
0.088
0.047
-0.039
0.160
0.073
-0.031
0.069
0.023
0.152
-0.010
0.008
-0.034
0.024
0.135
0.059
0.001
0.031
0.021
-0.081
0.052
0.058
0.128
-0.055
0.011
0.045
-0.126
0.062
0.032
0.055
0.021
0.004
-0.068
-0.013
-0.007
0.020
0.102
0.017
-0.086
-0.064
0.112
-0.053
-0.106
0.057
0.099
-0.038
0.109
0.116
-0.091
0.005
0.036
0.027
0.172
0.031
-0.051
0.093
-0.027
0.023
-0.002
-0.082
0.079
0.039
0.080
0.083
-0.016
-0.047
-0.037
0.014
0.121
0.046
0.023
0.157
-0.037
0.016
0.097
0.033
-0.039
-0.040
0.058
0.113
-0.009
0.104
-0.137
-0.137
0.044
0.110
0.019
0.052
0.027
0.019
-0.040
0.115
-0.019
0.082
-0.093
-0.043
0.167
0.151
0.026
-0.004
-0.005
-0.050
0.015
0.014
-0.043
0.071
0.020
0.019
-0.024
0.012
0.017
-0.001
-0.026
0.023
0.025
-0.100
-0.038
0.116
0.044
-0.057
0.018
0.116
0.001
-0.005
0.001
0.060
-0.024
0.113
-0.096
0.020
-0.084
0.028
-0.064
0.027
0.144
-0.055
0.053
0.115
0.021
-0.003
-0.083
0.048
0.110
0.047
-0.099
0.131
-0.015
-0.018
0.022
0.004
0.018
0.139
-0.010
-0.052
0.026
-0.007
0.068
0.105
-0.070
-0.012
0.041
0.008
-0.039
0.126
0.025
0.006
0.017
0.019
-0.061
-0.028
-0.015
-0.069
0.049
0.037
0.016
-0.047
-0.095
0.118
0.017
0.074
-0.106
0.015
-0.018
0.106
-0.057
0.009
0.113
0.123
-0.083
0.002
0.056
0.027
0.040
-0.073
-0.072
0.063
0.051
0.031
0.065
0.086
-0.022
-0.106
-0.011
0.037
-0.038
0.143
-0.002
-0.021
0.099
0.102
-0.046
-0.062
-0.050
0.180
0.099
-0.085
-0.102
-0.056
0.041
0.118
0.078
-0.045
-0.016
0.051
0.097
0.040
0.000
-0.036
-0.113
0.099
0.149
-0.012
0.041
0.056
-0.016
0.050
0.074
0.022
0.023
-0.056
-0.003
-0.107
0.097
0.115
-0.009
0.023
0.020
0.055
0.052
0.077
0.071
0.036
-0.053
0.000
0.009
-0.011
0.106
-0.096
0.008
0.070
0.098
0.105
0.116
-0.036
0.055
0.043
0.004
0.058
0.077
0.009
0.004
0.135
0.036
0.086
-0.039
-0.093
0.093
0.095
-0.035
0.083
0.100
0.029
0.113
0.011
0.005
0.108
0.006
-0.060
0.066
-0.118
0.056
0.066
0.107
0.099
-0.016
-0.045
-0.099
0.063
0.028
-0.008
-0.052
-0.013
0.037
0.077
-0.052
0.066
0.073
0.086
0.051
0.016
-0.001
0.005
-0.031
-0.003
0.053
0.042
0.106
-0.077
0.020
0.052
0.020
0.011
0.033
-0.014
-0.126
0.091
0.119
0.060
0.008
0.039
0.016
0.002
0.011
0.092
-0.001
0.063
0.033
-0.036
-0.142
0.029
-0.062
0.004
0.131
0.137
-0.024
0.062
-0.008
0.007
0.110
-0.015
-0.040
-0.025
0.127
0.060
0.045
-0.012
-0.007
0.026
0.001
0.037
0.009
0.052
0.060
0.025
-0.114
0.021
0.075
0.032
0.042
0.044
0.036
0.047
0.012
0.101
0.015
-0.044
0.076
0.087
-0.036
0.046
0.056
0.012
0.137
-0.068
-0.034
0.088
0.057
0.038
0.013
-0.011
0.014
0.005
0.050
0.097
-0.034
0.032
-0.030
0.052
0.090
0.020
-0.056
0.097
-0.028
0.046
0.080
-0.022
-0.033
0.029
0.038
0.035
0.003
-0.059
-0.001
0.065
0.141
0.124
-0.005
-0.132
-0.005
0.060
0.167
-0.021
0.087
0.028
0.036
-0.051
-0.077
0.037
0.056
0.039
-0.005
0.061
-0.029
0.019
-0.026
-0.017
0.064
0.026
0.030
0.017
-0.046
0.006
-0.031
-0.040
0.103
-0.028
0.045
0.012
0.003
0.002
0.095
0.039
0.028
-0.025
-0.051
0.028
-0.015
0.077
0.076
-0.008
-0.031
0.061
0.056
-0.042
0.015
0.004
0.022
0.041
0.142
-0.013
-0.082
0.054
0.029
-0.070
-0.019
-0.043
0.107
0.051
-0.115
-0.013
0.035
0.066
-0.007
-0.076
0.122
0.060
-0.000
0.087
0.009
-0.032
0.009
0.010
0.037
-0.045
0.066
0.133
0.144
-0.040
0.046
-0.075
0.017
0.081
0.014
-0.001
0.011
0.014
0.053
0.179
0.033
-0.090
-0.113
0.046
0.010
0.042
0.059
-0.069
0.030
0.001
-0.043
0.040
0.069
0.000
0.043
0.009
-0.006
-0.019
-0.052
0.042
0.102
0.109
0.058
-0.029
-0.067
0.009
0.164
0.106
0.066
-0.035
0.022
-0.027
0.055
-0.019
-0.019
-0.046
0.091
0.092
0.080
-0.040
-0.041
-0.095
0.051
0.003
0.005
0.018
0.175
-0.000
0.082
0.025
-0.120
-0.036
-0.019
0.133
0.092
-0.071
0.000
-0.020
0.110
0.074
-0.055
-0.055
0.027
0.036
0.044
0.127
-0.021
0.099
0.051
0.013
0.048
-0.030
-0.070
0.031
0.086
-0.052
-0.051
0.050
0.059
-0.034
-0.033
0.109
0.034
0.053
-0.024
0.034
-0.001
-0.042
0.026
-0.013
0.098
0.075
-0.030
-0.010
0.106
0.006
0.097
0.187
0.030
-0.022
-0.005
0.007
0.085
0.024
-0.085
-0.064
-0.029
0.129
-0.004
0.063
0.062
0.052
-0.122
0.004
-0.047
0.079
0.149
-0.028
0.040
0.119
0.053
-0.091
-0.051
0.016
0.114
0.003
0.147
0.235
0.177
-0.190
-0.044
-0.024
-0.080
0.105
0.102
0.113
0.049
-0.044
-0.126
0.074
0.010
0.057
-0.016
0.081
0.030
-0.012
0.028
0.018
-0.002
0.088
0.022
-0.026
-0.007
0.063
0.107
0.033
-0.036
0.080
0.002
-0.088
0.036
-0.020
0.092
-0.025
-0.168
0.009
0.187
0.031
0.035
-0.106
0.052
-0.014
0.061
0.025
-0.053
-0.005
0.139
0.076
-0.071
0.124
0.004
-0.022
-0.020
0.082
0.073
-0.132
0.019
-0.058
-0.006
0.053
0.008
-0.007
0.097
0.027
0.149
-0.070
0.049
-0.037
0.001
-0.004
0.059
0.112
0.091
-0.084
0.023
-0.015
-0.073
-0.036
0.033
0.042
0.137
0.356
-0.026
-0.182
-0.316
-0.010
0.085
0.197
-0.024
0.099
0.182
0.467
0.295
0.155
-0.126
-0.025
0.015
0.135
0.189
0.157
-0.882
-1.635
-0.341
0.786
1.372
0.791
0.049
-0.521
-1.250
-2.104
-0.680
0.552
1.022
0.785
0.368
0.273
0.177
0.061
0.074
0.058
0.145
0.122
0.025
0.224
0.171
0.110
0.229
0.105
-0.074
0.112
0.055
0.081
-0.113
-0.186
-0.149
0.048
-0.009
-0.152
-0.020
0.032
-0.052
-0.063
-0.048
-0.007
0.045
-0.070
-0.045
0.004
0.018
-0.080
0.033
-0.027
-0.003
0.051
0.101
0.001
0.069
0.007
-0.085
-0.075
0.162
-0.059
0.121
-0.021
-0.007
0.070
0.027
0.143
0.077
0.162
0.139
0.231
0.304
-0.277
-0.801
0.368
0.804
0.491
0.306
0.098
0.047
0.068
-0.928
-1.806
0.117
1.265
1.111
0.168
-1.920
-0.662
0.136
0.308
0.236
0.505
-0.321
-0.248
-0.084
0.145
0.176
0.244
0.312
0.458
0.221
0.168
0.150
0.112
-0.061
-0.039
0.029
0.045
-0.107
-0.083
-0.120
-0.048
0.034
0.127
-0.055
-0.108
-0.130
0.044
0.094
-0.008
-0.040
-0.049
0.013
0.029
-0.077
0.060
-0.030
-0.100
-0.046
-0.018
0.134
0.045
0.095
-0.016
0.040
-0.046
-0.122
0.089
0.008
0.028
0.010
-0.022
0.102
0.055
0.091
-0.003
0.048
0.032
-0.005
-0.111
0.094
0.133
0.043
-0.036
0.028
0.110
0.006
0.116
0.097
-0.012
0.063
0.016
0.042
-0.044
-0.157
0.029
0.136
0.062
0.082
0.044
-0.026
-0.001
0.016
-0.036
-0.011
0.020
-0.006
-0.016
0.069
0.040
-0.012
0.115
-0.022
-0.095
0.027
-0.046
0.113
0.065
-0.120
-0.102
0.002
0.058
-0.020
0.053
0.028
-0.059
0.057
0.129
0.116
-0.000
0.040
-0.091
0.145
0.133
0.094
0.076
-0.101
-0.136
-0.030
0.104
0.011
0.170
0.076
-0.078
0.002
-0.066
-0.060
-0.091
0.017
-0.062
0.070
0.124
0.026
0.221
0.061
-0.103
-0.018
0.083
-0.077
0.070
0.155
0.199
0.024
-0.152
-0.280
0.071
0.278
0.206
-0.114
-0.177
-0.133
-0.009
0.001
0.109
0.010
0.054
-0.027
0.085
0.090
0.015
0.020
-0.024
0.143
0.018
-0.005
0.072
0.108
0.056
-0.067
-0.083
0.033
0.004
-0.091
-0.078
0.061
0.190
0.001
-0.042
0.076
-0.036
-0.001
-0.123
-0.044
-0.020
0.099
0.029
0.054
0.211
-0.009
0.038
0.004
0.028
0.040
0.032
0.040
0.119
0.055
0.086
-0.083
0.036
0.062
0.102
-0.064
-0.058
0.072
0.132
-0.022
-0.030
0.009
-0.031
0.058
0.007
0.125
-0.090
0.025
0.018
0.047
0.063
-0.029
-0.023
0.064
0.009
0.013
0.103
-0.117
0.109
0.061
-0.020
0.010
0.035
0.000
-0.016
0.058
0.115
-0.030
-0.040
-0.094
0.066
0.096
0.024
0.039
0.096
0.023
-0.075
0.001
0.048
0.056
0.056
0.078
-0.037
-0.040
-0.058
0.078
0.026
0.080
0.003
0.060
-0.050
0.096
0.030
0.025
0.032
0.056
0.153
-0.085
-0.012
0.069
0.002
-0.016
-0.015
-0.054
-0.017
0.007
-0.010
-0.015
0.097
0.021
-0.038
-0.041
0.050
0.010
0.051
0.179
0.167
0.196
0.174
0.242
0.184
-0.383
-0.678
-0.545
0.145
0.751
0.595
0.506
0.048
-0.078
-0.227
-0.262
0.053
0.084
0.232
0.269
0.120
0.118
0.031
0.114
-0.026
-0.209
-0.177
-0.102
-0.017
-0.143
-0.174
-0.181
-0.177
-0.244
-0.115
0.077
0.304
0.073
-0.038
-0.023
-0.214
-0.159
-0.400
-0.120
-0.167
-0.156
-0.077
0.145
0.177
-0.542
-0.674
0.007
0.558
0.520
0.406
0.216
0.122
0.196
0.201
0.297
0.492
0.211
0.374
0.279
0.415
0.092
0.058
-0.149
-0.277
-0.157
-0.244
-0.184
-0.200
-0.251
-0.148
-0.155
-0.274
-0.061
-0.047
-0.165
-0.243
-0.041
0.153
-0.006
-0.105
-0.191
-0.104
0.066
-0.049
0.019
0.089
0.056
-0.028
0.063
-0.061
-0.002
0.082
0.010
0.117
0.179
0.007
0.090
0.059
0.195
0.097
0.153
0.119
0.180
0.037
0.069
-0.030
0.206
0.208
0.066
0.084
0.065
0.052
0.191
0.078
0.102
-0.058
0.019
0.041
-0.053
0.059
0.098
0.043
0.131
0.000
-0.058
0.093
-0.082
0.010
-0.076
-0.002
0.014
0.099
-0.006
-0.083
-0.016
0.361
0.092
0.348
0.188
0.129
-0.808
-1.294
-0.328
0.507
0.597
0.414
-0.132
-0.029
-0.269
-0.282
-0.122
-0.038
-0.008
0.041
0.002
0.519
-0.069
-0.306
0.149
0.089
0.287
0.420
0.281
-0.109
-0.285
-0.200
-0.001
-0.188
0.061
0.082
-0.008
-0.021
0.143
0.059
0.028
-0.139
-0.088
0.122
-0.095
-0.065
-0.069
0.176
0.352
-0.059
-0.205
-0.049
0.113
0.021
0.025
0.000
0.231
0.304
0.365
0.246
0.173
0.182
0.107
0.162
0.074
-0.053
0.088
0.160
0.106
0.120
0.085
-0.165
-0.130
-0.123
-0.202
-0.145
-0.048
0.047
-0.113
-0.064
-0.009
-0.393
-0.772
-0.310
0.227
0.270
-0.161
-0.221
0.243
0.193
0.092
-0.150
-0.445
-0.037
0.381
0.470
0.411
0.192
0.278
0.175
0.275
0.238
0.074
0.174
0.146
0.071
-0.095
0.090
0.018
-0.106
-0.315
-0.031
0.170
-0.022
-0.330
-0.214
0.263
0.260
0.240
0.054
-0.303
-0.390
0.171
0.272
0.226
0.228
0.236
0.073
-0.038
-0.301
-0.040
0.247
0.171
-0.060
0.069
-0.238
-0.219
-0.089
-0.185
-0.288
-0.724
-1.452
0.180
0.881
0.664
0.307
-0.087
-0.166
-0.277
-0.147
-2.034
-3.272
-1.137
1.103
2.453
2.674
1.678
0.232
-0.524
-1.033
-0.763
0.011
0.867
1.265
1.181
1.211
1.003
0.798
0.492
0.114
-0.036
-0.316
-0.238
-0.508
-0.511
-0.515
-0.272
-0.316
-0.255
-0.332
-0.289
0.012
-0.020
-2.635
-2.519
2.344
3.899
2.756
0.509
-1.105
-1.512
-1.214
-0.623
0.075
0.679
1.247
1.363
1.230
0.944
1.095
0.737
0.104
-0.283
-0.302
-0.331
-0.567
-1.541
-3.612
-0.036
2.270
1.869
0.931
-0.084
-0.546
-0.341
-0.275
0.019
0.441
0.626
0.673
0.774
0.837
0.550
0.420
0.428
0.214
-0.056
-0.340
-1.403
-3.306
-0.742
2.317
2.384
-1.883
-1.652
0.566
1.345
1.514
1.022
-0.293
-2.045
-0.545
1.199
1.979
1.873
1.280
0.711
0.647
0.287
-0.403
-0.532
0.018
-0.013
-0.258
-0.321
-0.285
-0.496
-0.684
-1.597
-1.196
-0.228
0.193
0.162
0.088
-0.080
-0.205
-0.056
0.154
0.339
0.188
0.079
0.423
0.369
0.461
0.425
0.319
0.214
0.341
0.307
0.214
0.158
0.043
-0.069
0.099
0.239
0.136
0.026
0.139
-0.704
-0.020
0.554
0.425
0.462
0.184
-0.056
-0.584
-0.551
-0.176
-1.091
-0.098
0.585
0.833
0.657
0.234
-0.051
-0.012
-0.000
0.097
0.147
-0.193
0.029
0.440
0.592
0.321
0.123
-0.136
-0.612
-2.771
-1.437
1.135
1.723
1.063
0.154
-0.402
-0.551
-0.358
-0.123
0.167
0.500
0.479
0.534
0.592
0.543
0.444
0.185
-0.123
-0.101
-0.333
0.051
0.102
-0.366
-0.193
-0.290
-0.350
-0.114
-0.064
0.086
0.158
0.087
-0.158
-0.127
0.050
0.115
0.006
0.064
0.084
-0.111
-0.129
0.043
0.156
-0.030
0.071
-0.040
0.087
0.025
0.081
0.035
0.049
0.267
-0.016
-0.098
-0.063
0.071
0.059
0.093
0.084
0.212
-0.309
-0.768
-3.326
-1.275
2.946
4.170
3.052
0.588
-0.934
-1.659
-1.725
-0.825
0.115
1.019
1.936
2.267
2.537
2.119
1.675
1.122
0.433
-0.137
-0.655
-3.372
-0.906
1.778
1.313
0.566
-0.699
-1.361
-1.278
-0.839
-0.504
0.111
0.733
0.982
1.189
0.964
0.759
0.632
0.549
0.260
0.076
-0.158
0.088
0.025
0.089
0.051
0.187
0.155
0.100
-0.174
-0.589
-1.040
0.834
1.875
1.554
0.922
0.425
-0.037
-0.163
0.369
0.575
0.673
0.889
0.779
0.790
0.589
0.315
0.267
0.416
0.185
-0.036
0.059
-0.060
0.048
0.077
-0.233
-0.578
-0.343
0.016
0.170
0.133
-0.145
-0.139
-0.175
-0.221
-0.246
-0.095
-0.188
-0.203
-0.049
-0.257
-0.421
-0.303
-0.257
0.173
-0.020
-0.169
-0.072
-0.151
-0.348
-0.231
-0.249
0.083
-0.082
0.047
0.009
-0.208
-0.046
0.005
-0.013
-0.176
-0.051
-0.080
0.018
-0.045
0.069
0.118
0.085
0.191
0.083
-0.004
0.029
0.049
0.061
0.078
0.061
0.182
0.030
0.105
0.058
0.127
-0.042
0.041
-0.019
0.094
0.010
0.126
0.105
-0.018
-0.171
0.112
0.196
0.142
0.035
-0.079
0.046
0.094
0.085
0.003
-0.391
-0.320
0.267
0.492
0.104
-0.141
-0.127
-0.028
0.060
0.025
-0.049
0.084
-0.034
-0.044
-0.026
0.024
-0.054
-0.195
0.042
0.267
0.130
0.166
0.021
-0.095
-0.125
-0.131
-0.009
0.198
0.162
0.179
-0.028
-0.076
-0.003
0.079
0.043
0.034
0.050
0.032
0.028
-0.071
0.015
0.018
0.102
-0.014
0.136
-0.009
-0.011
-0.090
-0.031
-0.174
-0.175
-0.204
-0.102
0.029
0.158
-0.193
-0.387
0.099
0.381
0.106
0.097
-0.047
-0.105
-0.033
0.434
0.416
0.193
0.040
0.107
0.008
-0.064
0.070
0.033
-0.525
-0.896
-0.916
0.068
0.755
0.546
0.079
-0.198
-0.343
-0.322
-0.367
-0.166
0.478
0.524
0.479
0.360
0.109
0.110
-0.034
-0.089
0.026
0.081
0.055
-0.090
-0.192
-0.343
-0.371
-0.372
-0.357
-0.412
-0.455
-0.329
-0.533
-0.737
-0.768
-0.472
-0.460
-0.239
-0.531
-0.210
0.118
-0.132
0.031
0.276
0.453
-0.188
-0.276
0.279
0.647
0.992
0.735
0.557
0.877
0.292
-0.969
-0.232
0.555
-0.039
-0.886
-0.057
0.436
-0.044
0.172
-0.218
-0.397
-0.128
-0.538
-0.556
-0.216
0.022
0.088
-0.299
-0.165
0.022
0.482
0.417
-0.092
-0.246
-0.402
-0.538
-1.136
-1.392
-0.419
0.467
0.526
0.381
0.284
0.099
0.159
0.094
-0.059
0.032
0.446
0.754
0.640
0.785
0.878
0.997
0.850
0.601
0.424
0.409
0.141
0.284
0.104
0.207
0.205
0.162
-0.032
0.033
0.168
0.243
-0.046
-0.005
0.200
0.198
0.227
0.222
0.169
0.389
0.236
0.308
0.294
0.307
0.243
0.297
0.358
0.387
0.028
0.016
0.349
0.583
0.307
-0.001
0.088
0.095
0.199
0.069
-0.233
0.197
0.412
0.340
0.134
-0.014
-0.029
-0.062
-0.138
-0.059
-0.033
-0.019
0.095
-0.041
0.035
-0.061
-0.132
-0.176
-0.123
-0.009
-0.103
-0.114
-0.042
-0.203
-0.168
-0.021
-0.122
-0.093
0.006
-0.154
-0.014
-0.003
-0.080
-0.225
-0.113
-0.058
-0.120
-0.071
-0.027
0.013
-0.075
-0.156
-0.166
-0.002
-0.037
-0.019
-0.256
-0.031
0.089
-0.071
0.010
-0.006
-0.016
-0.171
0.011
0.117
0.006
-0.002
0.047
0.005
-0.056
0.094
0.079
0.095
0.038
-0.356
-0.156
0.151
0.258
0.000
-0.010
0.311
0.254
0.004
-0.093
-0.027
-0.095
0.051
-0.004
0.076
0.237
0.209
0.149
0.124
-0.048
-0.152
-0.203
-0.065
-0.082
0.191
0.037
-1.113
-0.090
0.518
0.581
0.443
0.157
-0.105
-0.112
-0.065
0.091
0.254
0.185
0.019
-0.482
-0.104
-0.276
-0.740
-0.884
0.040
-2.537
-3.666
-3.827
-0.834
2.152
4.140
3.291
0.891
-0.751
-1.222
-0.587
0.278
1.203
2.109
2.507
2.389
1.994
1.622
0.958
0.204
-0.274
-0.842
-1.203
-1.313
-1.173
-1.255
-1.195
-0.842
-0.751
-0.487
-0.380
-0.160
-0.220
-0.446
-0.118
0.175
0.376
0.266
-0.168
-0.275
-0.129
0.108
0.046
0.057
0.248
0.260
0.115
0.229
0.220
0.189
0.361
0.251
0.338
0.254
-0.371
-0.131
0.584
0.904
0.066
-2.844
1.070
3.802
4.276
2.180
-0.231
-1.320
-1.396
-0.814
-0.115
0.510
1.516
1.684
1.552
1.443
1.281
0.912
0.480
0.031
-0.396
-0.795
-0.762
-0.729
-0.511
-0.560
-0.490
-0.858
-0.096
0.180
0.222
-0.369
-1.690
0.248
-0.659
1.603
1.333
-1.979
1.035
-0.513
0.198
3.356
1.838
2.958
0.650
-0.220
-0.697
-0.902
-0.181
1.069
2.132
0.724
1.818
3.511
3.358
2.520
1.351
0.280
-0.715
-1.277
-1.474
-1.174
-1.109
-0.775
-0.640
-0.599
-0.069
0.402
0.328
0.327
0.224
0.198
0.306
-0.677
-0.104
0.649
0.598
0.664
0.376
0.001
-0.220
-1.326
-1.527
-1.941
-2.732
-3.371
0.997
4.208
4.259
2.165
0.181
-1.057
-0.973
-0.326
0.608
1.598
2.242
2.684
2.678
2.371
1.984
1.366
0.648
0.337
-0.321
-0.547
-0.901
-0.950
-1.059
-0.959
-0.810
-0.776
-0.663
-0.344
-0.388
-0.265
-0.317
-0.391
-0.203
-0.192
-0.266
-0.388
-0.294
-0.268
-0.269
-0.211
-0.192
-0.053
0.063
0.440
0.363
0.331
0.107
0.189
0.068
0.211
0.219
0.412
0.419
0.212
0.325
0.242
0.141
0.064
0.149
0.044
-0.018
0.180
0.088
0.222
0.069
0.256
0.152
0.244
0.276
0.272
0.299
0.149
0.243
0.230
0.087
0.206
0.114
0.232
0.120
0.118
0.177
0.069
0.131
0.076
0.075
-0.021
0.099
-0.010
0.111
0.017
-0.066
-0.031
0.024
-0.164
-0.102
-0.012
-0.226
-0.018
0.273
0.170
-0.065
-0.100
-0.408
-0.337
0.086
0.232
0.164
-0.097
-0.532
-0.207
0.250
0.252
0.058
-0.270
-0.006
0.050
0.054
-0.159
0.131
-0.058
0.047
0.074
-0.152
-0.030
-0.021
0.073
0.222
0.105
-0.066
0.043
-0.074
-0.003
0.056
-0.019
0.039
0.085
0.112
0.071
-0.026
-0.008
-0.053
0.083
-0.060
-0.113
-0.100
-0.040
-0.077
0.067
0.121
-0.086
-0.014
0.024
-0.028
-0.034
0.107
-0.021
-0.012
-0.072
0.016
0.111
0.003
-0.105
-0.034
0.026
-0.085
-0.125
-0.095
0.025
0.195
0.021
-0.236
-0.090
-0.172
0.146
0.422
0.220
-0.095
-0.038
-0.115
-0.056
0.108
-0.042
0.157
0.168
-0.094
-0.125
0.099
0.234
0.011
0.059
0.060
-0.232
-0.340
0.103
0.463
0.403
0.090
-0.060
0.019
0.087
0.162
0.172
-0.016
0.166
0.127
-0.098
-0.444
0.096
0.309
0.304
0.269
0.021
-0.053
-0.036
0.069
-0.051
0.147
0.021
0.009
0.037
0.113
0.227
0.174
-0.051
-0.084
-0.118
0.146
-0.087
-0.289
-0.198
-0.006
0.281
-0.087
-0.208
-0.101
0.117
-0.118
-0.212
-0.221
-0.093
0.067
0.070
-0.140
-0.337
-1.125
-0.835
0.237
0.740
0.802
-0.114
-0.465
-0.195
-0.008
-0.361
-2.080
-1.926
-1.272
-2.491
1.935
3.456
2.242
0.376
-0.630
-0.820
-0.518
-0.846
-3.134
-3.957
-1.524
2.992
4.330
4.606
-0.346
-3.319
-1.973
-0.005
0.597
1.051
1.462
1.653
2.002
2.164
2.165
2.203
1.786
1.297
0.703
0.205
-0.270
-0.850
-1.035
-1.146
-1.253
-1.218
-0.938
-0.849
-0.745
-0.547
-0.342
-0.211
-0.207
-0.019
0.107
0.155
0.161
0.128
0.236
0.315
0.338
0.283
0.366
0.225
0.409
0.581
0.547
0.567
0.536
1.007
1.167
0.899
0.460
0.571
0.932
0.614
0.636
0.802
0.813
0.676
0.658
0.467
0.455
0.345
0.242
0.185
0.158
0.196
0.117
0.105
0.043
0.047
0.083
0.138
-0.043
-0.087
-0.099
-0.164
0.100
0.234
0.071
-0.085
-0.016
-0.033
-0.675
-0.896
0.160
0.293
0.203
0.115
-0.726
-0.716
-0.782
-0.272
0.021
0.571
0.075
-0.491
0.018
0.209
0.038
-0.197
-0.044
0.146
0.268
0.153
0.022
-0.110
-0.228
-0.207
-0.215
-0.428
-0.095
0.339
0.083
-0.221
-0.459
-0.151
-0.172
-0.032
-0.042
-0.308
-0.449
-0.516
0.366
0.887
0.613
0.364
-0.162
-0.227
-0.099
-0.032
-0.126
0.090
0.159
0.206
0.176
-0.027
0.144
0.055
-0.035
-0.077
-0.145
0.060
0.032
0.070
0.083
-0.282
-0.307
-0.206
0.229
0.319
0.155
0.135
0.109
-0.019
0.160
0.091
0.025
-0.009
0.143
0.439
0.030
-0.422
-0.070
0.440
0.345
0.089
0.126
0.018
-0.038
0.050
0.001
0.065
0.176
0.093
0.134
0.079
-0.044
0.096
0.103
0.082
0.081
-0.004
-0.109
-0.352
-0.164
-0.056
0.039
0.053
0.037
-0.074
-0.064
-0.052
-0.205
0.002
0.285
0.385
0.245
0.249
-0.103
-0.115
0.114
0.168
0.025
0.026
0.123
-0.117
0.027
-0.036
-0.019
-0.126
-0.466
-0.573
-0.101
0.080
0.061
-0.089
-0.183
-0.149
-0.257
-0.294
-0.041
0.039
0.018
-0.208
-0.203
0.046
0.009
-0.180
-0.034
-0.096
-0.109
-0.119
-0.017
-0.001
-0.054
0.077
0.057
0.160
0.061
0.162
0.147
-0.056
-0.346
-0.219
0.137
0.396
0.147
-0.076
-0.120
-0.077
-0.674
-0.541
-0.315
0.285
0.625
0.548
0.107
-0.077
-0.290
0.004
0.168
-0.317
-0.616
-0.460
0.164
0.736
1.156
1.185
0.624
-0.290
-0.735
-0.611
0.111
0.132
0.436
0.991
0.855
0.538
0.179
0.024
-0.221
-0.051
0.085
-0.058
-0.067
-0.339
-0.219
-0.627
-0.187
-0.470
-0.661
-0.530
0.490
0.640
0.036
-0.084
-0.315
-0.184
-0.061
0.100
0.371
0.179
0.341
0.447
0.385
0.272
0.119
0.007
0.161
-0.126
0.038
-0.060
-0.098
-0.046
0.078
0.175
0.151
0.120
-0.382
-0.127
0.349
0.501
0.206
-0.083
0.030
0.030
0.061
0.008
0.081
0.183
0.154
0.081
-0.081
0.061
-0.111
0.147
0.232
0.006
-0.074
-0.043
0.184
0.113
0.095
0.169
-0.213
-0.282
-0.163
0.128
0.235
0.193
0.011
0.055
-0.050
-0.127
-0.099
0.057
0.026
-0.148
-0.401
-0.212
0.221
0.185
0.084
-0.027
0.021
-0.018
-0.087
-0.129
-0.043
0.031
0.052
0.140
0.009
0.148
0.035
-0.043
0.120
-0.033
-0.083
-0.052
0.043
0.016
-0.001
0.007
0.018
-0.023
0.005
-0.001
-0.003
0.102
-0.032
0.076
0.140
-0.035
-0.020
-0.059
0.011
0.120
-0.043
0.038
-0.222
-0.211
-0.077
0.335
0.283
-0.098
-0.120
0.113
-0.056
-0.025
0.058
0.055
0.059
0.064
-0.203
-0.097
0.331
0.262
0.005
0.037
-0.023
-0.122
-0.116
0.008
-0.040
0.126
0.188
0.038
-0.053
-0.241
0.164
0.126
-0.010
0.050
-0.019
0.016
-0.121
0.043
0.075
0.070
0.094
0.114
-0.094
-0.075
0.030
0.127
0.035
0.033
-0.008
0.065
-0.134
0.003
0.026
-0.078
0.081
-0.047
-0.003
-0.008
0.023
-0.040
-0.131
0.101
0.150
-0.076
-0.074
-0.178
-0.022
0.073
-0.015
-0.008
-0.002
0.022
-0.099
0.016
0.079
0.111
0.015
0.121
-0.012
-0.145
0.005
0.030
0.086
-0.187
-0.158
-0.074
0.057
-0.161
-0.520
-0.357
-0.007
-0.226
-0.122
0.256
0.091
-0.114
0.107
-0.033
-0.063
0.013
-0.241
-0.344
0.408
0.622
0.452
0.144
0.132
0.166
-0.145
-0.011
-0.176
-0.153
-0.174
-0.288
-0.205
0.083
0.367
0.173
-0.172
-0.047
-0.011
-0.112
-0.128
-0.084
0.016
0.069
0.148
0.176
0.136
0.054
0.090
0.185
-0.099
-0.057
0.174
0.148
0.063
0.112
0.036
-0.066
-0.106
0.117
0.078
-0.106
0.036
0.220
0.145
0.114
-0.102
-0.099
-0.046
0.160
0.207
0.100
0.104
0.112
-0.021
-0.175
0.081
-0.418
0.280
0.526
0.432
0.229
0.104
-0.170
-0.206
0.003
0.088
0.527
0.363
0.216
0.102
-0.143
-0.241
-0.125
-0.024
0.110
-0.044
0.033
0.002
-0.130
-0.121
-0.230
-0.092
0.005
0.049
0.004
0.101
0.062
-0.167
-0.934
-0.440
0.631
0.794
-0.457
-0.382
0.182
0.420
0.373
0.230
-0.031
0.033
0.115
0.118
0.192
0.075
0.460
0.416
0.246
0.133
-0.004
-0.124
-0.324
-1.005
-1.361
-0.234
0.940
0.942
0.316
-0.925
-0.938
0.163
0.445
-0.177
-3.158
-4.061
0.613
3.549
4.351
3.663
-0.994
-3.617
-4.305
-3.838
-1.267
1.739
3.852
4.427
4.484
4.343
4.168
3.914
2.403
-0.819
-3.193
-1.455
-0.524
-0.576
-1.337
-1.786
-1.978
-1.853
-1.142
-0.613
-0.141
0.283
0.644
0.994
1.093
0.958
0.537
0.313
0.535
0.888
0.729
0.385
0.049
-0.192
-0.445
-0.466
-0.497
-0.469
0.067
0.432
0.321
0.210
0.330
0.122
0.230
0.569
0.580
0.661
0.638
0.513
0.780
0.627
0.673
0.679
0.593
0.773
0.564
0.434
0.455
0.353
0.039
0.044
0.139
0.247
0.015
-0.130
-0.209
-0.174
-0.233
-0.104
-0.032
-0.232
-0.226
-0.347
-0.252
-0.247
-0.258
-0.333
-0.208
-0.307
-0.309
-0.319
-0.400
-0.391
-0.125
-0.231
-0.104
-0.257
-0.032
-0.227
-0.391
-0.241
-0.191
-0.145
0.040
-0.092
-0.124
0.068
-0.030
-0.083
-0.100
0.037
0.099
0.109
0.020
0.183
-0.038
0.141
0.116
0.017
0.139
0.103
0.154
0.234
0.143
0.072
0.106
0.106
0.129
0.059
0.141
0.287
0.100
0.104
0.030
0.131
0.130
0.229
0.699
0.458
0.125
0.192
0.135
0.161
0.107
0.226
-0.120
0.012
0.206
0.309
0.196
-0.056
-0.197
-0.192
-0.006
-0.067
0.022
-0.058
-0.110
-0.295
-0.026
0.086
0.217
0.123
0.062
0.242
-0.130
-0.259
0.118
0.238
0.152
0.146
0.161
-0.196
0.041
0.354
0.068
-0.106
0.165
0.323
0.102
0.266
0.260
-0.171
-1.109
-1.555
0.284
1.378
1.074
0.416
0.004
-0.228
-0.361
-0.444
-1.598
-1.183
0.808
1.568
1.274
0.540
0.040
-0.329
-0.471
-0.465
-0.348
-0.587
-0.804
-0.351
0.091
-0.050
-0.198
-0.217
