-0.052
0.303
0.217
0.175
0.275
0.048
0.162
0.141
0.087
-0.046
-0.074
-0.118
-0.040
-0.085
-0.098
-0.116
-0.044
-0.012
0.032
0.075
-0.018
0.038
0.044
0.051
0.042
0.022
0.070
-0.056
-0.089
0.044
0.083
0.067
0.038
0.124
-0.015
0.021
0.048
0.001
0.040
0.084
0.090
0.094
0.004
0.052
0.032
0.137
0.101
0.054
-0.022
0.090
0.131
0.059
-0.070
0.030
0.013
0.034
0.028
0.081
0.065
0.020
-0.022
0.002
-0.007
-0.022
0.040
-0.013
-0.043
0.041
-0.154
0.014
0.027
0.040
0.005
0.039
0.004
0.039
0.009
0.019
0.031
-0.047
0.030
-0.003
0.037
-0.015
0.063
0.087
0.000
-0.054
-0.080
-0.016
0.043
0.040
-0.095
0.047
0.002
0.026
-0.030
0.070
0.056
-0.050
0.017
0.025
-0.004
0.000
-0.020
-0.012
0.087
0.120
-0.021
0.064
0.039
0.050
-0.014
-0.093
0.090
0.117
-0.034
-0.046
0.138
-0.003
0.075
0.045
0.012
-0.070
-0.106
0.103
-0.066
-0.114
-0.026
0.051
0.077
0.055
-0.019
0.032
0.046
0.023
0.076
0.031
-0.013
0.006
0.021
0.054
0.028
-0.017
0.074
-0.059
-0.127
0.050
0.030
-0.055
0.026
0.084
0.048
0.151
-0.094
0.072
0.063
-0.041
0.015
0.010
0.121
0.059
0.059
0.083
-0.076
0.029
0.001
0.005
0.053
0.193
-0.057
-0.006
-0.006
-0.021
-0.056
0.098
-0.017
-0.056
-0.054
0.054
0.109
0.013
-0.245
-0.835
-0.884
0.406
0.854
0.564
0.149
-0.019
-0.294
-0.190
0.063
0.146
0.050
0.153
0.096
0.294
0.246
0.100
0.064
0.163
0.034
-0.016
-0.204
-0.077
-0.178
-0.105
-0.026
0.019
-0.090
0.004
0.064
0.037
0.060
0.061
-0.007
0.045
-0.060
0.080
-0.029
-0.072
0.104
0.074
0.084
0.048
-0.010
-0.057
0.024
-0.590
-3.323
-1.147
0.053
2.048
3.758
2.613
0.288
-1.193
-1.640
-1.166
-0.391
0.468
1.348
1.624
1.958
1.822
1.474
0.916
0.496
-0.019
-0.423
-0.570
-0.715
-0.743
-0.770
-0.665
-0.520
-0.215
-0.220
-0.088
-0.046
0.073
0.173
0.172
0.177
0.086
0.212
0.033
0.259
0.142
0.067
0.289
0.219
0.270
0.334
0.211
0.192
0.268
0.254
0.189
0.244
0.397
0.280
0.215
0.219
0.181
0.056
0.258
0.276
0.258
0.162
0.146
0.250
-0.017
0.085
0.187
0.184
0.143
0.001
0.074
0.042
-0.009
0.037
0.099
-0.064
-0.065
-0.006
-0.018
-0.095
-0.070
-0.130
-0.003
-0.121
-0.126
0.072
-0.102
-0.210
-0.080
-0.103
-0.017
-0.089
-0.096
-0.065
-0.130
-0.999
-2.818
-3.821
-3.845
-3.271
-3.779
-2.178
0.384
1.208
0.919
-0.057
-0.527
-0.567
-0.787
-0.274
0.502
2.476
4.167
4.573
4.457
3.692
2.765
1.866
1.431
1.089
0.807
0.390
-0.116
-0.594
-0.963
-1.353
-1.490
-1.606
-1.622
-1.604
-1.572
-1.379
-1.149
-1.078
-0.870
-0.623
-0.396
-0.207
-0.336
-0.072
-0.152
-0.186
0.145
0.080
0.186
0.251
0.198
0.291
0.380
0.294
0.499
0.590
0.595
0.662
0.695
0.619
0.661
0.745
0.607
0.767
0.785
0.714
0.798
0.678
0.609
0.593
0.569
0.600
0.497
0.494
0.534
0.385
0.372
0.353
0.298
0.315
0.304
0.115
0.147
0.125
0.135
-0.018
-0.058
-0.023
-0.038
-0.059
-0.189
-0.278
-0.205
-0.227
-0.334
-0.134
-0.429
-0.312
-0.248
-0.196
-0.206
-0.271
-0.411
-0.301
-0.231
-0.315
-0.184
-0.260
-0.276
-0.216
-0.241
-0.192
-0.146
-0.202
-0.182
-0.196
-0.107
-0.087
-0.190
-0.090
-0.070
-0.175
-0.006
0.027
0.006
-0.027
0.140
0.020
-0.173
0.081
0.100
0.063
0.097
0.117
0.103
-0.015
0.142
-0.058
0.114
0.065
0.063
0.063
0.126
0.054
0.041
0.091
0.069
0.052
0.104
0.116
-0.021
0.073
0.048
0.150
-0.161
0.054
0.107
0.010
-0.018
0.069
-0.028
-0.095
0.183
0.001
-0.073
-0.020
0.110
0.044
-0.002
-0.007
-0.019
0.123
0.022
0.078
0.100
0.029
-0.012
-0.051
0.105
0.069
0.044
0.020
0.105
0.095
0.151
0.124
0.164
-0.050
-0.016
0.079
0.009
0.062
0.104
0.091
0.050
0.101
0.076
0.018
0.086
0.092
0.113
0.085
-0.017
0.090
0.010
-0.018
0.017
0.112
-0.043
-0.051
0.026
0.045
-0.064
-0.044
0.035
-0.032
-0.072
0.047
-0.066
-0.101
-0.055
-0.040
0.025
-0.028
-0.154
0.000
0.015
-0.055
0.020
-0.128
-0.113
-0.155
-0.065
0.003
-0.105
-0.011
-0.020
0.043
-0.149
0.019
-0.079
-0.031
-0.168
-0.038
0.098
-0.085
-0.081
0.013
0.079
0.045
0.006
0.114
0.038
0.078
0.006
0.017
0.082
0.129
0.045
0.128
0.123
0.118
0.134
0.023
0.125
0.124
0.017
0.104
0.122
0.007
0.080
0.141
0.054
0.083
0.144
0.089
0.141
0.053
0.044
0.016
0.074
0.086
0.152
-0.008
-0.034
0.113
0.048
-0.068
0.016
0.054
0.088
0.153
-0.074
0.011
-0.071
-0.014
-0.008
-0.037
0.011
0.053
-0.016
-0.129
-0.074
-0.105
0.035
0.065
-0.042
-0.029
0.034
-0.079
-0.047
-0.010
0.037
0.017
-0.019
-0.068
0.027
-0.033
-0.005
-0.104
0.025
-0.059
0.074
-0.191
-0.056
-0.059
0.023
0.056
0.009
0.048
-0.084
-0.032
0.123
0.055
-0.036
0.094
0.180
-0.046
-0.067
0.098
0.062
0.137
0.081
0.048
0.028
0.108
0.098
0.032
-0.408
-0.115
0.066
0.010
0.418
0.294
0.131
-0.073
-0.117
-0.141
0.135
0.168
0.213
0.085
0.108
0.171
0.216
0.031
-0.100
0.039
-0.111
0.018
0.055
-0.002
0.036
0.093
-0.183
-0.063
0.018
-0.000
-0.003
0.065
0.085
-0.042
0.060
-0.124
0.112
-0.027
-0.012
-0.069
0.053
-0.094
0.045
0.031
0.029
-0.017
0.061
-0.003
0.026
0.052
-0.038
-0.160
0.016
0.151
0.043
0.042
-0.092
0.064
-0.059
0.086
0.120
-0.023
0.106
0.066
-0.024
-0.104
0.036
0.040
-0.029
0.007
0.018
0.033
0.008
-0.031
0.136
-0.002
-0.015
-0.051
0.003
-0.025
-0.039
0.153
0.044
-0.042
0.076
-0.041
0.040
-0.020
0.192
-0.035
-0.003
0.032
0.122
-0.035
-0.034
-0.039
0.055
0.002
-0.049
0.119
0.065
0.008
-0.016
0.061
0.041
-0.009
0.154
0.022
0.029
-0.029
0.108
0.123
0.028
0.043
-0.021
-0.049
-0.023
0.147
0.102
0.092
-0.051
0.003
0.038
0.056
-0.007
0.008
0.045
0.109
-0.045
0.023
0.156
0.077
-0.103
0.027
0.033
0.182
-0.002
0.019
0.062
-0.025
0.051
0.017
0.016
0.105
0.133
0.009
0.027
-0.017
-0.152
0.063
-0.023
-0.028
0.079
-0.017
-0.050
0.133
0.021
-0.018
0.069
0.002
0.022
0.007
-0.045
0.127
0.010
0.023
0.032
0.089
0.003
0.010
-0.153
0.026
0.074
0.010
0.047
-0.051
-0.008
0.076
0.076
-0.054
0.033
0.024
-0.025
0.133
-0.050
-0.109
0.034
0.108
0.063
0.123
0.162
-0.083
-0.003
0.019
0.001
0.016
-0.006
0.038
0.059
0.104
-0.050
-0.050
0.106
-0.053
-0.046
0.011
0.004
-0.022
0.078
0.087
-0.084
-0.003
-0.005
-0.004
0.054
0.091
0.011
0.110
-0.003
0.055
0.039
0.017
-0.008
0.028
-0.087
-0.010
0.047
0.091
-0.011
-0.030
-0.052
0.054
0.018
0.015
0.061
-0.030
0.049
0.017
-0.018
0.089
-0.163
0.122
0.103
0.010
-0.003
0.003
0.071
-0.097
-2.413
0.250
1.301
1.047
0.401
-0.029
-0.274
-0.372
-0.131
-0.012
0.012
0.320
0.430
0.323
0.395
0.183
0.161
0.061
0.051
-0.013
-0.037
-0.191
-0.125
-0.211
-0.016
0.037
-0.169
0.055
0.014
0.044
0.145
0.079
-0.068
0.118
-0.006
0.027
0.102
0.140
0.007
-0.129
0.014
0.168
-0.016
-0.059
-0.051
-0.288
-0.706
-0.383
0.038
0.438
0.644
0.313
0.068
-0.130
-0.025
0.022
0.051
0.207
0.211
0.348
0.384
0.245
0.283
0.153
0.092
-0.104
-0.017
0.063
-0.135
-0.212
0.022
-0.086
-0.033
-0.032
0.048
0.002
-0.037
0.013
-0.099
0.004
0.046
0.089
0.034
-0.085
0.056
-0.052
0.016
-0.073
0.008
-0.067
-0.003
0.053
0.018
-0.069
0.038
0.004
0.086
0.047
0.038
-0.001
0.103
0.041
0.086
-0.075
-0.046
0.154
0.058
0.057
0.013
-0.052
0.033
0.048
-0.050
0.074
0.125
0.043
0.014
0.050
0.043
0.070
0.003
0.078
0.035
-0.016
0.061
0.015
0.001
0.038
0.036
-0.104
-0.155
-0.031
0.012
0.040
-0.101
0.047
0.204
0.110
0.052
0.039
0.036
-0.065
-0.076
0.148
0.101
0.122
0.091
0.086
0.089
0.132
-0.079
-0.088
-0.022
0.062
0.056
0.002
-0.049
-0.024
-0.052
0.041
-0.072
-0.034
0.223
-0.009
0.018
-0.061
0.056
-0.048
0.075
0.076
-0.054
0.034
-0.044
0.044
0.069
0.074
0.013
-0.050
-0.009
0.044
0.083
-0.043
-0.104
-0.010
0.065
0.118
0.051
0.101
-0.040
0.111
0.110
0.064
-0.023
-0.022
0.003
0.048
0.097
0.023
0.066
0.017
-0.067
-0.011
0.130
0.015
-0.031
-0.017
0.057
0.047
0.010
-0.057
-0.025
-0.035
0.040
0.096
0.003
-0.030
0.070
0.044
0.065
-0.044
-0.037
-0.000
0.012
0.129
-0.005
-0.111
0.083
-0.007
0.027
0.018
0.082
0.007
-0.033
0.007
-0.003
0.017
0.076
0.023
-0.029
-0.071
0.052
0.014
0.130
0.074
0.001
-0.013
-0.029
0.040
-0.053
0.004
-0.032
0.013
0.151
0.032
0.153
0.010
-0.028
-0.089
0.012
0.038
-0.029
0.072
0.047
0.061
-0.067
-0.046
0.011
0.032
0.062
0.003
-0.058
-0.029
-0.002
0.118
-0.015
-0.109
0.056
-0.107
0.103
0.150
-0.035
0.080
0.102
0.017
0.035
-0.039
-0.078
0.064
0.077
0.118
0.102
0.000
-0.055
-0.097
0.001
0.212
-0.057
-0.113
0.062
0.139
-0.048
-0.043
-0.053
0.030
0.085
-0.048
-0.029
0.080
-0.108
0.091
0.008
0.017
0.121
0.040
-0.140
0.132
0.029
0.051
-0.009
-0.079
0.054
0.055
0.054
-0.071
0.121
0.029
0.086
-0.048
0.022
0.051
-0.013
0.012
0.088
0.049
0.049
-0.033
-0.005
0.126
-0.073
0.038
-0.022
0.041
0.070
0.059
-0.053
0.143
-0.070
-0.024
-0.002
-0.001
-0.001
0.068
0.144
0.152
0.050
-0.073
0.046
0.033
-0.018
0.134
-0.039
-0.061
0.174
0.029
0.009
-0.002
0.033
-0.004
0.044
-0.110
0.010
0.049
-0.086
0.043
0.009
0.028
-0.090
0.009
0.035
0.102
-0.035
-0.005
0.142
-0.043
0.115
-0.028
0.008
0.010
0.070
0.147
0.101
0.017
-0.058
0.077
0.006
0.011
0.047
0.005
0.051
0.044
0.039
0.050
0.005
0.011
0.094
-0.004
-0.049
-0.148
0.019
0.154
0.076
0.106
-0.053
0.129
-0.024
-0.001
0.037
-0.080
0.012
0.117
0.067
0.031
0.078
0.088
0.005
0.104
-0.082
-0.020
0.010
0.074
0.088
0.053
-0.081
-0.046
0.033
0.163
-0.035
-0.031
-0.021
-0.062
0.005
0.088
0.015
0.134
0.066
-0.026
0.102
-0.085
-0.041
-0.015
-0.073
-0.062
-0.115
0.040
-0.512
-0.664
0.851
0.898
0.452
0.128
-0.217
-0.164
-0.202
-0.032
0.040
0.170
0.444
0.269
0.209
0.133
0.092
0.196
0.152
-0.079
-0.057
-0.104
-0.047
-0.164
-0.153
-0.006
-0.084
0.103
0.007
0.053
0.053
-0.154
-0.050
0.018
0.144
0.137
0.114
0.051
-0.040
-0.006
0.035
-0.073
0.151
0.111
0.026
0.097
0.203
0.033
0.016
0.122
0.113
0.078
0.029
0.102
0.001
0.025
-0.012
0.076
0.092
0.143
0.040
-0.083
0.107
0.094
-0.138
0.083
0.030
0.100
0.027
0.087
-0.041
0.000
-0.079
0.059
-0.041
0.015
0.012
0.060
-0.011
0.030
0.103
0.008
-0.025
-0.010
-0.006
0.098
0.016
0.043
0.151
0.041
-0.049
-0.034
0.024
0.020
0.003
-0.102
-0.069
0.044
0.061
0.067
-0.140
0.011
0.132
-0.037
0.041
0.075
-0.060
-0.150
0.015
0.119
-0.055
-0.172
0.075
0.056
0.050
-0.119
0.096
-0.056
-0.089
0.023
0.026
0.083
0.073
0.039
-0.032
-0.084
0.168
0.035
0.048
0.074
-0.021
0.077
-0.028
-0.033
0.107
-0.096
-0.010
0.035
0.066
0.046
0.070
-0.009
-0.038
0.003
-0.012
-0.057
0.104
-0.031
-0.020
0.045
0.151
-0.073
0.024
-0.076
0.073
0.112
0.008
-0.010
-0.029
0.063
0.014
-0.060
-0.028
0.026
0.073
0.022
0.009
-0.009
0.024
-0.073
-0.004
0.017
0.065
-0.081
0.064
-0.072
0.123
-0.014
0.078
0.049
-0.086
0.147
-0.005
-0.020
0.087
0.145
0.007
-0.068
0.004
0.005
-0.133
-0.070
0.214
0.056
0.029
-0.005
-0.103
-0.005
0.020
-0.122
-0.050
0.008
0.048
0.059
0.134
-0.082
0.099
-0.051
-0.003
-0.017
-0.006
-0.004
0.056
0.073
-0.006
0.031
0.010
-0.075
0.134
0.057
-0.019
-0.105
-0.060
0.022
0.067
-0.108
-0.098
0.004
0.026
0.147
-0.059
-0.071
-0.074
0.072
0.075
0.026
-0.013
-0.085
0.047
0.050
-0.007
-0.052
-0.036
0.079
0.054
0.016
-0.086
0.124
-0.094
0.044
0.049
0.010
0.029
0.007
-0.126
0.022
-0.022
-0.804
-0.725
0.322
0.587
0.488
0.145
-0.042
-0.302
-0.126
0.067
0.130
0.164
0.160
0.326
0.211
0.136
0.122
0.220
0.105
-0.070
-0.024
-0.050
-0.134
-0.009
-0.086
-0.021
-0.039
-0.022
-0.117
-0.038
-0.027
0.001
-0.205
0.160
-0.084
-0.052
-0.027
-0.020
0.131
0.084
-0.067
-0.078
-0.109
-0.038
0.067
0.185
0.227
0.028
0.052
0.036
0.140
0.068
0.073
-0.018
0.188
0.061
0.033
0.120
0.115
0.072
0.027
-0.053
0.028
-0.029
0.090
0.088
-0.004
-0.009
0.000
0.007
0.032
0.093
0.071
-0.289
-0.115
0.068
0.150
0.105
-0.001
-0.020
-0.096
0.127
0.030
0.007
-0.053
-0.025
0.162
0.062
0.132
0.072
-0.071
-0.041
-0.032
-0.001
-0.090
0.022
0.062
0.012
-0.097
0.086
0.106
0.057
0.003
-0.036
0.056
0.039
0.049
-0.041
0.066
0.118
0.068
-0.054
0.042
-0.034
0.155
-0.027
-0.250
-0.540
-0.372
-0.252
-0.072
0.110
0.371
0.373
0.093
0.013
-0.117
-0.067
0.043
0.118
0.208
0.243
0.272
0.257
0.298
-1.090
-0.013
0.365
0.431
0.102
0.030
-0.364
-0.189
-0.206
-0.155
0.016
0.066
0.169
0.143
0.171
0.044
0.028
0.022
-0.003
-0.021
0.068
-0.138
0.077
-0.003
-0.052
-0.053
-0.003
0.018
-0.116
-0.001
0.102
0.063
0.072
0.136
-0.043
-0.004
-0.060
0.013
-0.011
0.010
0.016
0.082
0.046
-0.002
-0.057
-0.093
0.041
0.075
0.069
0.052
0.138
0.016
0.106
-0.019
-0.016
0.110
0.115
-0.085
0.062
0.068
0.134
0.033
0.033
0.043
-0.071
0.074
-0.036
0.106
0.063
-0.064
0.048
0.040
0.125
-0.030
0.038
0.045
0.064
0.035
-0.004
0.043
-0.072
-0.033
0.023
-0.019
-0.024
-0.033
0.103
-0.005
-0.131
-0.036
0.076
0.030
-0.022
0.011
0.102
-0.026
0.063
0.018
0.064
-0.088
0.065
0.025
0.051
0.026
0.138
0.084
0.111
0.013
0.056
-0.046
0.010
0.055
0.001
0.148
0.044
-0.053
0.092
0.007
-0.012
0.082
0.098
0.008
0.034
0.041
0.073
0.024
-0.072
0.124
0.035
0.019
0.002
0.054
0.098
0.067
0.015
0.041
0.106
0.003
0.199
-0.045
0.009
0.007
-0.091
0.051
0.025
0.044
0.097
0.022
-0.024
-0.004
0.031
0.045
0.035
-0.080
-0.060
0.084
0.033
-0.146
-0.073
0.040
0.008
-0.045
0.058
0.014
-0.034
0.090
-0.000
0.092
0.028
0.020
0.018
-0.117
0.086
0.148
0.008
-0.065
-0.023
0.117
-0.017
0.051
-0.018
-0.134
-0.083
0.052
-0.001
0.083
0.037
0.068
-0.047
0.066
0.037
-0.080
-0.087
0.083
-0.030
0.105
0.007
-0.039
0.057
-0.021
-0.035
-0.030
0.056
0.002
0.012
0.080
-0.005
0.026
-0.020
-0.064
0.031
-0.004
0.079
0.073
-0.018
-0.084
0.058
0.122
-0.018
-0.001
-0.072
0.066
0.008
0.026
-0.071
0.071
0.030
0.038
-0.029
0.043
0.082
0.076
-0.049
-0.128
-0.166
-0.004
0.201
0.206
0.196
-0.007
-0.154
-0.100
0.090
0.017
-0.020
0.139
0.094
0.146
0.095
0.048
0.101
-0.031
0.088
0.052
0.083
0.030
-0.121
-0.032
-0.037
0.045
0.045
-0.030
-0.034
0.096
0.033
0.120
-0.056
-0.087
0.022
0.065
-0.037
-0.059
0.028
0.131
-0.006
-0.081
-0.041
-0.049
0.001
-0.008
0.038
0.052
0.093
0.024
0.014
0.018
-0.363
-2.109
-2.651
0.845
2.111
1.588
0.490
-0.239
-0.546
-0.356
-0.072
0.131
0.419
0.555
0.678
0.552
0.555
0.391
0.068
0.111
-0.002
-0.189
-0.277
-0.340
-0.202
-0.275
-0.280
-0.223
-0.319
-0.096
-0.073
0.033
-0.030
0.044
-0.120
-0.015
-0.079
0.060
-0.025
0.077
0.016
0.122
0.020
-0.017
0.009
0.083
-0.014
0.132
0.159
0.183
-0.029
0.117
0.047
0.065
0.105
0.189
-0.013
0.146
0.083
0.081
0.016
0.103
0.141
0.086
0.159
0.082
-0.007
0.084
-0.002
0.088
0.119
0.145
-0.055
0.133
0.035
-0.020
-0.018
0.053
0.060
0.094
-0.042
0.006
0.053
0.009
-0.044
-0.047
0.039
0.056
0.097
-0.023
-0.125
0.022
0.029
0.026
-0.080
0.066
0.000
-0.034
0.054
-0.012
0.068
0.022
-0.032
0.133
0.037
-0.093
0.013
0.021
0.081
-0.090
0.023
0.015
-0.096
0.098
-0.082
0.007
0.131
0.037
0.005
-0.075
0.113
0.051
-0.014
-0.043
0.023
0.034
0.172
0.151
0.000
0.029
-0.048
-0.009
0.007
0.106
0.055
-0.000
0.013
0.091
0.032
0.002
0.035
0.025
-0.091
0.062
-0.027
0.026
0.048
-0.042
-0.068
0.008
0.158
-0.002
-0.055
0.138
0.081
0.050
-0.114
0.022
0.020
0.100
-0.053
-0.010
-0.115
0.059
-0.040
-0.022
0.106
0.043
-0.070
-0.010
0.017
0.031
0.076
-0.025
0.046
-0.006
0.086
0.080
-0.081
0.017
0.083
-0.015
0.117
-0.073
0.055
0.016
-0.047
-0.035
0.019
0.123
-0.005
-0.026
0.045
0.010
-0.061
0.002
0.153
0.131
0.006
0.048
-0.043
0.004
0.023
-0.064
0.042
0.136
-0.002
0.028
-0.094
0.054
0.081
0.104
-0.054
-0.205
0.094
-0.062
-0.051
0.082
0.036
0.051
0.099
0.059
-0.134
-0.017
0.005
0.051
-0.108
0.077
0.058
0.041
0.062
0.030
0.049
-0.118
-0.057
0.075
-0.004
-0.044
0.128
0.046
-0.025
-0.013
-0.006
0.079
0.125
-0.036
0.039
-0.026
0.089
0.003
0.021
0.071
0.086
-0.046
0.017
-0.123
0.103
0.088
0.094
0.102
0.008
0.029
-0.181
0.075
0.028
0.038
0.194
0.053
-0.140
-0.012
0.108
0.131
0.009
0.030
0.070
0.039
-2.321
-3.819
-2.346
2.688
4.187
4.516
-0.001
-3.262
-4.141
-4.338
-2.584
2.341
4.155
4.575
4.572
4.418
4.223
4.028
3.839
3.516
1.993
-0.229
-2.027
-3.306
-4.052
-4.123
-3.784
-3.280
-2.594
-1.701
-1.110
-0.395
0.049
0.404
0.602
0.916
0.765
0.655
0.506
0.370
0.410
0.377
0.353
0.355
0.340
0.357
0.355
0.356
0.514
0.620
0.492
0.537
0.459
0.615
0.486
0.313
0.367
0.349
0.384
0.256
0.227
0.218
0.158
0.155
0.171
0.128
-0.003
0.002
-0.003
-0.147
-0.136
-0.093
-0.110
-0.330
-0.249
-0.270
-0.290
-0.223
-0.272
-0.324
-0.393
-0.259
-0.372
-0.346
-0.347
-0.331
-0.432
-0.317
-0.356
-0.392
-0.183
-0.216
-0.373
-0.224
-0.267
-0.297
-0.254
-0.185
-0.131
-0.138
-0.196
-0.119
-0.322
-0.248
-0.216
0.109
-0.008
0.066
0.066
0.034
-0.095
0.035
0.054
0.030
0.006
0.092
0.227
0.358
0.180
0.130
0.033
0.202
0.095
0.070
0.057
0.137
-0.113
0.248
0.138
-0.011
0.080
0.101
0.003
-0.005
0.021
0.119
0.055
0.123
0.139
0.061
0.058
0.020
0.047
-0.138
0.057
-0.020
-0.007
-0.041
0.037
-0.092
0.038
0.107
-0.108
0.059
0.151
-0.042
0.029
-0.037
0.034
-0.029
0.134
0.016
0.042
-0.002
-0.022
-0.075
-0.000
0.088
0.132
-0.054
-0.138
0.178
0.028
0.029
-0.007
0.064
0.026
0.099
0.036
0.023
0.076
0.034
0.003
0.047
0.014
-0.106
0.016
0.098
0.109
-0.116
0.028
0.065
-0.056
-0.046
0.084
0.049
0.073
0.030
-0.199
0.027
0.095
-0.031
0.049
-0.031
-0.024
-0.139
-0.073
-0.009
-0.046
0.004
-0.035
-0.011
-0.087
-0.053
-0.100
-0.069
-0.117
-0.123
-0.108
0.003
-0.095
-0.009
0.011
-0.042
-0.016
-0.003
-0.093
0.013
-0.113
-0.021
-0.011
0.115
0.049
0.050
-0.085
-1.310
-2.906
0.907
2.150
1.690
0.638
-0.333
-0.534
-0.360
-0.204
0.110
0.407
0.486
0.619
0.632
0.540
0.511
0.184
0.035
0.053
-0.016
-0.102
-0.271
-0.313
-0.115
-0.142
-0.181
0.048
0.007
0.019
-0.100
0.003
0.101
0.108
-0.006
0.072
0.128
-0.016
0.042
0.099
-0.014
0.009
0.017
0.032
-0.007
-0.036
0.064
0.080
0.038
0.039
0.092
0.038
-0.114
0.087
0.222
0.084
-0.081
0.019
-0.043
-0.044
0.002
0.180
0.103
0.035
-0.020
-0.122
0.112
0.140
0.060
-0.014
-0.036
-0.012
0.038
-0.041
0.007
0.048
0.057
-0.083
0.011
-0.072
0.098
0.009
0.058
-0.131
0.087
-0.306
-3.076
-1.625
-3.436
-3.872
2.141
4.143
3.845
0.759
-1.490
-2.434
-1.896
-0.582
0.953
2.117
2.797
2.937
2.748
2.222
1.634
0.797
0.159
-0.476
-0.968
-1.186
-1.273
-1.269
-1.000
-0.984
-0.676
-0.525
-0.359
-0.286
-0.037
0.082
0.033
-0.113
0.008
0.065
-0.674
-3.340
1.176
3.677
4.342
2.331
-1.192
-2.982
-2.984
-1.801
-0.373
1.239
2.338
3.010
3.328
2.977
0.094
-3.219
-3.328
2.262
3.951
3.107
-0.374
-2.799
-3.462
-2.721
-1.194
0.416
1.649
2.671
2.998
3.026
2.545
1.932
1.397
0.344
-0.143
-0.514
-0.839
-1.018
-1.059
-1.003
-0.584
-0.560
-2.512
-3.345
0.598
2.334
2.173
1.172
0.123
-0.426
-0.440
-0.307
0.142
0.452
0.685
0.609
-0.667
0.058
1.517
2.071
1.439
0.310
-1.276
-2.084
-0.547
1.133
1.171
0.795
0.408
0.074
0.048
0.124
0.182
0.379
0.319
0.209
0.258
0.113
-0.006
-0.118
-0.160
-0.184
-0.221
-0.356
-0.265
-0.227
-0.326
-0.121
-0.051
-0.091
-0.152
-0.019
-0.098
0.049
-0.141
0.007
-0.125
-0.041
0.035
-0.000
-0.047
0.021
-0.073
0.081
-0.023
0.046
0.002
0.129
-0.055
0.074
0.110
0.111
0.101
0.008
0.060
0.112
-0.037
0.101
0.120
0.067
0.067
-0.070
0.249
0.140
0.036
-0.281
-0.342
0.317
0.278
0.238
0.067
0.039
0.095
-0.005
-0.029
0.033
0.125
-0.038
0.106
0.090
0.127
0.074
0.014
0.030
-0.068
-0.096
0.041
-0.066
-0.034
0.007
-0.030
-0.098
-0.095
-0.060
-0.006
-0.162
-0.043
0.085
-0.057
0.095
0.068
0.104
0.006
-0.091
-0.074
-0.021
0.104
-0.043
0.076
0.217
-0.058
-0.032
-0.037
0.166
0.076
0.007
-0.047
-0.074
0.048
-0.012
0.029
0.010
0.012
-0.048
-0.031
-0.072
0.031
-0.018
0.070
0.106
-0.073
-0.102
-0.068
-0.013
0.029
0.138
0.063
0.032
0.063
-0.041
-0.108
0.023
0.005
-0.007
0.022
0.021
-0.002
-0.003
0.130
-0.063
-0.036
-0.080
-0.050
0.028
0.037
-0.035
-0.004
0.049
0.056
-0.059
-0.118
0.156
0.006
0.095
0.073
0.045
0.034
-0.078
-0.058
0.024
0.090
0.005
0.048
0.050
0.088
0.057
0.030
0.024
0.076
-0.018
0.016
0.151
0.113
-0.030
0.025
-0.001
0.029
0.097
-0.127
0.105
0.167
0.085
-0.038
0.020
0.055
0.039
-0.068
0.048
0.140
-0.102
-0.135
0.151
0.027
-0.040
-0.075
0.098
-0.052
0.119
0.114
-0.113
-0.076
0.080
0.122
-0.043
-0.092
-0.045
0.100
-0.047
0.105
-0.004
0.037
-0.016
0.105
-0.129
-0.118
-0.039
0.067
0.063
0.037
0.065
0.086
0.071
-0.160
0.021
-0.044
-0.098
-0.007
0.148
-0.068
-0.047
0.136
-0.064
-0.076
-0.094
0.093
0.046
-0.446
0.062
0.199
0.121
0.075
0.112
-0.108
-0.073
-0.036
0.015
0.052
0.076
0.098
0.223
0.011
0.061
0.138
-0.235
-0.715
0.183
0.286
0.322
0.271
0.018
-0.195
-0.189
-0.035
0.125
0.118
0.103
0.139
0.127
0.140
0.053
0.031
-0.021
-0.023
0.070
-0.141
-0.067
0.083
-0.044
-0.123
-0.013
-0.019
0.086
0.002
-0.007
0.072
-0.206
-0.019
0.046
0.093
0.008
-0.021
-0.030
0.244
0.014
0.050
-0.093
0.053
0.120
0.011
0.037
-0.066
0.036
0.132
0.019
0.092
0.065
-0.001
0.043
0.011
0.029
0.027
-0.211
-0.011
0.172
0.200
0.109
0.044
0.075
-0.033
-0.080
-0.004
0.016
0.001
0.160
0.018
0.000
-0.037
-0.018
-0.432
-1.431
-1.036
-0.619
0.039
1.041
1.113
0.578
-0.103
-0.317
-0.245
-0.074
0.179
0.332
0.566
0.686
0.668
0.523
0.309
0.280
0.001
-0.082
-0.097
-0.369
-0.108
-0.252
-0.215
-0.216
-0.241
-0.098
-0.088
0.057
0.038
-0.083
0.182
-0.024
-0.027
-0.007
-0.101
-0.427
-1.095
-0.749
-0.234
-0.549
-0.492
-0.040
0.717
1.084
0.440
-1.290
-3.436
1.449
3.794
4.185
2.045
-0.079
-1.137
-1.175
-0.723
0.147
0.870
1.448
1.665
1.574
1.304
0.864
0.532
0.059
-0.455
-0.594
-0.858
-0.742
-0.847
-0.754
-0.593
-0.321
-0.324
-0.247
0.005
0.268
0.064
0.173
0.188
0.246
0.148
0.197
0.344
0.273
0.177
0.170
0.191
0.324
0.317
0.195
0.268
0.336
0.259
0.446
0.379
0.250
0.277
0.316
0.262
0.249
0.340
0.202
0.202
0.206
0.221
0.176
0.185
0.110
0.129
0.180
-0.031
0.102
0.050
0.112
-0.043
-0.011
0.041
0.023
0.019
-0.076
-0.061
-0.095
-0.184
-0.112
-0.026
-0.087
-0.168
-0.152
-0.185
-0.102
-0.185
-0.171
-0.027
-0.044
-0.249
-0.110
-0.095
-0.002
-0.147
-0.150
-0.046
-0.104
-0.063
-0.114
-0.014
-0.030
-0.159
-0.062
-0.083
0.014
0.082
0.016
-0.065
0.055
0.003
-0.036
0.093
-0.085
0.039
-0.008
0.045
0.021
0.049
0.059
0.068
0.119
-0.049
0.104
0.122
0.038
0.020
-0.210
-0.085
0.253
0.241
-0.015
-0.106
-0.400
-2.895
-3.914
-0.398
3.300
4.197
2.398
-0.027
-1.449
-1.742
-1.050
-0.193
0.777
1.430
1.876
1.939
1.768
1.245
0.872
0.403
-0.101
-0.423
-0.761
-0.820
-0.735
-0.633
-0.649
-0.602
-0.392
-0.304
-0.242
-0.074
0.155
0.082
0.052
0.079
0.123
0.178
0.013
0.034
0.173
0.043
0.154
0.220
0.149
0.172
0.085
0.176
0.187
0.234
0.230
0.289
0.331
0.215
0.202
0.233
0.160
0.226
0.135
0.162
0.273
0.111
0.138
0.033
0.140
0.112
0.108
0.125
0.091
0.109
0.002
0.120
-0.020
-0.039
0.007
-0.031
0.075
-0.015
-0.119
-0.053
-0.011
-0.013
-0.057
-0.184
-0.046
-0.163
-0.253
-0.153
-0.107
0.082
-0.051
-0.017
-0.028
0.086
-0.268
-0.142
-0.183
-0.130
-0.001
0.057
-0.044
-0.079
-0.119
0.131
0.044
-0.026
0.008
-0.067
-0.048
-0.041
0.024
0.062
0.024
-0.054
0.116
-0.067
-0.839
0.045
0.542
0.309
0.128
0.005
-0.024
-0.212
-0.326
-0.691
-0.476
-2.245
-2.893
-3.248
-3.451
1.980
3.110
3.230
1.807
0.836
-0.403
-0.926
-2.672
-3.818
0.306
3.511
4.370
3.959
1.056
-1.178
-1.758
-1.229
-0.437
1.047
1.797
1.993
1.614
1.795
1.811
0.938
0.008
-0.762
-1.463
-1.828
-1.760
-1.599
-1.515
-1.381
-1.109
-0.844
-0.651
-0.442
-0.231
-0.112
-0.015
0.074
0.153
0.223
-0.014
-0.928
-2.334
-3.531
-0.405
3.549
4.704
3.845
1.539
-1.731
-3.360
-3.214
-1.427
1.674
4.034
4.770
4.854
4.728
4.453
3.847
2.419
0.941
-0.122
-1.036
-1.674
-1.987
-2.061
-1.938
-1.581
-1.121
-0.919
-0.420
-0.216
-0.106
0.206
0.332
0.272
0.301
0.288
0.101
0.142
0.130
0.170
0.098
0.138
0.083
0.255
0.234
0.229
0.301
0.216
0.275
0.281
0.362
0.277
0.414
0.318
0.282
0.388
0.239
0.342
0.282
0.316
0.179
0.168
0.147
0.200
0.194
0.202
0.252
0.076
0.031
0.074
0.022
0.029
-0.007
-0.115
-0.080
-0.095
-0.100
-0.018
0.027
-0.196
-0.250
-0.255
-0.441
-1.016
-0.068
0.044
-0.251
-0.189
0.022
-1.520
-1.176
0.050
-1.041
-0.623
-2.017
0.043
1.480
1.582
0.681
-0.095
-0.478
-0.530
0.060
0.405
0.621
0.763
0.792
0.648
0.492
0.199
0.016
-0.127
-0.269
-0.390
-0.441
-0.392
-0.320
-0.351
-0.324
-0.295
-0.180
-0.192
-0.066
-0.010
0.000
0.110
0.020
-0.025
0.031
-0.030
0.237
0.134
0.094
0.174
0.204
0.070
0.113
0.188
0.194
0.231
0.116
0.297
0.227
0.192
0.135
0.272
0.198
0.317
0.172
0.137
0.155
0.336
0.260
0.166
0.127
0.004
0.167
0.051
0.250
0.248
0.109
-0.000
0.190
0.118
0.020
0.027
-0.062
0.020
0.011
0.051
-0.108
-0.072
0.028
0.062
-0.055
-0.096
-0.207
-0.006
0.039
-0.121
0.043
-0.195
-0.070
0.094
-0.020
-0.096
-0.054
-0.016
-0.015
-0.098
-0.055
-0.135
-0.052
-0.020
-0.060
-0.063
-0.111
-0.076
0.022
-0.010
0.026
-0.090
-0.039
-0.083
0.082
-0.071
0.008
-0.096
-0.015
0.074
0.020
0.008
0.051
-0.059
0.047
-0.020
0.028
0.003
0.019
0.051
-0.101
0.103
0.142
-0.024
-0.097
0.026
0.084
0.144
0.062
0.008
-0.151
0.136
0.120
-0.025
-0.132
0.131
0.019
-0.006
0.059
-0.008
0.046
0.102
0.152
0.049
-0.074
0.045
-0.057
0.131
0.141
0.062
-0.010
0.018
0.019
0.046
0.100
0.091
-0.052
0.009
0.098
0.063
0.065
0.001
-0.006
-0.089
-0.009
0.067
0.097
-0.038
0.138
0.144
-0.014
0.009
-0.024
0.141
-0.066
-0.033
-0.053
0.135
-0.019
0.075
0.046
-0.023
0.007
0.056
0.047
-0.033
-0.011
0.100
0.130
-0.126
0.037
-0.051
0.043
0.100
-0.124
-0.015
0.131
-0.141
-0.009
0.012
0.072
-0.101
0.074
-0.110
-0.128
-0.095
-0.037
0.038
0.051
-0.081
0.003
-0.055
-0.048
0.037
0.083
-0.040
0.060
-0.031
-0.123
0.032
0.121
-0.012
-0.061
0.023
0.215
-0.125
-0.416
-0.452
-0.623
-0.482
-0.020
0.255
-0.337
0.254
0.371
0.367
0.049
0.010
-0.026
0.139
0.233
0.459
0.363
0.409
0.466
0.429
0.214
0.058
-0.098
-0.307
-0.532
-0.222
0.076
0.038
-0.159
0.009
-0.122
-0.168
-0.071
0.127
0.078
-0.002
0.152
0.189
0.229
0.025
0.082
0.034
-0.052
0.002
0.029
-0.054
-0.171
-0.045
0.045
0.074
-0.088
0.004
-0.043
-0.085
-0.059
-0.042
-0.011
-0.488
-0.483
-0.379
-0.081
-0.180
-0.414
0.089
0.618
0.653
0.285
-0.060
-0.171
0.036
0.091
0.340
0.386
0.452
0.566
0.409
0.266
0.233
0.195
-0.193
-0.064
-0.319
-0.214
-0.207
-0.165
-0.114
-0.155
-0.115
-0.116
0.049
-0.049
0.010
-0.145
-0.053
0.022
-0.042
0.064
0.111
-0.086
0.088
-0.038
-0.059
-0.037
-0.085
0.070
0.039
0.023
0.174
-0.050
0.056
-0.005
0.075
0.103
0.017
-0.055
0.130
-1.042
-1.938
-2.717
1.060
1.312
1.569
1.018
0.295
-0.271
-0.555
-0.363
-0.067
0.465
0.786
0.837
0.804
0.847
0.694
0.328
0.287
-0.063
-0.134
-0.287
-0.303
-0.418
-0.409
-0.332
-0.267
-0.132
-0.156
-0.176
-0.276
0.119
0.019
-0.084
-0.053
-0.072
-0.092
0.056
-0.055
-0.012
0.063
0.023
0.024
-0.085
0.093
0.025
0.018
0.078
0.064
0.053
0.178
0.085
0.091
0.126
-0.041
0.067
0.180
0.108
0.107
-0.028
0.050
0.129
0.011
0.164
0.123
0.070
0.162
0.119
-0.049
0.003
0.179
0.146
0.107
0.106
0.034
0.078
0.060
0.062
0.009
-0.125
-0.031
0.125
0.032
0.089
0.044
-0.062
-0.130
0.029
0.019
-0.127
-0.043
0.050
0.023
0.010
-0.063
0.026
-0.022
0.011
-0.043
-0.114
0.046
0.072
0.054
-0.012
-0.005
0.016
0.051
-0.020
-0.013
-0.140
0.062
0.158
-0.092
-0.060
0.020
0.040
-0.118
-0.012
-0.125
0.052
0.126
0.118
-0.005
0.033
0.006
0.084
0.045
0.109
-0.021
0.145
-0.063
-0.085
-0.151
0.050
0.111
0.150
0.017
-0.192
0.062
-0.051
-0.131
0.115
-1.049
-0.035
0.358
0.558
0.270
-0.022
-0.022
0.002
0.004
0.163
0.204
0.084
0.314
0.111
0.125
0.206
0.210
-0.091
0.029
0.043
-0.136
-0.129
-0.166
0.005
-0.078
-0.156
0.092
-0.014
-0.036
-0.102
-0.074
-0.037
-0.006
0.087
0.015
0.118
0.171
0.050
-0.130
0.075
0.036
0.119
0.138
-0.075
-0.030
-0.007
0.142
0.012
0.061
0.092
0.053
0.051
-0.057
0.147
0.148
0.002
0.041
0.063
0.111
0.042
-0.177
-0.587
-0.981
-2.241
-2.676
-1.054
-2.681
0.740
1.853
1.278
0.474
-2.307
0.348
3.485
3.809
1.893
0.118
-1.050
-0.895
0.072
1.946
3.409
3.579
2.578
1.294
0.527
-0.117
-0.653
-0.643
-0.833
-0.884
-0.698
-1.946
-4.140
-3.142
-4.256
-0.105
3.218
4.164
1.511
-1.676
-3.576
-3.513
-1.861
0.931
3.540
4.526
4.733
4.673
4.526
4.235
2.976
1.447
0.109
-1.282
-1.948
-2.235
-2.647
-1.437
-0.739
-0.656
-0.403
-0.286
0.027
0.404
0.589
0.808
0.995
1.007
1.035
0.817
-1.029
0.888
3.825
3.738
1.990
0.288
-0.703
-0.963
-0.721
-0.119
0.459
1.069
1.201
1.269
1.212
0.881
0.259
0.572
0.534
0.371
-0.024
-0.185
-0.283
-0.258
-0.142
-0.077
-0.194
-0.025
0.073
0.194
0.121
0.149
0.128
0.185
0.142
0.059
-0.020
-0.101
-0.016
-0.220
-0.269
-0.439
-0.289
-2.131
-1.776
1.781
2.225
1.244
0.196
-0.493
-0.756
-0.562
-0.324
0.164
0.019
-0.107
0.307
0.666
-0.230
0.350
-0.545
0.438
0.619
-2.377
-0.460
0.261
0.598
0.330
-0.054
-0.059
-0.125
0.073
0.429
0.422
0.455
0.487
0.252
0.183
-0.158
-0.101
0.108
-0.124
-0.327
-0.248
-0.421
-0.354
-0.364
-0.376
-0.022
-0.023
-0.029
0.054
-0.002
0.075
0.106
0.069
0.086
0.156
0.081
0.011
-0.058
0.116
0.073
0.134
0.123
0.131
0.180
0.136
0.128
0.187
0.071
0.246
0.155
0.177
0.084
0.264
0.316
0.215
0.170
0.084
0.123
0.093
0.330
0.063
0.151
0.243
0.143
0.069
0.149
0.072
0.027
-0.007
0.103
-0.064
0.032
0.043
-0.034
0.154
-0.087
-0.005
-0.016
-0.107
0.037
0.073
-0.063
-0.178
0.007
-0.070
-0.054
-0.055
-0.054
-0.061
-0.167
-0.027
-0.123
-0.062
-0.109
-0.054
-0.103
-0.084
-0.041
-0.059
0.061
-0.141
-0.097
-0.112
-0.126
-0.129
0.011
-0.025
-0.051
-0.031
-0.107
0.027
-0.028
-0.039
-0.005
-0.023
0.062
-0.035
-0.001
0.080
-0.014
-0.007
-0.037
0.037
-0.024
0.078
0.142
-0.034
0.052
0.000
0.012
0.010
0.043
0.109
0.060
0.044
0.126
0.092
0.023
0.019
-0.062
0.014
0.126
0.137
0.075
0.040
0.051
0.086
0.135
0.030
0.022
0.001
-0.033
0.098
0.028
0.097
0.131
0.072
-0.056
-0.018
0.050
0.159
-0.009
0.144
0.085
0.090
0.037
0.024
0.077
0.060
0.038
0.142
-0.031
0.054
-0.018
0.053
0.019
-0.109
0.010
-0.097
0.085
0.064
-0.002
0.031
0.030
0.028
-0.012
-0.098
-0.007
0.100
0.076
0.015
0.073
-0.002
0.069
-0.071
-0.033
0.024
-0.052
0.074
0.026
-0.035
-0.135
-0.252
-0.043
0.162
0.249
0.057
-0.085
0.025
-0.085
-0.074
0.099
0.024
-0.008
-0.016
0.061
0.164
0.159
0.027
-0.031
0.042
0.068
0.011
0.025
-0.203
-0.012
0.030
-0.029
0.114
0.084
-0.107
0.048
-0.076
0.043
0.010
0.143
0.042
0.100
0.033
0.030
0.004
-0.033
0.012
-0.037
0.066
0.165
0.087
-0.010
-0.023
-0.014
0.121
0.091
0.017
0.039
-0.306
-0.037
0.218
0.284
0.144
0.055
-0.040
-0.052
0.033
-0.045
-0.109
0.027
0.139
0.133
0.132
0.031
0.042
-0.035
0.038
-0.043
0.129
-0.053
-0.388
-2.557
-3.873
-4.156
-3.134
2.377
4.250
4.593
0.946
-2.596
-3.849
-3.232
-0.952
1.727
3.709
4.442
4.513
4.387
3.925
2.952
1.633
0.240
-0.691
-1.598
-2.051
-2.221
-2.226
-2.097
-1.737
-1.163
-0.950
-0.658
-0.281
-0.043
0.159
0.229
0.037
0.103
0.138
-0.038
-0.227
-0.679
0.029
0.584
0.695
0.298
0.129
0.120
0.099
0.243
0.515
0.490
0.497
0.562
0.436
0.541
0.503
0.552
0.460
0.448
0.305
0.257
0.227
0.266
0.277
0.217
0.242
0.193
0.334
0.190
0.275
0.222
0.211
0.096
0.080
0.067
0.037
0.032
-0.051
-0.034
-0.057
0.025
-0.049
0.019
0.099
-0.184
-0.292
-0.088
-0.202
-0.019
-0.264
-0.155
-0.058
-0.161
-0.168
-0.111
-0.056
-0.086
-0.212
-0.120
-0.165
-0.076
-0.100
-0.268
-0.159
-0.120
-0.124
-0.169
-0.057
0.001
-0.065
-0.031
-0.143
0.075
-0.095
-0.136
0.050
0.076
0.010
0.121
-0.005
0.004
0.109
0.042
-0.002
0.063
0.135
-0.003
-0.020
0.103
0.013
0.102
-0.019
0.102
0.103
0.076
0.044
-0.012
0.017
0.108
0.044
0.053
0.000
0.075
0.021
0.016
0.061
0.035
0.036
0.114
0.037
0.127
-0.093
0.007
-0.082
0.145
0.126
-0.134
0.088
0.017
-0.040
-0.209
0.099
0.092
0.117
-0.021
0.021
-0.048
0.056
0.074
0.028
-0.066
0.133
0.014
-0.055
0.053
0.128
0.016
0.125
0.101
-0.011
0.043
0.049
-0.055
0.064
0.150
0.128
0.025
0.084
0.056
0.065
0.091
-0.032
-0.018
0.160
-0.027
0.074
0.043
0.067
0.041
-0.153
0.086
-0.033
-0.045
-0.134
0.076
0.068
0.033
-0.056
-0.001
-0.026
-0.123
0.106
-0.025
-0.008
-0.065
0.070
-0.164
-0.083
-0.028
0.053
0.012
0.004
0.039
-0.089
-0.050
-0.078
0.078
-0.046
-0.007
0.048
-0.025
-0.032
-0.213
-0.031
-0.034
0.073
-0.049
-0.000
-0.001
0.021
-0.055
0.031
0.081
0.063
0.005
0.055
-0.052
0.092
0.084
0.032
0.020
0.031
-0.012
0.089
0.038
0.033
0.048
-0.048
-0.010
-0.059
0.015
0.137
0.075
0.061
0.163
0.049
0.014
0.079
0.113
-0.055
0.134
0.108
-0.122
0.160
-0.027
0.090
0.070
0.035
-0.015
-0.007
0.112
-0.045
0.056
-0.052
0.009
0.004
0.010
0.025
0.016
0.078
-0.042
-0.323
-0.194
-0.268
0.038
0.164
0.256
0.061
0.048
-0.037
-0.202
-0.021
0.125
0.012
0.149
0.110
0.111
0.156
0.021
-0.020
-0.019
0.080
-0.034
-0.074
0.050
-0.063
-0.061
-0.087
0.002
0.115
-0.067
-0.071
-0.007
0.025
0.090
0.082
-0.143
-0.001
-0.102
0.071
0.085
-0.002
0.105
-0.043
0.076
-0.028
0.019
0.018
0.009
-0.010
-0.063
0.007
-0.706
-0.084
0.454
0.287
0.097
-2.788
1.442
3.695
4.298
3.664
0.253
-2.867
-4.244
0.618
3.280
4.012
3.310
0.740
-2.699
-1.227
0.811
1.900
2.746
3.057
2.632
1.275
0.345
-0.207
-0.415
-0.416
-0.339
-0.065
-0.114
0.115
0.052
0.019
0.066
-0.046
-0.232
-0.104
-0.100
0.067
-0.688
-1.686
0.836
1.587
1.308
0.772
0.591
0.334
0.571
0.705
0.851
0.938
1.106
1.140
1.235
0.495
-1.468
1.981
2.870
1.997
1.356
0.404
0.048
-0.258
0.081
0.394
0.568
0.659
0.700
0.787
0.742
0.480
0.528
0.312
0.058
-0.052
-0.213
-1.284
-1.603
0.371
0.605
0.385
-0.069
-0.454
-0.486
-0.548
-0.186
-0.201
-0.098
0.052
0.051
0.032
-0.059
-0.099
-0.118
-0.292
-0.433
-0.339
-0.307
-0.436
-0.390
-0.292
-0.427
-0.379
-0.174
-0.176
-0.183
-0.151
-0.302
-0.140
0.063
-0.145
-0.059
-0.175
-0.056
0.006
-0.028
-0.069
-0.174
0.080
0.082
0.095
0.022
-0.221
-0.018
0.397
0.350
0.216
0.313
0.338
0.350
0.202
0.154
0.118
0.255
0.102
0.258
0.127
0.014
0.112
0.160
0.089
-0.132
-0.143
-0.102
-0.220
-0.174
-0.091
-0.027
0.061
-0.032
-0.105
0.005
0.006
-0.010
0.157
0.146
-0.023
-0.048
0.008
0.018
-0.046
0.027
-0.025
0.095
0.150
0.205
0.064
-0.046
0.144
0.165
0.116
0.141
0.229
0.177
0.095
0.074
0.124
0.214
-0.084
0.047
-0.044
0.019
0.074
0.171
-0.004
0.115
0.004
-0.099
0.112
0.065
0.029
-0.033
0.004
0.066
0.133
0.048
0.054
0.025
-0.032
0.000
-0.025
-0.010
0.067
0.037
-0.001
-0.027
-0.057
0.071
-0.048
-0.126
-0.018
-0.082
0.044
-0.050
-0.015
-0.144
0.029
-0.139
-0.078
0.032
-0.057
-0.098
0.008
-0.111
-0.116
-0.042
0.005
-0.040
-0.073
0.058
-0.178
0.056
-0.015
-0.001
0.195
-0.085
-0.186
0.046
0.029
0.005
0.081
-0.038
0.035
0.143
-0.041
0.006
0.047
0.048
0.146
0.055
0.003
-0.141
0.150
0.029
0.201
0.195
-0.018
0.176
0.018
0.010
0.106
0.190
0.058
0.155
0.060
0.047
0.016
0.158
0.016
0.027
0.080
0.001
0.044
0.024
0.153
-0.066
0.035
0.029
-0.146
0.007
-0.011
0.089
-0.032
0.037
-0.042
0.135
-0.100
0.031
0.020
-0.102
0.031
0.004
-0.031
-0.009
0.034
0.077
-0.160
-0.008
0.028
0.009
-0.117
-0.040
0.021
0.006
0.176
-0.210
-0.035
-0.054
-0.025
-0.092
0.117
-0.003
-0.018
0.006
0.030
0.146
-0.001
-0.208
-1.007
-0.273
0.648
0.537
0.380
0.074
-0.085
-0.114
-0.185
-0.020
0.165
0.277
0.260
0.250
0.082
0.078
0.186
0.264
0.078
-0.110
-0.015
-0.093
-0.030
0.115
0.099
-0.091
-0.051
-0.149
-0.317
-0.122
0.135
0.175
0.121
0.034
0.097
0.048
0.026
-0.007
0.160
-0.071
0.041
0.122
0.107
0.038
0.062
-0.042
0.142
0.038
0.016
0.019
-0.016
0.047
-0.060
0.001
-0.036
0.010
0.036
-0.011
0.010
0.081
-0.072
-0.012
-0.039
0.054
-0.030
0.070
-0.044
-0.142
-0.262
-0.382
-0.861
-0.365
-0.481
-1.742
0.289
1.594
1.195
0.521
-0.118
-0.411
-0.395
-0.065
0.335
0.601
0.648
0.584
0.535
0.527
0.272
0.163
0.046
-0.116
-0.259
-0.440
-0.301
-0.312
-0.133
-0.257
-0.241
-0.109
-0.105
-0.009
0.100
0.058
0.021
0.070
0.029
-0.088
0.069
0.010
-0.053
0.015
-0.073
-0.023
0.016
0.156
0.089
0.031
0.100
0.076
0.117
0.090
0.085
0.022
0.196
0.057
-0.073
-0.537
-0.784
-0.851
-1.502
-2.759
-1.527
0.660
2.506
2.281
0.940
-0.061
-0.725
-0.353
-0.014
0.633
1.006
1.360
1.414
1.327
1.233
0.748
0.302
-0.029
-0.237
-0.472
-0.622
-0.646
-0.679
-0.656
-0.572
-0.411
-0.355
-0.228
-0.126
-0.056
-0.024
-0.066
-0.128
-0.062
-0.179
-0.054
0.010
0.033
-0.037
0.017
0.014
0.019
-0.020
0.141
-0.001
-0.001
0.247
0.210
0.000
0.051
0.095
0.228
0.204
0.283
0.182
0.103
0.158
0.124
0.190
0.158
0.037
0.022
0.182
0.177
0.174
0.111
0.016
0.201
0.018
0.183
0.169
0.010
-0.026
0.029
0.114
0.157
0.057
-0.031
-0.025
0.008
0.132
-0.100
0.001
0.027
-0.017
0.008
-0.012
-0.071
-0.059
0.012
-0.048
0.017
-0.103
-0.091
-0.021
0.053
0.015
-0.021
-0.225
-0.201
0.001
0.014
0.026
-0.100
-0.004
0.036
-0.044
0.040
0.043
0.028
0.012
-0.116
-0.029
-0.037
0.048
0.037
-0.015
-0.011
0.017
0.134
-0.017
0.062
-0.051
0.016
-1.285
0.059
0.608
0.509
0.321
0.015
-0.194
-0.129
-0.085
-0.069
0.024
0.020
-0.399
-1.603
-3.222
0.274
2.407
2.159
0.797
0.031
-0.413
-0.451
-0.389
-0.045
0.236
0.339
0.928
0.939
0.983
0.687
0.535
0.195
-0.087
-0.182
-0.393
-0.473
-0.421
-0.304
-0.466
-0.373
-0.374
-0.224
-0.184
-0.124
-0.075
-0.036
-0.033
-0.051
0.131
0.045
0.055
0.102
-0.030
-0.017
0.032
0.044
0.053
0.134
0.075
0.129
0.015
0.085
0.122
0.153
0.301
0.213
-0.022
-0.578
-1.003
-0.082
0.261
-2.181
0.110
2.257
1.630
0.666
-0.265
-0.288
-1.227
-0.708
0.624
1.319
1.331
1.041
0.900
0.600
0.274
0.238
0.159
0.222
0.068
-0.146
-0.032
-0.304
-0.336
-0.394
-2.342
0.079
1.191
0.728
0.173
-0.355
-0.585
-0.553
-0.582
-0.174
-0.263
0.083
0.242
0.425
0.330
0.167
0.179
0.002
-0.162
-0.072
-0.055
-0.074
-0.071
0.105
-2.174
-0.918
3.071
4.067
2.465
0.387
-0.894
-1.174
-0.908
-0.617
-3.265
-3.996
-4.129
-4.025
0.481
3.864
4.796
3.668
2.041
1.791
-0.814
-2.346
-1.646
0.893
3.430
4.218
4.325
4.203
4.037
3.827
3.338
1.889
0.229
-1.264
-2.455
-3.030
-3.274
-3.272
-2.767
-2.229
-1.587
-1.043
-0.717
-0.284
0.272
0.584
0.723
0.512
0.492
0.372
0.309
0.372
0.316
0.329
0.420
0.487
0.516
0.432
0.127
0.572
0.879
0.748
0.642
0.621
0.585
0.550
0.588
0.610
-0.349
-0.259
0.167
0.285
1.089
1.205
0.713
0.378
0.026
-0.093
-0.132
-0.375
0.178
0.662
0.665
0.545
0.621
0.174
-0.003
-0.128
-0.085
-0.046
-0.208
-0.300
-0.309
-0.226
-0.411
-0.193
-0.328
-0.413
-0.495
-0.326
-0.541
-0.518
-0.370
-0.322
-0.392
-0.357
-0.468
-0.359
-0.122
-0.194
-0.160
-0.244
-0.284
-0.144
-0.069
-0.024
-0.101
-0.091
-0.089
0.083
-0.038
-0.077
0.058
-0.106
-0.005
0.205
0.163
0.107
0.133
0.104
0.215
0.145
0.302
0.111
-0.048
0.147
0.272
0.134
0.221
0.010
0.185
0.161
0.071
0.121
0.147
0.078
0.149
0.262
0.064
0.074
0.165
0.046
0.056
0.101
0.023
0.046
0.029
0.056
-0.002
0.001
-0.140
-0.026
0.051
0.031
-0.164
-0.041
-0.080
-0.028
-0.006
0.075
-0.010
-0.158
-0.168
-0.109
-0.074
-0.415
0.091
0.190
-0.649
-2.081
-3.188
-1.184
1.569
2.087
1.202
0.411
-0.272
-0.415
-0.426
-0.162
-0.033
0.605
0.985
0.775
1.244
1.069
0.797
0.532
-0.048
-0.131
-0.296
-0.308
-0.540
-0.533
-0.314
-0.472
-0.534
-0.318
-0.054
0.119
0.611
0.306
0.103
-0.047
-0.101
-0.053
0.049
0.111
0.214
0.119
0.096
0.057
-0.041
-0.033
0.036
-0.177
-0.205
-0.262
-0.097
-0.047
-0.062
-0.056
-0.033
0.026
0.080
0.163
0.098
0.088
0.006
0.129
0.177
0.129
0.329
0.209
0.152
0.025
0.188
0.131
0.172
0.200
0.126
0.158
0.173
0.277
0.240
0.052
0.167
0.117
0.235
0.219
-0.025
0.092
0.238
-0.247
-0.938
-0.651
-0.323
-0.020
-0.023
-0.298
-0.358
-0.428
-0.551
-0.493
-0.418
-1.083
-2.488
-2.873
-1.530
0.502
1.223
-0.587
-2.615
-3.652
-1.947
1.319
2.555
2.379
1.467
0.579
0.202
0.462
0.800
1.554
1.879
2.276
2.468
2.337
1.895
1.626
0.979
0.524
-0.073
-0.634
-1.034
-1.233
-0.851
-0.640
-0.941
-1.002
-1.136
-0.986
-0.950
-0.641
-0.207
-0.170
-0.049
-0.030
-0.057
-0.181
-0.172
-0.276
-0.186
-0.154
0.074
-0.047
0.059
0.261
0.352
0.571
0.496
0.682
0.686
0.681
0.917
0.914
0.869
0.707
0.932
0.989
0.924
0.876
0.809
0.866
0.829
0.778
0.896
0.803
0.596
0.607
0.613
0.544
0.587
0.456
0.446
0.385
0.397
0.210
0.185
0.312
0.052
0.093
0.102
0.052
0.045
-0.146
-0.214
-0.193
-0.123
-0.281
-0.362
-0.365
-0.271
-0.241
-0.423
-0.349
-0.356
-0.423
-0.333
-0.236
-0.279
-0.435
-0.426
-0.422
-0.351
-0.316
-0.341
-0.241
-0.265
-0.179
-0.272
-0.313
-0.214
-0.153
-0.769
-0.429
0.241
0.181
0.073
-0.040
-0.171
-0.180
0.071
0.057
-0.015
0.110
0.018
0.042
0.140
0.118
-0.063
0.126
0.147
-0.031
-0.018
0.121
-0.033
0.065
-0.151
0.051
0.074
0.082
-0.026
0.037
0.111
0.095
-0.004
0.112
-0.027
0.129
-0.092
-0.068
0.116
0.090
0.063
0.118
-0.040
-0.031
0.012
0.011
0.077
0.053
-0.016
-0.095
0.036
0.035
0.089
0.018
0.128
0.133
0.011
0.024
0.020
-0.001
-0.001
-0.076
-0.211
-0.203
-0.074
0.067
0.153
0.183
-0.365
-0.109
0.177
0.415
0.345
0.161
0.244
0.106
0.264
0.296
0.378
0.420
0.294
0.236
0.255
0.257
0.144
0.092
-0.149
-0.079
-0.097
-0.024
-0.185
-0.126
-0.116
-0.146
-0.122
-0.152
-0.194
-0.101
-0.053
0.032
-0.243
-0.094
-0.072
-0.215
-0.104
-0.015
-0.039
-0.218
-0.154
-0.140
-0.067
-0.218
0.037
-0.050
-0.120
-0.100
-0.043
-0.065
-0.077
-0.027
-0.093
-0.268
-0.163
-0.058
-0.176
-0.563
-1.437
-2.301
-3.603
-3.049
-1.119
0.491
1.569
2.158
2.174
1.152
0.146
-0.361
-0.110
0.518
1.544
2.053
2.517
2.430
2.214
1.659
0.956
0.299
-0.087
-0.557
-0.968
-1.113
-1.046
-1.213
-0.976
-0.844
-0.686
-0.398
-0.361
-0.233
-0.121
-0.161
0.017
-0.059
0.006
0.034
-0.036
-0.026
-0.027
-0.028
0.072
-0.081
0.066
0.087
0.194
0.285
0.015
0.158
0.132
0.394
0.173
0.243
0.238
0.377
0.211
0.256
0.237
0.224
0.126
0.297
0.226
0.216
0.169
-0.029
-0.167
0.095
0.228
0.079
0.203
0.023
0.245
0.008
-0.063
0.248
0.093
0.064
0.183
0.026
-0.014
0.073
0.148
0.025
-0.075
0.052
-0.180
-0.134
-0.140
-0.109
-0.107
-0.142
-0.218
-0.160
-0.307
-0.283
-0.145
-0.168
-0.084
-0.052
-0.172
-0.060
-0.000
0.055
-0.019
-0.196
-0.066
0.091
0.012
0.121
0.015
0.029
0.088
0.044
-0.014
0.096
0.011
0.018
0.127
0.132
0.113
0.162
0.112
-0.381
-0.286
-1.892
-1.226
-0.289
0.694
0.148
0.097
0.778
0.403
0.097
-0.110
0.028
0.027
0.062
0.453
1.021
1.134
0.903
0.754
0.547
0.300
0.085
0.002
-0.156
-0.286
-0.322
-0.313
-0.413
-0.247
-0.394
-0.368
-0.191
-0.224
-0.166
-0.075
-0.026
-1.068
-3.463
-4.180
-1.875
2.845
4.260
4.561
1.730
-1.897
-3.573
-3.377
-1.874
0.379
2.527
3.975
4.395
3.764
0.960
-1.555
1.244
3.215
3.529
1.566
-0.939
-2.500
-2.837
-2.484
-1.797
-2.590
0.786
2.499
2.620
1.987
1.141
0.523
0.221
0.050
-0.176
-0.007
-0.237
-0.111
-0.032
-0.091
-0.028
0.131
0.108
0.117
0.302
0.195
-0.134
0.051
0.235
0.523
0.625
0.624
0.403
0.297
0.307
0.357
0.389
0.540
0.448
0.517
0.506
0.570
0.449
0.461
0.298
0.187
0.309
0.276
0.135
0.267
0.222
0.184
0.265
0.200
0.118
0.043
-0.019
-0.044
0.151
0.067
0.007
-0.131
-0.150
-0.218
-0.622
-0.853
-0.260
0.261
0.120
-0.269
-0.285
-0.175
-0.437
-0.184
-0.275
-0.311
0.140
0.212
0.180
-0.038
0.070
0.058
-0.065
-0.091
-0.016
-0.102
-0.201
-0.048
0.097
-0.252
-0.100
0.029
-0.178
-0.206
-0.134
-0.176
-0.148
-0.055
-0.110
0.013
-0.178
0.070
-0.017
-0.044
0.037
-0.030
0.019
0.028
0.097
0.091
0.083
-0.052
-0.237
-1.674
-1.882
-1.038
0.391
1.378
1.715
0.961
0.105
-0.473
-0.397
-0.267
0.359
0.634
0.693
0.915
0.773
0.663
0.610
0.350
0.203
-0.039
-0.103
-0.295
-0.315
-0.435
-0.339
-0.128
-0.317
-0.114
-0.070
-0.000
-0.025
-0.069
0.016
0.032
0.033
0.043
0.110
-0.073
-0.003
0.104
0.073
0.042
-0.043
0.053
0.066
0.062
0.134
0.144
0.071
0.065
0.074
0.118
0.044
0.180
0.141
-0.049
0.264
0.207
0.096
0.128
0.101
-0.038
0.040
0.121
0.131
0.047
0.126
0.115
0.103
-0.026
-0.004
0.010
-0.019
-0.002
-0.052
-0.068
-0.018
-0.024
-0.087
0.023
0.025
-0.105
-0.038
-0.042
-0.026
-0.159
-0.013
-0.073
-0.044
-0.133
-0.131
0.000
-0.080
-0.075
0.017
-0.086
-0.093
-0.069
-0.026
-0.076
0.029
0.029
0.047
-0.080
-0.094
-0.119
0.117
-0.066
-0.088
-0.030
0.019
0.004
0.040
0.106
0.059
-0.065
-0.012
0.025
0.117
0.110
-0.036
0.011
-0.052
0.211
0.093
0.146
0.011
0.035
-0.006
0.168
-0.015
0.128
0.019
0.013
0.054
0.071
0.100
-0.009
0.129
0.032
0.025
-0.026
-0.031
0.054
0.011
0.106
-0.088
0.021
0.018
0.048
0.050
0.024
0.018
0.077
-0.036
-0.058
-0.043
0.159
-0.439
-1.737
-0.021
0.681
-0.015
-0.072
-0.379
-0.634
-0.256
0.044
0.139
0.672
0.424
0.289
0.125
0.104
0.140
0.284
0.284
0.337
0.397
0.278
0.061
-0.047
0.011
-0.155
-0.144
-0.209
-0.415
-0.484
-0.306
0.098
0.195
0.113
-0.054
-0.090
-0.097
0.138
-0.013
0.076
0.043
0.148
0.226
0.142
0.004
0.128
0.067
-0.037
0.097
0.055
-0.097
-0.488
-2.353
-3.767
-4.074
-0.840
2.828
3.830
3.970
0.940
-1.928
-1.684
-0.355
0.494
1.320
2.149
2.975
3.623
3.788
3.754
3.175
2.406
1.386
0.436
-0.444
-1.101
-1.492
-1.828
-1.882
-1.763
-1.518
-1.073
-0.973
-0.735
-0.305
-0.057
0.134
0.122
0.261
0.272
0.194
0.317
0.385
0.450
0.355
0.324
0.387
0.340
0.459
0.483
0.565
0.582
0.576
0.596
0.537
0.632
0.590
0.765
0.698
0.476
0.526
0.632
0.379
0.470
0.562
0.503
0.327
0.478
0.273
0.421
0.212
0.301
0.254
0.209
0.106
0.132
0.139
-0.016
0.098
-0.083
-0.109
-0.156
-0.092
-0.133
-0.157
-0.192
-0.344
-0.322
-0.205
-0.273
-0.294
-0.249
-0.296
-0.353
-0.170
-0.330
-0.241
-0.275
-0.245
-0.254
-0.258
-0.265
-0.302
-0.146
-0.213
-0.080
-0.204
-0.233
-0.131
-0.134
-0.071
-0.052
-0.056
-0.099
-0.021
-0.063
0.027
0.059
0.032
0.065
-0.010
-0.061
0.105
0.204
0.119
-0.002
0.150
-0.067
0.147
0.154
0.062
0.118
0.083
0.153
0.090
0.071
0.064
0.082
0.137
0.014
0.097
0.180
0.027
0.067
0.009
0.089
0.065
0.095
0.034
0.140
0.036
-0.010
0.069
0.009
0.067
0.062
0.179
0.007
-0.013
-0.014
-0.073
-0.068
0.086
-0.041
0.085
0.030
-0.045
-0.016
0.102
0.130
0.067
-0.034
0.069
0.002
-0.074
-0.010
0.077
0.174
0.095
0.040
-0.019
0.003
0.006
-0.028
0.081
0.125
0.125
0.056
-0.117
-0.068
0.254
0.072
0.052
0.059
-0.034
0.109
-0.077
0.016
0.008
0.004
0.044
0.071
0.030
-0.054
-0.046
0.089
0.046
-0.052
0.038
-0.053
-0.094
-0.037
-0.112
0.033
-0.076
0.086
-0.069
-0.117
-0.141
0.125
-0.013
0.024
-0.021
-0.071
-0.122
-0.059
-0.083
-0.112
0.105
-0.066
-0.066
-0.003
-0.027
-0.008
-0.023
0.016
0.008
0.004
-0.036
0.063
0.007
0.061
-0.078
0.058
0.042
0.165
0.068
-0.098
0.130
0.019
0.034
-0.001
0.052
0.058
-0.014
-0.008
-0.078
-0.070
0.075
0.093
-0.208
-0.118
0.082
-0.188
-0.179
0.275
0.450
0.251
0.109
0.028
0.193
0.146
0.108
0.278
0.198
0.257
0.222
0.133
0.173
0.188
0.041
-0.014
-0.127
-0.114
-0.096
-0.079
-0.237
-0.151
-0.104
-0.067
-0.106
-0.131
0.034
-0.091
-0.077
-0.081
-0.169
0.032
-0.040
-0.014
0.004
0.029
-0.021
-0.051
-0.130
0.041
0.088
0.049
0.085
-0.022
-0.120
0.002
0.075
-0.033
-0.265
-0.434
-1.107
-1.977
-3.352
-0.028
3.072
2.444
0.814
-0.435
-0.631
-0.692
-1.003
-1.841
0.899
2.386
2.207
1.659
0.532
0.613
0.545
0.571
0.389
0.166
0.026
-0.036
-0.167
-0.309
-0.296
-0.199
-0.203
-0.247
-0.344
-0.224
-0.339
-0.350
-0.186
-1.266
-3.575
-4.176
-0.503
3.279
4.364
3.546
-0.104
-2.852
-3.731
-2.847
-0.832
1.580
3.493
4.434
4.575
4.497
4.227
3.638
2.438
1.985
0.927
-0.458
-1.259
-1.801
-1.825
-1.509
-1.211
-0.798
-0.508
-0.170
-0.057
-0.001
0.087
0.093
0.094
0.107
0.125
0.173
0.148
0.162
0.173
0.160
0.444
0.320
0.418
0.504
0.428
0.449
0.477
0.675
0.800
0.698
0.619
0.609
0.505
0.566
0.581
0.631
0.536
0.439
0.424
0.492
0.453
0.557
0.422
0.332
0.115
0.152
0.115
0.177
0.168
0.133
0.054
0.104
0.045
0.036
-0.076
0.035
-0.114
-0.034
-0.082
-0.188
-0.195
-0.005
-0.268
-0.139
-0.370
-0.481
-0.283
-0.423
-0.342
-0.357
-0.422
-0.657
-0.024
-0.121
-0.262
-0.305
-0.197
-0.205
-0.312
-0.144
-0.063
-0.055
-0.045
0.085
-0.062
-0.039
-0.082
-0.138
-0.125
-0.005
-0.049
-0.056
-0.202
-0.061
0.050
-0.087
-0.032
0.031
0.019
0.120
-0.215
0.025
0.253
0.234
0.271
0.052
0.055
0.086
0.132
0.112
0.186
0.140
0.293
0.106
0.079
0.098
0.135
0.228
0.081
0.007
0.240
-0.007
0.029
0.100
0.086
0.123
0.079
-0.002
0.054
-0.044
0.110
0.078
0.042
0.041
0.089
0.065
0.097
-0.143
0.047
0.053
0.057
0.130
0.009
-0.048
0.027
0.127
0.045
0.060
0.077
0.197
0.160
-0.081
-0.046
0.118
-0.054
0.179
0.065
0.021
0.035
-0.038
0.128
0.049
-0.030
0.020
0.059
-0.019
-0.077
0.003
0.041
0.114
-0.035
-0.020
-0.050
-0.054
0.013
-0.055
0.002
0.017
0.020
-0.084
-0.053
-0.015
0.021
-0.038
-0.147
-0.016
-0.151
-0.094
0.030
-0.045
-0.006
-0.028
-0.029
-0.090
0.040
0.027
-0.102
-0.120
-0.107
-0.028
0.013
-0.027
0.020
-0.037
0.017
0.017
-0.025
0.068
-0.068
-0.007
-0.051
0.075
0.046
0.053
0.072
-0.094
-0.070
0.013
-0.004
0.022
0.028
0.080
0.087
0.033
0.087
0.021
0.122
0.144
0.099
0.088
-0.002
0.062
0.091
0.055
0.142
0.171
0.138
0.153
-0.033
0.119
0.129
0.048
-0.070
0.094
0.165
0.100
0.014
0.094
0.038
0.035
0.108
0.016
0.066
0.148
-0.058
-0.036
-0.025
0.097
0.004
0.068
0.060
0.012
-0.032
-0.040
0.077
-0.114
0.021
-0.069
-0.046
-0.164
-0.028
0.011
0.058
-0.161
-0.005
0.022
-0.077
-0.072
-0.075
0.071
0.050
-0.043
-0.110
-0.083
-0.068
-0.024
0.003
0.143
-0.080
-0.120
0.028
0.010
0.072
0.014
-0.018
-0.122
-0.018
0.041
0.001
0.022
0.106
-0.058
0.100
0.043
0.057
0.035
-0.007
0.047
0.145
0.019
0.079
-0.059
-0.012
0.075
0.117
0.105
-0.125
-0.031
0.041
0.133
0.031
0.036
0.131
-0.028
0.140
-0.114
0.056
0.087
0.042
0.061
0.017
-0.046
-0.048
0.210
0.072
0.033
0.039
-0.058
0.030
-0.019
0.103
-0.106
0.028
0.107
0.033
0.080
-0.073
0.023
0.031
-0.068
0.057
0.098
-0.049
0.018
0.050
0.000
-0.016
0.060
0.053
-0.046
0.035
0.101
-0.014
-0.040
0.028
-0.018
-0.083
-0.011
-0.009
0.028
0.084
0.094
-0.007
-0.010
0.029
0.147
0.001
0.079
-0.205
-0.045
0.059
0.092
0.084
-0.036
-0.019
-0.008
0.026
-0.145
-0.183
-0.444
-0.160
0.307
0.262
0.159
0.147
-0.064
-0.058
0.072
0.029
0.082
-0.022
0.092
0.108
0.166
0.153
0.057
0.104
0.011
0.017
-0.050
0.022
-0.178
-0.066
-0.012
0.139
0.042
-0.070
0.013
0.117
0.083
-0.024
-0.079
0.004
0.089
-0.017
0.069
0.039
-0.129
0.106
0.023
-0.065
0.075
0.119
-0.011
-0.079
-0.023
0.019
0.013
0.104
-0.012
0.059
0.119
0.002
-0.068
-0.019
0.053
0.099
0.050
0.007
0.079
0.011
0.138
-0.081
0.007
0.121
-0.028
-0.070
-0.051
0.042
0.118
0.122
-0.010
0.036
-0.028
0.040
-0.037
0.055
0.067
-0.032
-0.100
0.056
0.123
-0.106
-0.035
-0.005
-0.025
-0.037
0.036
0.009
0.027
-0.019
-0.167
0.042
0.063
0.045
0.004
-0.097
0.031
0.113
-0.098
0.023
0.104
0.016
-0.055
0.040
0.048
-0.020
0.094
0.056
0.075
-0.042
-0.011
0.048
-0.039
0.088
0.008
-0.005
-0.006
0.064
0.082
-0.024
0.115
0.107
0.005
-0.145
0.058
0.032
-0.004
0.065
-0.051
-0.105
0.041
-0.045
0.058
-0.055
0.017
0.059
0.009
0.058
-0.067
0.115
-0.019
0.012
0.047
0.020
0.022
-0.007
0.094
0.043
0.100
0.046
0.096
0.069
0.022
-0.024
-0.052
-0.075
0.056
0.043
0.034
-0.015
0.053
-0.053
-0.035
0.012
-0.060
0.029
-0.112
0.177
0.116
0.008
-0.103
0.025
0.008
0.057
0.007
0.037
0.062
-0.039
-0.021
-0.029
0.094
0.110
-0.302
-1.218
0.044
0.675
0.392
0.220
0.032
-0.300
-0.159
-0.079
-0.016
0.103
0.123
0.092
0.185
0.244
0.028
0.031
0.040
0.312
0.082
0.007
-0.071
-0.018
-0.091
0.064
0.002
0.070
0.137
-0.078
-0.021
0.032
-0.086
-0.120
0.097
-0.098
-0.097
0.033
-0.025
-0.025
-0.005
-0.106
-0.053
-0.046
0.082
0.033
-0.010
-0.019
0.016
-0.002
0.200
0.048
0.030
-0.026
0.010
-0.007
0.119
0.116
-0.030
-0.029
0.196
0.130
-0.169
-1.724
-0.803
-1.660
-2.323
-0.198
1.871
0.658
0.376
-0.297
-0.433
-0.083
-0.340
-2.224
-1.422
2.907
3.880
2.939
1.619
0.841
0.577
0.495
0.783
0.945
0.876
0.736
0.590
0.333
0.018
-0.400
-0.519
-0.893
-0.918
-0.873
-0.884
-0.584
-0.689
-0.464
-2.755
-4.055
0.526
3.462
4.289
3.828
-0.949
-3.545
-4.220
-3.926
-1.538
1.937
4.111
4.725
4.806
4.685
4.551
4.302
3.388
2.377
1.705
0.378
-1.006
-1.837
-1.940
-2.986
-3.036
-1.114
-0.602
0.278
1.787
1.521
1.030
0.197
-0.035
0.052
0.180
0.494
0.737
0.904
0.988
0.898
0.720
0.760
0.627
0.578
0.424
0.291
0.145
0.219
0.169
0.573
0.558
0.637
0.423
0.433
0.434
0.516
0.456
0.337
0.464
0.420
0.305
0.426
0.344
0.281
0.169
0.157
0.118
0.126
0.181
0.053
-0.059
-0.054
0.136
-0.024
-0.077
-0.183
-0.163
-0.244
-0.116
-0.163
-0.338
-1.036
-1.641
-0.581
0.309
0.054
0.202
0.061
-0.257
-0.419
-0.781
-0.794
-0.080
0.167
0.402
0.345
0.070
-0.092
-0.043
0.029
-0.116
-0.049
-0.092
-0.229
-0.152
-0.403
-0.309
-0.117
-0.300
-0.160
-0.145
-0.171
-0.211
-0.072
-0.011
-0.092
-0.092
-0.076
-0.121
-0.572
-0.005
-0.224
0.299
0.080
0.363
0.297
0.036
-0.023
0.081
0.041
0.186
0.258
0.230
0.336
0.331
0.238
0.278
0.169
0.081
0.090
0.057
0.080
-0.054
-0.211
-0.159
0.007
0.094
0.228
0.272
-0.042
-0.099
-0.112
-0.018
0.167
0.110
0.178
0.088
0.187
0.085
0.099
0.127
0.106
0.014
0.055
0.191
0.072
0.079
0.160
0.019
0.082
0.050
0.015
-0.026
-0.013
-0.135
-0.005
-0.059
0.047
-0.031
-0.070
-0.076
-0.035
-0.093
0.049
-0.060
-0.040
-0.060
-0.023
-0.039
-0.093
-0.111
-0.060
0.074
-0.138
-0.033
-0.062
-0.042
-0.073
-0.031
-0.128
0.107
0.114
0.138
0.198
0.200
-0.012
-0.202
-0.111
0.110
0.002
-0.083
-0.044
0.017
-0.036
-0.041
0.008
-0.002
-0.164
-0.113
-0.096
-0.110
-0.008
-0.096
-0.009
0.136
0.319
0.148
0.080
-0.001
-0.003
0.144
0.211
0.244
0.415
0.076
0.047
-0.081
0.146
0.128
0.192
0.278
0.082
0.104
0.107
0.022
0.100
0.088
-0.065
0.042
0.148
0.152
0.077
0.082
0.103
0.046
0.113
0.020
0.193
0.063
0.071
0.032
-0.004
0.110
0.173
0.201
0.072
-0.299
-0.120
0.108
0.281
0.155
0.040
-0.001
-0.013
-0.027
0.042
0.047
-0.040
0.095
-0.016
0.097
-0.076
0.015
0.027
0.030
-0.047
-0.085
-0.140
-0.037
-0.011
-0.101
-0.860
-0.474
-1.495
-1.591
-1.302
-1.234
-1.058
1.777
2.164
1.109
-0.063
-0.461
-0.421
-0.176
0.343
0.838
1.095
1.092
1.279
0.974
0.628
0.345
0.167
-0.212
-0.426
-0.473
-0.700
-0.594
-0.613
-0.680
-0.690
-0.436
-0.179
-0.156
-0.120
0.215
0.148
0.102
0.087
-0.043
0.012
-0.019
0.324
0.142
0.164
0.115
0.197
0.319
0.096
0.055
0.054
0.127
0.126
0.118
0.052
0.005
0.160
-0.544
-1.074
-1.006
-1.194
-0.858
1.459
2.203
1.438
0.442
-0.355
-0.503
-0.216
0.153
0.664
0.920
0.808
0.893
0.881
0.608
0.451
0.179
0.017
-0.105
-0.196
-0.462
-0.300
-0.402
-0.379
-0.257
-0.181
-0.163
-0.147
-0.113
-0.132
-0.031
-0.132
-0.051
-0.046
0.081
-0.034
-0.075
-0.171
-0.144
-0.097
-0.003
0.097
-0.080
-0.064
0.069
0.036
0.019
-0.023
-0.009
0.068
0.083
0.198
0.036
-0.006
-0.002
0.016
-0.025
0.032
0.156
0.080
0.040
0.089
0.024
-0.606
-0.231
0.209
0.373
-0.340
0.196
0.194
0.191
0.249
0.109
0.044
0.139
0.171
0.088
0.130
0.195
0.198
0.189
0.179
-0.084
0.002
0.131
0.024
-0.072
-0.028
-0.166
-0.158
-0.087
-0.060
0.016
-0.056
-0.134
-0.059
0.032
0.008
-0.034
-0.036
0.006
-0.020
-0.080
-0.105
0.008
-0.016
0.052
0.046
0.065
-0.030
-0.122
0.036
0.045
0.052
-1.063
-1.433
-0.010
0.864
0.961
0.497
0.042
-0.122
-0.180
-0.072
0.082
-0.040
-0.256
0.162
0.485
0.443
0.195
-0.086
-0.014
-0.008
0.015
-0.252
-0.408
-0.349
-0.189
-0.157
-0.074
0.049
-0.026
0.017
-0.222
-0.268
-0.387
-0.282
0.055
0.928
0.910
0.533
0.107
-0.115
-0.127
-0.038
0.215
0.309
0.291
0.343
0.260
0.114
0.141
0.002
-0.062
-0.263
-0.214
-0.247
-0.478
-0.312
-0.245
-0.272
-0.117
-0.836
-3.068
1.393
3.349
2.510
0.986
-0.152
-0.695
-0.990
-0.746
-0.974
0.291
1.026
1.080
1.015
0.659
0.395
0.521
0.503
0.032
-1.301
-1.261
-1.450
0.945
1.476
0.557
0.016
-0.271
-0.134
0.016
0.314
0.577
0.712
0.906
0.796
0.780
0.510
0.467
0.268
0.166
-0.026
-0.086
-0.111
-0.209
-0.122
-0.103
-0.064
-0.114
-0.021
0.048
-0.021
0.093
0.222
0.073
0.151
0.068
0.109
0.159
0.046
0.083
0.016
0.058
0.165
0.102
0.022
-0.054
-0.014
0.107
0.089
0.101
-0.039
-0.057
0.102
-0.023
0.006
0.142
-0.062
-0.191
0.096
0.082
0.066
0.077
0.109
-0.386
-0.713
-0.385
-0.089
0.017
0.364
-0.034
-1.258
-0.187
-0.586
-0.442
0.421
-0.233
0.375
0.451
-0.417
-0.196
-0.063
0.242
0.387
0.547
0.580
0.435
0.258
0.025
0.102
0.172
0.242
0.185
0.041
-0.197
-0.060
-0.120
-0.109
-0.093
-0.239
-0.225
-0.239
-0.199
-0.213
-0.169
-0.102
-0.174
-0.044
-0.506
-0.516
-0.571
-1.261
-2.513
-1.775
-2.959
-3.018
-1.434
0.466
3.539
3.290
0.604
0.180
-0.301
-0.106
0.730
1.568
2.103
2.153
0.727
2.354
3.048
2.585
1.419
0.393
-0.648
-1.216
-1.358
-1.293
-1.143
-0.922
-0.693
-0.666
-0.198
-0.086
-0.102
-0.078
-0.156
-0.125
-0.044
-0.214
-0.194
-0.180
-0.124
-0.157
-0.057
0.065
-0.091
0.070
0.201
0.217
0.092
0.244
0.178
0.284
0.363
0.288
0.198
0.344
0.331
0.306
0.300
0.212
-0.076
0.462
0.649
0.454
0.315
0.344
0.133
0.194
0.174
0.308
0.330
0.241
0.296
0.134
0.235
0.206
0.181
-0.050
0.121
0.050
0.015
-0.084
-0.042
-0.013
-0.117
0.009
-0.008
-0.255
-0.082
-0.775
-0.082
0.272
0.162
-0.007
-0.171
-0.213
-0.140
-0.194
-0.186
-0.008
-0.037
-0.076
0.052
-0.106
-0.031
-0.092
-0.143
-0.061
-0.046
-0.182
-0.168
-0.002
-0.089
-0.125
-0.112
0.051
0.002
-0.033
-0.013
-0.046
0.008
-0.047
-0.222
-0.382
-1.336
-1.865
-3.556
-0.709
3.223
3.649
1.476
-0.118
-0.874
-0.875
-0.524
0.052
0.592
1.072
1.168
1.384
1.367
1.176
0.818
0.434
-0.092
-0.343
-0.457
-0.582
-0.788
-0.491
-0.494
-0.258
-0.382
-0.198
-0.164
-0.046
-0.098
0.136
-0.008
-0.214
-0.152
-0.590
-0.113
0.245
0.330
-0.226
0.007
0.248
0.222
0.066
0.138
0.051
0.363
0.252
0.204
0.325
0.328
0.344
0.257
0.225
0.181
0.090
0.113
0.141
0.158
0.117
0.138
0.073
0.042
0.215
0.083
-0.014
0.129
0.073
0.117
0.121
0.022
0.010
0.042
0.136
0.009
0.015
0.080
-0.021
0.070
-0.053
-0.064
-0.090
-0.013
-0.009
-0.023
-0.028
-0.051
0.046
-0.084
0.008
-0.099
-0.087
0.012
-0.002
-0.172
-0.003
0.016
-0.129
-0.139
-0.053
-0.087
0.038
0.021
-0.026
0.023
-0.045
-0.120
-0.081
-0.069
-0.018
-0.020
-0.154
-0.075
0.066
0.053
-0.062
0.051
-0.067
-0.043
0.169
0.192
-0.139
-0.077
0.049
-0.006
0.024
0.003
0.075
0.047
0.026
0.013
-0.032
0.012
0.060
-0.039
0.092
0.036
-0.019
0.069
0.059
0.007
0.128
0.101
-0.068
0.148
0.047
0.035
0.125
-0.074
0.072
-0.002
0.113
0.057
0.010
-0.017
-0.048
0.169
0.081
0.072
0.004
0.022
0.062
-0.015
-0.001
-0.052
0.105
-0.011
0.007
0.030
0.102
-0.110
-0.013
0.078
0.027
0.032
-0.128
0.021
0.074
-0.082
-0.149
-0.041
-0.016
0.054
0.015
-0.092
-0.462
-1.024
-0.613
0.607
0.916
0.435
0.057
-0.148
-0.177
-0.068
-0.078
0.113
0.255
0.130
0.343
0.237
0.233
0.027
-0.019
-0.024
-0.109
-0.074
-0.227
-0.034
-0.060
-0.093
-0.011
-0.106
0.162
0.011
0.040
-0.003
-0.144
-0.094
0.059
0.251
0.103
0.063
-0.005
-0.032
-0.007
-0.023
-0.027
-0.103
0.083
-0.015
0.145
0.063
0.097
0.137
-0.056
0.079
-0.002
0.019
-0.036
-0.049
0.015
0.052
0.079
-0.099
-0.378
-0.567
0.182
0.473
0.443
0.152
0.029
-0.024
0.066
-0.096
0.126
0.009
0.155
0.138
0.171
0.239
0.044
0.115
-0.009
0.056
-0.024
-0.066
0.082
-0.024
0.013
0.006
0.017
0.068
-0.124
0.045
0.068
-0.042
0.023
-0.061
0.111
0.065
0.006
0.050
-0.067
-0.042
-0.035
0.067
0.079
0.061
-0.033
-0.015
0.086
-0.237
-0.045
0.163
-0.070
-0.121
-0.088
0.064
-0.022
-0.019
-0.060
-0.113
0.007
0.106
-0.042
-0.015
0.037
0.062
0.081
0.192
0.053
0.136
-0.023
-0.039
0.159
0.026
0.022
0.177
0.071
-0.058
-0.034
0.056
0.042
0.133
-0.133
0.058
-0.076
-0.191
0.098
-0.035
0.045
0.095
-0.200
-0.058
-0.002
-0.110
0.109
0.028
0.032
-0.075
0.014
0.030
-0.022
0.041
0.036
-0.030
0.071
0.008
0.087
0.037
-0.110
0.052
-0.065
0.010
0.126
0.051
-0.044
-0.011
-0.049
0.104
0.041
0.185
0.005
0.047
-0.012
-0.077
0.011
0.098
0.138
0.075
-0.000
-0.040
0.066
-0.004
-0.001
0.117
-0.030
0.087
0.011
-0.090
-0.020
0.034
-0.090
0.080
0.031
0.065
0.021
0.025
0.049
0.018
-0.194
0.023
-0.014
0.050
0.029
0.027
-0.057
0.011
0.050
-0.015
-0.087
0.058
0.089
0.133
-0.069
-0.169
-0.011
0.027
0.050
0.027
0.155
-0.035
-0.095
0.130
-0.013
-0.101
0.043
0.032
0.224
-0.072
0.088
-0.078
0.031
-0.066
0.058
0.083
0.049
0.050
-0.025
0.053
0.024
0.066
-0.039
0.100
0.109
-0.020
-0.074
0.022
-0.016
0.014
-0.084
0.059
0.025
-0.014
0.163
0.099
-0.193
-0.057
0.008
0.003
-0.119
-0.158
-0.869
-1.220
-3.081
0.028
1.463
2.096
-1.419
-2.944
1.366
3.521
2.404
0.834
-0.218
-0.504
-0.310
0.215
0.492
1.174
1.493
1.421
1.219
0.736
0.384
0.075
-0.376
-0.433
-0.741
-0.818
-0.655
-0.774
-0.490
-0.449
-0.295
-0.161
-0.105
0.053
-0.106
0.126
0.159
0.039
0.166
0.120
0.013
0.234
0.256
0.193
0.134
0.230
0.188
0.279
0.305
0.299
0.193
0.305
0.172
0.168
0.314
0.389
0.306
0.348
0.350
0.218
0.257
0.108
0.227
0.230
0.272
0.181
0.148
-0.160
-0.217
-2.010
-3.138
-0.901
1.862
2.924
1.698
0.145
-0.855
-1.121
-0.677
0.015
0.142
0.360
0.832
1.093
1.043
0.723
0.112
-0.189
-0.465
-0.172
0.084
0.021
-0.513
-0.849
-0.865
-0.798
-0.542
-0.337
-0.111
-0.150
0.121
0.057
-0.117
-0.079
-0.066
0.056
-0.111
-0.693
-0.561
0.026
-0.200
0.241
-0.366
-0.744
-0.497
-1.241
-3.222
-1.520
0.139
-2.531
-1.504
1.733
4.086
1.375
0.332
0.166
-0.318
0.390
1.516
2.365
3.000
3.465
3.398
3.298
2.708
1.768
0.812
-0.179
-0.764
-1.296
-1.764
-1.661
-1.684
-1.354
-1.174
-1.050
-0.810
-0.395
-0.197
-0.250
-0.001
-0.037
0.033
0.017
0.207
0.155
0.081
0.054
0.264
0.336
0.308
0.408
0.184
0.456
0.470
0.512
0.381
0.559
0.602
0.614
0.499
0.621
0.667
0.547
0.508
0.546
-2.390
1.484
4.008
4.584
2.396
-0.191
-1.643
-1.785
-1.218
-0.292
0.680
1.483
1.833
1.934
1.718
1.430
0.897
0.317
-0.043
-0.373
-0.619
-0.888
-0.870
-0.879
-0.659
-0.671
-0.556
-0.350
-0.171
-0.181
-0.202
-0.095
0.030
-0.024
-0.047
-0.061
0.117
0.114
-0.056
-0.014
0.057
0.020
0.064
0.149
0.110
0.109
0.183
0.136
0.086
0.017
0.147
0.168
0.179
0.055
0.129
0.187
0.220
0.164
0.144
0.172
0.040
0.109
0.140
0.072
-0.320
-1.052
-1.646
0.076
0.593
0.001
-1.707
-0.264
1.696
1.580
0.506
-0.078
-0.455
-0.315
0.125
0.596
0.705
0.883
0.837
0.556
0.610
0.261
0.017
-0.182
-0.300
-0.385
-0.396
-0.576
-0.554
-0.439
-0.450
-0.343
-0.183
-0.328
-0.251
-0.158
-0.390
-0.036
0.135
0.020
-0.051
-0.028
0.032
-0.045
0.007
0.032
0.097
0.174
0.209
0.211
0.153
0.071
0.049
0.267
0.168
0.180
0.213
0.120
0.276
0.110
0.151
0.095
0.108
0.224
0.273
0.110
0.144
0.181
0.203
0.176
0.128
0.164
0.100
0.154
0.112
0.002
0.077
0.060
0.046
0.032
-0.025
0.063
0.060
-0.063
-0.056
-0.078
-0.132
0.015
0.035
-0.007
-0.050
-0.092
-0.068
0.004
-0.062
-0.011
-0.146
-0.148
-0.146
-0.060
-0.018
0.003
-0.056
-0.122
-0.070
-0.060
-0.123
0.093
-0.086
-0.053
-0.049
0.093
-0.038
0.006
0.052
-0.063
-0.053
0.070
0.007
0.073
0.044
-0.016
0.007
0.047
0.092
0.062
0.022
0.051
0.048
0.077
0.092
-0.002
0.014
0.072
0.005
-0.002
-0.020
0.209
0.050
0.052
0.080
0.089
0.087
0.036
-0.102
0.036
0.131
0.045
-0.027
0.029
-0.001
0.022
0.027
-0.098
0.028
0.073
0.090
-0.146
-0.017
-0.052
0.016
0.005
-0.046
-0.119
0.159
0.129
-0.093
-0.093
0.023
-0.011
0.005
0.012
-0.029
0.034
-0.004
-0.026
0.022
0.077
-0.030
0.099
0.019
-0.123
0.245
-0.015
0.014
0.027
0.097
-0.035
0.073
0.016
0.075
0.053
-0.048
0.005
0.101
-0.049
0.076
0.004
0.063
0.122
0.014
0.022
0.098
-0.021
0.063
-0.008
-0.022
-0.019
0.047
0.028
-0.202
0.051
0.213
0.229
-0.025
0.069
-0.018
-0.065
-0.102
0.065
0.019
0.083
0.028
0.046
0.005
-0.014
-0.462
-0.482
0.188
0.227
0.224
0.015
0.000
-0.305
-0.123
-0.113
-0.145
-0.019
0.061
0.106
0.096
0.304
0.265
0.200
-0.006
0.024
-0.177
0.027
-0.002
0.158
0.087
0.089
0.029
-0.108
-0.084
0.093
-0.001
0.074
-0.045
-0.020
-0.077
0.033
0.007
-0.052
0.052
0.005
0.071
-0.021
0.123
0.092
-0.035
0.080
0.072
0.014
0.089
0.075
0.059
0.008
0.058
0.116
-0.004
-0.009
0.037
0.117
0.080
0.042
-0.018
0.095
0.038
0.028
0.013
-0.114
0.106
0.014
-0.031
0.125
-0.084
0.076
0.013
0.045
-0.002
0.069
0.100
-0.015
-0.004
-0.071
-0.158
0.111
0.012
-0.053
-0.004
0.135
0.033
-0.012
-0.010
0.031
-0.013
-0.057
-0.050
-0.065
0.026
-0.067
-0.001
0.040
0.023
0.065
-0.077
-0.060
0.058
0.060
-0.029
0.092
-0.044
-0.059
0.072
0.036
0.033
0.069
0.049
0.017
-0.123
0.169
0.071
-0.030
0.009
0.055
0.103
-0.041
-0.083
-0.046
0.038
0.070
0.058
0.087
-0.025
0.046
-0.118
0.082
0.044
0.166
-0.001
-0.034
-0.020
-0.062
0.047
0.011
0.075
0.089
0.070
0.048
0.069
-0.068
-0.069
0.100
0.098
0.018
0.051
0.128
-0.028
-0.002
0.042
0.031
-0.062
0.037
0.025
-0.074
0.006
0.149
-0.050
-0.031
0.113
0.135
0.086
-0.052
-0.022
-0.131
0.182
0.027
0.075
0.103
0.102
-0.070
-0.112
-0.108
-0.059
0.063
0.094
0.123
-0.002
0.068
-0.013
-0.028
0.072
0.059
0.072
-0.065
0.010
0.083
-0.002
0.008
0.001
-0.004
-0.033
-0.022
0.087
0.060
0.044
-0.002
0.090
0.000
0.050
0.043
-0.043
-0.026
-0.094
0.032
0.088
0.064
-0.002
-0.044
0.023
0.143
0.060
-0.165
0.023
-0.077
0.143
0.013
-0.074
0.115
0.127
0.089
0.054
0.016
-0.122
-0.042
0.021
-0.005
0.098
0.136
-0.031
0.059
-0.073
-0.026
0.038
0.144
0.155
-0.049
0.013
-0.096
0.060
-0.079
0.041
0.047
0.084
-0.042
-0.162
0.150
-0.042
-0.018
0.095
0.136
-0.029
0.128
0.003
0.092
-0.056
-0.025
0.111
0.016
0.035
0.087
-0.041
0.062
-0.071
-0.007
0.068
-0.033
0.058
0.027
-0.118
0.030
0.066
-0.081
0.002
0.003
-0.012
-0.054
0.017
0.063
0.079
0.056
-0.124
0.011
0.099
0.010
0.050
0.063
0.077
0.001
0.068
0.071
-0.080
0.097
0.102
0.020
-0.043
-0.016
-0.014
0.009
-0.045
-0.002
0.088
0.235
-0.075
-0.090
-0.017
0.037
0.018
-0.034
-0.002
0.050
-0.020
0.023
-0.040
0.040
0.016
-0.014
0.047
-0.033
0.036
0.093
0.056
0.219
0.072
-0.043
-0.015
-0.202
0.010
0.102
0.075
-0.085
0.152
0.023
0.019
-0.071
0.027
0.021
0.005
-0.042
0.008
0.056
-0.040
-0.013
0.080
0.006
0.018
0.067
-0.027
0.008
0.075
-0.009
-0.005
-0.051
-0.387
0.044
0.213
0.125
0.030
0.044
0.006
-0.045
-0.047
0.153
-0.007
-0.023
0.107
-0.365
-0.071
-0.259
0.058
0.384
0.305
0.099
-0.223
0.030
0.003
-0.089
-0.032
0.093
0.174
0.213
0.173
0.042
0.046
0.046
0.108
0.052
-0.040
-0.063
-0.029
-0.112
-0.081
0.086
-0.032
-0.055
0.081
-0.156
-0.044
-0.011
-0.017
0.068
0.058
0.114
0.010
-0.032
0.058
-0.013
0.061
-0.085
0.115
0.021
0.045
0.057
0.032
0.021
0.067
0.057
0.169
-0.022
0.060
-0.003
-0.025
0.093
0.142
0.087
-0.039
0.082
-0.033
-0.035
0.088
0.022
0.160
0.013
0.065
0.064
-0.003
0.142
0.092
0.054
-0.032
0.115
-0.032
0.008
0.053
0.097
-0.009
0.078
-0.021
-0.044
0.025
-0.004
0.077
-0.111
0.063
-0.076
0.008
0.039
0.140
-0.023
0.064
0.018
0.069
0.020
0.055
-0.058
-0.084
-0.009
0.094
0.078
-0.110
0.127
-0.027
0.032
0.081
0.023
0.065
-0.039
-0.010
0.024
0.066
0.008
-0.048
0.102
-0.017
0.042
0.010
0.076
-0.011
-0.015
0.063
0.036
0.068
0.010
0.077
-0.026
-0.186
0.173
0.149
-0.155
-0.092
-0.061
-0.394
-0.790
-0.874
-0.887
-1.131
-1.043
-1.473
0.283
-1.805
-3.469
-2.755
-0.825
1.499
2.677
4.308
3.520
0.880
-1.029
-1.113
-0.019
1.773
3.328
3.974
4.055
3.923
3.469
2.437
1.165
0.039
-0.982
-1.900
-2.273
-2.432
-2.427
-2.249
-1.828
-1.423
-0.937
-0.758
-0.368
-0.194
0.105
0.112
0.231
0.227
0.329
0.167
0.169
0.197
0.351
0.372
0.307
0.372
0.313
0.528
0.572
0.659
0.694
0.590
0.689
0.565
0.685
0.670
0.718
0.706
0.670
0.625
0.630
0.560
0.506
0.456
0.538
0.501
0.352
0.299
0.373
0.230
0.316
0.202
0.307
0.040
0.095
0.030
0.034
-0.104
-0.020
-0.088
-0.077
-0.153
-0.227
-0.162
-0.256
-0.302
-0.271
-0.236
-0.405
-0.280
-0.355
-0.283
-0.298
-0.232
-0.262
-0.293
-0.374
-0.292
-0.236
-0.328
-0.267
-0.237
-0.326
-0.093
-0.142
-0.178
-0.169
-0.171
-0.171
-0.170
-0.133
-0.054
-0.027
-0.100
-0.007
-0.040
0.016
0.079
0.014
0.095
0.208
0.014
0.067
-0.059
0.219
0.073
0.190
0.041
0.179
0.019
0.038
0.177
0.049
0.233
0.128
0.044
0.153
-0.078
0.006
0.114
0.105
0.070
0.055
0.128
0.082
-0.014
-0.080
0.033
0.149
0.017
-0.091
-0.017
0.005
0.033
0.026
-0.068
-0.031
-0.034
0.058
0.036
0.047
-0.070
0.001
0.037
-0.010
0.020
0.068
-0.017
0.160
-0.021
0.133
0.049
-0.085
0.130
0.070
0.108
0.071
0.097
0.014
0.075
-0.028
0.073
0.130
0.010
0.097
0.094
0.043
0.099
-0.008
0.064
0.089
0.053
0.054
0.068
-0.016
-0.065
-0.051
0.152
0.088
0.017
-0.013
-0.132
0.111
0.062
0.081
-0.038
-0.061
0.115
0.023
-0.092
-0.041
-0.105
-0.073
-0.002
-0.051
0.006
-0.001
-0.144
-0.144
-0.092
0.054
0.076
-0.171
-0.081
-0.247
-0.014
-0.028
-0.069
-0.034
0.010
0.060
0.013
-0.077
0.009
-0.000
-0.143
-0.050
-0.113
0.152
0.098
0.073
-0.128
-0.081
0.199
0.036
0.121
0.067
-0.115
0.222
0.128
0.053
-0.018
0.164
0.103
0.013
-0.000
-0.033
0.228
0.150
0.100
0.089
0.117
0.025
0.168
-0.041
-0.006
0.028
0.122
0.155
0.007
0.008
0.045
0.117
0.178
0.012
0.002
0.017
0.115
0.028
-0.042
-0.045
0.136
0.022
0.102
-0.012
0.003
-0.043
0.009
-0.027
-0.023
-0.078
-0.181
0.032
-0.010
-0.003
-0.092
-0.113
-0.047
-0.007
-0.119
-0.089
-0.140
-0.006
-0.125
0.097
0.049
-0.046
-0.018
0.034
-0.098
0.055
-0.009
-0.047
0.114
-0.085
-0.053
-0.014
0.084
-0.003
0.002
-0.104
0.035
0.072
0.033
-0.099
0.050
-0.059
0.098
0.088
0.016
0.081
0.000
0.089
-0.030
0.136
0.097
0.018
0.080
0.008
-0.006
0.006
0.021
0.268
0.009
-0.011
-0.021
-0.106
0.219
0.038
0.023
0.037
0.101
-0.007
-0.036
0.091
0.143
0.070
0.002
0.143
-0.078
-0.084
0.058
0.098
-0.044
-0.023
-0.008
0.040
-0.014
0.007
-0.051
0.110
0.083
-0.013
0.039
-0.030
0.131
-0.034
-0.025
0.022
0.040
0.015
0.097
0.083
-0.038
-0.109
0.055
-0.018
-0.088
0.016
0.040
-0.036
0.052
0.117
-0.054
0.057
0.055
-0.011
-0.035
-0.025
-0.063
0.135
0.076
-0.001
-0.113
0.118
0.107
0.025
-0.064
-0.012
0.004
-0.005
-0.016
0.018
-0.003
-0.016
0.056
0.108
-0.033
-0.050
-0.107
-0.055
-0.115
-0.136
0.031
0.111
-0.077
-0.091
-0.103
-0.075
0.045
-0.096
-0.015
-0.030
-0.063
-0.015
-0.091
-0.034
-0.220
-1.239
-0.377
0.600
0.586
0.300
0.135
0.002
0.029
0.154
0.109
0.250
0.114
0.185
0.204
0.318
0.327
0.306
0.183
-0.005
-0.019
-0.092
-0.119
-0.289
-0.171
-0.158
-0.246
-0.104
-0.113
-0.201
-0.063
0.035
-0.101
-0.086
-0.052
-0.104
0.113
-0.072
0.046
0.049
-0.083
-0.025
0.053
0.012
0.012
-0.102
-0.028
0.136
0.006
-0.094
-0.074
-0.200
-0.231
-0.291
-0.245
0.236
0.287
0.170
0.018
0.055
0.220
0.304
0.001
0.231
0.332
0.315
0.288
0.234
0.368
0.412
0.235
0.095
0.106
0.088
0.025
-0.023
-0.084
-0.069
-0.038
-0.036
-0.048
0.010
-0.144
-0.137
0.055
0.056
-0.054
0.032
0.034
-0.072
-0.179
0.027
0.010
0.041
0.024
-0.042
-0.032
0.070
0.071
0.059
0.013
-0.072
-0.005
-0.614
-2.965
-3.936
-3.645
2.347
4.228
3.691
0.619
-1.615
-2.334
-1.699
-0.447
0.786
1.829
2.621
2.741
2.420
2.097
1.567
0.304
-1.020
-0.280
-0.143
-0.353
-0.839
-1.136
-1.161
-1.120
-0.703
-0.305
-0.151
-0.035
-0.074
-0.074
0.139
0.230
0.166
-0.052
-0.361
-2.474
-2.135
-1.574
-0.495
-1.792
-2.204
-1.897
-2.304
-2.616
0.368
-0.409
-1.106
-1.124
-0.783
-0.150
0.134
0.935
1.476
1.615
1.747
1.928
2.015
1.922
1.855
1.644
1.343
1.421
2.467
2.936
2.391
1.258
0.462
-0.035
-0.243
-0.031
-0.057
-0.094
-0.136
-0.195
-0.587
-1.029
-1.206
-1.396
-1.538
-1.423
-1.413
-1.326
-1.040
-1.038
-0.703
-0.497
-0.423
-0.220
0.020
0.056
0.316
0.413
0.411
0.362
0.340
0.682
0.568
0.616
0.689
0.825
0.724
0.854
0.837
0.997
0.946
0.913
0.948
0.957
0.957
0.720
0.773
0.854
0.849
0.771
0.796
0.670
0.561
0.599
0.365
0.450
0.549
0.347
0.164
0.191
0.098
0.057
0.115
0.153
-0.022
-0.156
-0.184
-0.178
-0.188
-0.174
-0.271
-0.354
-0.386
-0.145
-0.479
-0.403
-0.427
-0.390
-0.443
-0.404
-0.388
-0.388
-0.420
-0.444
-0.380
-0.260
-0.151
-0.457
-0.493
-0.343
-0.195
-0.280
-0.155
-0.189
-0.200
-0.198
-0.218
-0.059
-0.082
-0.100
-0.018
0.037
0.028
-0.022
0.045
-0.080
-0.050
0.126
-0.004
0.047
0.104
0.152
0.053
0.129
0.105
0.097
0.171
0.160
0.170
0.048
0.029
0.152
0.078
0.098
0.087
0.145
-0.021
0.048
0.137
-0.002
0.122
-0.001
-0.031
-0.069
0.096
0.167
-0.100
-0.101
0.082
0.152
-0.140
-0.216
-0.052
-0.668
-1.430
-3.417
-4.050
-3.699
-2.693
-0.847
0.687
0.633
-0.069
-0.735
-1.031
-0.642
-0.226
0.437
1.234
2.126
2.829
3.181
3.298
2.935
2.640
1.971
1.652
1.008
0.363
0.021
-0.403
-0.634
-0.731
-0.784
-0.786
-0.832
-0.728
-0.724
-0.704
-0.746
-0.627
-0.568
-0.468
-0.476
-0.317
-0.417
-0.489
-0.373
-0.224
-0.177
-0.116
-0.169
-0.106
0.092
0.130
0.061
0.140
0.548
0.934
0.966
0.582
0.396
0.300
0.572
0.443
0.656
0.782
0.759
0.561
0.585
0.509
0.415
0.446
0.295
0.263
0.313
0.359
0.367
0.363
0.438
0.395
0.386
0.291
0.361
0.410
0.312
0.396
0.375
0.218
0.243
0.265
0.184
0.268
0.038
0.035
0.085
0.091
0.125
-0.007
0.052
-0.019
-1.405
-0.626
-0.450
0.500
-1.633
-2.298
0.611
1.962
1.251
0.257
-0.359
-0.583
-0.419
-0.056
0.309
0.458
0.695
0.751
0.679
0.355
0.242
-0.028
-0.210
-0.347
-0.401
-0.547
-0.437
-0.549
-0.378
-0.429
-0.371
-0.232
-0.203
-0.184
-0.076
-0.198
-0.002
-0.059
-0.103
-0.050
0.007
-0.149
0.000
0.003
-0.096
-0.024
0.058
-0.016
0.035
-0.056
0.051
0.073
-0.014
0.019
0.025
0.064
0.035
0.073
0.102
0.117
0.091
-0.019
0.085
0.048
0.047
-0.037
0.129
-0.131
-0.810
-2.912
-3.087
-1.102
0.006
1.454
3.041
2.018
0.272
-0.615
-0.790
-0.239
0.157
0.745
1.477
1.769
1.582
1.348
1.093
0.685
0.255
-0.053
-0.302
-0.536
-0.682
-0.794
-0.680
-0.535
-0.478
-0.364
-0.193
-0.080
-0.055
-0.023
-0.034
0.027
0.132
0.022
0.050
-0.025
-0.053
0.136
0.045
-0.160
0.090
0.020
0.115
0.051
0.021
0.082
0.202
0.102
0.171
0.001
0.107
0.151
0.179
0.207
0.164
0.047
0.160
0.102
0.048
0.135
0.045
-0.027
0.083
-0.054
-0.165
-0.561
-0.518
-0.182
-0.055
0.278
0.338
0.141
0.018
-0.103
-0.069
-0.036
-0.020
0.090
0.128
0.125
0.133
0.291
0.142
0.127
0.072
-0.063
-0.097
-0.053
-0.136
-0.169
-0.231
-0.200
-0.118
-0.087
-0.090
-0.097
-0.028
-0.015
0.059
0.002
0.151
-0.004
-0.013
0.032
0.109
0.033
0.111
0.141
-0.008
0.046
-0.033
0.206
0.065
0.097
0.060
0.135
0.176
0.187
0.133
0.006
0.125
0.100
0.081
0.106
0.067
0.075
0.100
0.171
0.046
0.208
0.038
0.067
0.043
0.087
-0.049
0.047
-0.010
-0.064
0.093
0.019
-0.035
0.025
-0.048
0.003
-0.090
0.035
0.038
0.066
0.001
-0.131
-0.109
-0.032
0.046
-0.087
-0.058
-0.067
0.086
-0.008
-0.177
-0.096
-0.156
0.073
-0.034
-0.111
0.080
-0.064
0.052
0.009
-0.056
-0.152
-0.004
0.092
0.192
-0.063
-0.046
0.055
0.015
0.072
0.048
0.083
0.045
0.120
0.110
-0.031
0.098
-0.018
0.055
0.084
0.093
0.087
0.075
0.035
0.104
0.079
0.030
0.051
0.102
0.106
-0.003
-0.045
0.022
0.202
0.063
0.112
-0.022
0.033
-0.074
0.040
0.012
0.135
0.023
-0.116
0.102
-0.016
-0.004
-0.031
0.014
-0.003
-0.076
0.011
0.090
-0.084
0.050
-0.016
0.002
0.017
0.073
0.067
0.005
-0.060
-0.090
-0.031
0.021
-0.032
-0.073
-0.003
0.069
-0.065
0.018
-0.037
0.032
-0.185
0.060
0.048
0.023
-0.087
-0.067
0.059
0.135
0.000
0.079
-0.010
-0.056
-0.007
-0.041
-0.005
-0.080
0.025
0.100
-0.068
0.076
0.022
0.081
0.065
0.137
-0.061
0.015
0.095
0.004
0.077
0.091
0.162
0.034
0.003
-0.050
0.072
0.079
0.112
-0.076
-0.024
0.129
0.058
-0.096
0.050
-0.010
-0.039
0.039
0.083
-0.076
-0.062
-0.047
-0.004
0.059
-0.014
0.009
0.077
0.071
-0.076
-0.023
0.011
0.044
0.083
0.039
0.007
-0.018
0.008
0.069
0.000
-0.034
0.061
0.053
-0.070
-0.059
0.005
0.190
0.045
0.021
-0.048
-0.010
0.027
0.101
0.091
0.089
-0.027
-0.015
0.086
0.026
-0.053
0.008
0.094
-0.042
-0.003
-0.021
0.119
0.056
0.072
-0.138
0.041
0.053
0.103
-0.103
0.047
0.023
-0.080
-0.013
-0.121
-0.630
0.113
0.078
-0.137
-0.401
-0.424
-0.031
0.295
0.199
0.134
-0.141
-0.071
0.148
0.237
0.337
0.252
0.097
0.136
0.319
0.240
0.296
0.184
0.255
0.108
0.066
-0.036
-0.214
-0.142
-0.146
-0.168
-0.176
-0.046
-0.043
-0.092
-0.028
-0.014
-0.017
-0.119
-0.036
0.009
-0.110
0.076
0.091
0.013
-0.004
-0.017
-0.064
0.044
0.045
-0.043
0.057
0.157
0.008
0.036
-0.019
0.090
0.058
0.146
0.127
0.021
0.012
0.075
0.090
0.011
0.089
0.145
0.052
0.115
0.078
0.014
0.064
-0.025
0.124
0.216
-0.012
0.009
-0.028
0.064
0.052
0.071
0.036
0.015
-0.075
0.090
-0.025
-0.072
-0.003
0.153
0.126
-0.060
0.021
-0.069
-0.073
0.140
-0.092
-0.147
-0.052
0.094
0.034
0.040
-0.002
-0.029
-0.046
0.014
-0.079
-0.046
-0.027
0.081
0.090
0.069
-0.032
-0.007
0.015
0.036
0.068
0.015
-0.099
0.046
0.072
-0.021
0.067
-0.041
0.033
0.027
-0.012
-0.015
0.038
0.043
0.103
0.145
0.032
-0.021
-0.011
0.015
0.025
0.002
0.110
-0.068
0.021
-0.051
0.096
0.060
0.079
0.088
0.030
-0.010
-0.042
-0.078
0.012
0.008
0.073
0.109
-0.024
-0.157
0.053
-0.069
-0.002
0.073
0.123
0.001
-0.009
0.040
-0.016
0.053
-0.091
-0.035
0.043
0.022
0.140
0.034
0.043
0.090
-0.080
0.138
0.042
0.041
0.115
-0.065
-0.023
-0.074
0.083
0.147
-0.068
0.005
0.039
-0.105
0.012
-0.008
0.153
0.105
0.040
0.064
0.045
-0.076
-0.018
0.009
0.072
0.002
-0.055
-0.036
0.047
0.152
-0.018
0.015
-0.048
-0.188
0.099
0.115
0.149
0.033
-0.020
-0.014
-0.018
-0.001
0.018
0.053
0.017
0.029
0.006
-0.046
-0.004
0.078
0.036
0.043
0.020
0.067
-0.031
0.033
-0.074
-0.005
0.067
-0.025
-0.009
0.136
0.120
-0.203
0.008
0.173
0.097
0.028
0.027
-0.017
0.059
0.069
-0.023
-0.060
0.079
0.020
-0.064
0.019
0.013
0.184
0.049
-0.071
0.056
0.064
0.027
-0.062
0.028
0.043
-0.022
-0.104
0.083
0.107
-0.050
0.154
-0.050
0.110
-0.041
-0.081
0.129
0.088
0.003
0.090
0.002
0.009
0.057
0.011
0.105
0.054
-0.008
0.067
-0.044
0.100
0.133
-0.069
0.102
-0.067
-0.086
-0.010
0.092
-0.076
-0.166
-0.236
-0.106
0.237
0.322
0.125
-0.042
-0.035
-0.020
0.023
-0.042
-0.010
-0.064
0.069
0.163
0.117
0.208
-0.041
0.007
0.014
-0.036
0.083
-0.052
-0.088
-0.004
0.083
-0.054
0.012
0.105
0.116
-0.098
-0.131
-0.003
0.060
-0.099
-0.028
-0.049
0.052
-0.022
-0.081
0.096
-0.023
0.056
-0.049
0.030
-0.022
0.014
-0.065
-0.070
0.169
0.078
0.076
0.037
0.039
0.028
0.028
-0.034
-0.016
-0.010
0.172
0.058
0.072
-0.127
-0.112
0.083
0.066
-0.014
0.016
-0.046
0.001
0.064
0.068
0.038
-0.000
-0.046
-0.038
0.059
0.060
0.145
0.026
0.031
0.041
-0.028
0.093
-0.016
-0.055
0.025
-0.028
0.047
-0.124
-0.059
0.047
0.038
0.010
0.017
0.059
0.132
-0.038
0.085
0.010
0.010
-0.079
0.034
0.048
-0.056
0.021
0.127
-0.019
-0.069
0.040
0.089
-0.019
-0.009
0.024
0.024
0.167
0.085
-0.005
-0.027
-0.127
-0.105
-0.200
-0.447
-1.533
-3.574
-4.007
-4.004
-3.988
-3.694
0.026
2.566
2.038
0.625
-0.308
0.645
2.941
2.962
2.352
2.785
3.843
4.154
4.088
3.904
3.694
3.485
3.247
2.086
0.375
-1.279
-2.364
-3.059
-3.395
-3.528
-3.324
-2.660
-2.233
-1.597
-1.178
-0.500
-0.318
0.011
0.189
0.335
0.296
0.267
0.265
0.225
0.261
0.306
0.256
0.513
0.486
0.460
0.517
0.699
0.797
0.667
0.870
0.958
0.842
0.785
0.897
0.781
0.765
0.833
0.787
0.656
0.797
0.763
0.570
0.508
0.555
0.537
0.466
0.265
0.419
0.261
0.265
0.311
0.194
0.096
0.096
0.028
-0.037
-0.037
-0.023
-0.137
-0.193
-0.276
-0.183
-0.229
-0.292
-0.262
-0.324
-0.367
-0.472
-0.388
-0.323
-0.288
-0.356
-0.454
-0.451
-0.406
-0.382
-0.342
-0.196
-0.305
-0.443
-0.423
-0.247
-0.274
-0.193
-0.217
-0.104
-0.143
-0.110
-0.208
-0.054
0.024
-0.008
-0.078
0.052
-0.163
0.085
-0.068
0.137
0.012
0.104
0.055
0.166
0.180
0.117
0.079
0.144
0.107
0.101
0.033
0.277
0.189
0.096
0.077
0.145
0.031
0.038
0.025
0.190
0.190
0.078
0.043
-0.085
0.170
0.071
-0.021
-0.060
0.034
0.101
-0.052
-0.071
0.023
0.130
-0.024
-0.099
0.118
0.051
-0.015
0.013
-0.028
0.005
0.142
-0.023
0.112
-0.032
0.057
0.161
-0.053
0.161
0.123
-0.011
0.003
0.113
0.060
0.073
0.020
0.083
0.214
-0.098
0.113
0.113
0.186
0.102
0.069
-0.097
0.082
0.258
0.077
0.023
0.127
0.114
0.068
0.044
0.047
0.192
-0.049
0.035
-0.109
0.030
0.164
-0.082
0.023
0.026
0.079
-0.002
-0.096
0.013
0.076
-0.026
-0.096
-0.054
-0.069
-0.007
-0.030
-0.047
-0.095
-0.152
-0.147
-0.001
-0.060
-0.103
-0.050
-0.053
-0.067
-0.054
-0.114
0.002
-0.146
0.055
-0.043
-0.027
-0.157
0.114
0.091
-0.100
-0.082
-0.081
0.006
0.047
0.086
-0.005
-0.113
0.056
0.054
0.025
0.130
-0.003
0.074
0.043
0.086
0.170
0.107
0.015
0.110
0.280
0.100
0.036
0.077
0.127
0.071
0.025
0.066
0.149
0.121
0.139
0.123
0.153
-0.090
-0.435
-1.955
-1.518
-1.727
-3.479
-0.227
3.420
4.448
1.966
-2.233
-3.799
-4.156
-0.431
1.981
3.977
4.509
3.336
0.465
-1.645
-1.900
0.268
1.953
2.357
2.352
1.926
0.771
-0.915
-2.125
-1.986
-0.843
0.049
0.485
2.231
1.296
-0.454
-1.221
-1.258
-0.642
0.292
1.067
1.504
1.757
1.735
1.320
0.932
0.431
0.003
-0.277
-0.669
-0.802
-0.735
-0.698
-0.386
-0.452
-0.078
0.153
0.285
0.450
0.497
0.649
0.691
0.712
0.630
0.680
0.673
0.684
0.647
0.708
0.667
0.659
0.746
0.616
0.694
0.617
0.655
0.616
0.529
0.576
0.598
0.518
0.481
0.434
0.299
0.264
0.253
0.178
0.215
0.111
0.224
-0.020
0.054
0.014
-0.043
-0.024
-0.115
-0.190
-0.260
-0.207
-0.153
-0.175
-0.482
-0.268
-0.255
-0.238
-0.406
-0.392
-0.340
-0.355
-0.344
-0.253
-0.331
-0.366
-0.267
-0.299
-0.298
-0.242
-0.197
-0.181
-0.256
-0.237
-0.143
-0.144
-0.186
-0.061
-0.130
0.012
0.030
-0.113
-0.213
0.040
-0.074
0.028
0.078
0.091
0.020
-0.113
-0.106
-0.075
0.164
0.096
0.044
0.030
-0.024
0.084
0.178
0.030
0.161
0.137
0.109
0.073
-0.064
0.032
0.033
0.066
0.203
0.174
-0.088
-0.040
0.215
0.076
0.072
-0.066
0.024
0.008
0.009
0.096
0.031
0.126
0.135
-0.002
-0.005
0.042
0.027
0.084
-0.013
-0.024
0.039
0.114
0.089
0.065
0.040
0.107
0.058
0.006
0.091
-0.055
0.006
0.178
-0.015
-0.018
0.082
0.134
-0.009
-0.015
0.132
0.090
0.180
0.035
0.042
0.053
0.103
0.033
0.052
0.014
0.144
-0.034
0.076
-0.072
0.063
0.009
-0.024
0.052
-0.089
0.020
0.004
-0.034
-0.017
-0.021
-0.140
-0.027
-0.111
0.080
0.073
-0.154
-0.025
-0.093
-0.138
0.032
-0.120
-0.018
-0.004
-0.061
-0.098
-0.033
-0.103
-0.109
0.025
-0.085
-0.080
-0.006
0.001
-0.015
-0.052
0.016
-0.018
0.123
-0.066
-0.049
-0.124
0.015
0.039
-0.037
0.024
0.004
0.110
-0.007
-0.038
0.076
0.130
0.090
0.037
0.056
0.072
0.018
0.004
0.165
0.042
0.125
0.086
0.136
0.063
0.185
0.098
-0.004
-0.007
0.201
-0.018
0.039
0.078
0.088
0.070
0.099
-0.037
0.157
-0.002
0.046
0.133
0.027
0.126
0.007
-0.014
-0.016
-0.007
0.103
-0.111
0.013
0.062
-0.013
0.020
-0.142
0.037
0.002
-0.068
-0.047
0.055
-0.157
-0.182
0.051
-0.007
-0.094
0.009
-0.038
-0.114
-0.201
-0.106
0.020
0.058
-0.020
-0.024
0.047
-0.094
-0.038
-0.106
0.047
0.110
0.057
-0.044
-0.017
0.014
0.081
0.025
-0.004
0.032
-0.069
-0.091
-0.027
-0.065
0.049
0.066
0.022
-0.151
-0.636
-0.848
-0.845
-0.083
0.176
-0.012
-0.472
0.696
0.885
0.283
-0.019
-0.158
-0.032
0.277
0.435
0.468
0.573
0.555
0.583
0.422
0.336
0.178
-0.177
0.041
-0.265
-0.233
-0.210
-0.198
-0.189
-0.273
-0.086
0.122
-0.123
-0.038
-0.036
0.037
0.023
-0.043
-0.076
0.049
0.040
-0.261
-0.004
0.235
-0.007
0.030
0.082
0.067
-0.033
-0.009
0.118
0.007
0.013
0.098
0.074
-0.320
-2.447
-2.852
-0.140
1.851
1.591
0.550
-0.291
-0.706
-0.816
-0.822
-0.477
-0.169
0.336
0.663
0.973
0.942
0.908
0.164
-3.035
-1.411
2.820
3.150
3.075
-2.393
-4.060
-4.058
-1.783
0.602
1.739
2.384
2.600
2.532
2.421
2.215
2.091
1.898
2.079
2.416
1.989
1.156
0.260
-0.185
-0.360
-0.431
-0.504
-0.513
-0.635
-0.615
-0.608
-0.750
-0.682
-0.626
-0.512
-0.685
-0.345
-0.177
-0.035
0.037
0.180
0.287
0.377
0.406
0.658
0.788
0.679
0.796
0.888
0.685
0.807
0.986
0.935
0.963
0.885
0.896
0.903
0.980
0.883
0.876
0.820
0.797
0.683
0.678
0.708
0.781
0.653
0.433
0.479
0.465
0.272
0.270
0.235
0.393
0.056
0.072
0.033
-0.008
-0.140
-0.034
-0.050
-0.275
-0.234
-0.248
-0.315
-0.356
-0.444
-0.415
-0.372
-0.428
-0.338
-0.408
-0.488
-0.468
-0.427
-0.415
-0.398
-0.415
-0.417
-0.317
-0.354
-0.229
-0.387
-0.275
-0.300
-0.307
-0.303
-0.230
-0.115
-0.187
-0.226
0.026
-0.062
0.011
-0.104
-0.121
-0.031
0.096
0.105
0.075
0.007
-0.048
0.045
0.133
0.095
0.088
0.095
0.131
0.136
0.188
0.129
0.156
-0.038
0.137
0.130
0.086
0.012
0.086
0.184
0.188
-0.005
0.045
0.194
0.063
0.023
0.088
0.193
0.094
0.117
-0.026
0.038
0.100
0.142
0.032
0.017
0.060
0.044
0.011
0.161
-0.042
0.003
0.049
0.106
0.088
0.037
0.068
-0.159
0.048
0.138
0.087
0.020
0.110
0.150
0.107
-0.068
0.070
-0.049
0.119
0.138
0.057
0.073
0.220
0.073
-0.034
0.120
0.056
0.132
-0.084
0.049
0.097
0.104
0.121
0.016
-0.014
0.026
0.093
-0.016
-0.049
0.130
0.017
-0.024
-0.064
0.006
-0.131
-0.007
0.017
0.031
-0.063
-0.113
-0.169
-0.072
-0.106
-0.034
-0.147
-0.067
-0.029
-0.068
-0.064
-0.190
-0.170
-0.090
-0.074
0.012
-0.084
-0.110
-0.197
-0.031
-0.057
-0.097
-0.011
0.050
-0.073
-0.033
0.035
-0.090
-0.044
-0.037
0.002
0.006
-0.030
0.073
0.054
0.104
0.069
-0.020
0.066
0.144
0.049
0.083
0.060
0.077
0.064
0.089
0.228
0.127
-0.009
0.064
0.115
0.121
0.144
0.131
0.088
0.086
-0.496
-1.182
-0.682
0.764
1.148
0.709
0.164
-0.197
-0.224
-0.099
0.126
0.264
0.242
0.179
0.420
0.491
0.350
-2.050
-3.190
0.926
3.499
3.922
-1.933
-1.705
2.057
1.859
0.235
-0.741
-0.606
0.296
1.277
2.368
3.039
2.991
2.652
2.113
1.414
0.543
-0.246
-0.811
-1.330
-1.620
-1.697
-1.523
-1.447
-1.125
-0.682
-0.322
-0.177
0.087
-0.399
-0.119
0.580
0.801
0.689
0.492
0.195
0.200
0.375
0.333
0.407
0.826
0.929
0.875
0.776
0.726
0.661
0.665
0.752
0.722
0.593
0.813
0.735
0.702
0.587
0.507
0.577
0.526
0.243
0.326
0.387
0.255
0.272
0.150
0.175
0.108
0.165
0.154
-0.014
-0.051
-0.118
0.026
-0.045
-0.098
-0.135
-0.331
-0.151
-0.186
-0.160
-0.193
-0.257
-0.207
-0.153
-0.308
-0.284
-0.235
-0.221
-0.311
-0.305
-0.256
-0.321
-0.258
-0.187
-0.231
-0.258
-0.169
-0.131
-0.322
-0.100
-0.139
-0.070
-0.151
-0.223
-0.048
0.038
-0.089
-0.083
0.025
-0.115
-0.003
-0.040
0.015
0.017
0.075
0.119
0.111
0.085
0.010
0.076
0.073
0.051
0.090
0.049
0.172
0.061
0.057
0.137
0.103
0.013
0.027
-0.017
0.144
0.074
0.078
0.018
0.058
0.041
0.173
0.112
0.043
0.041
-0.091
0.081
0.062
0.089
-0.041
0.025
-0.101
-0.021
0.059
0.015
0.196
0.003
0.093
0.020
0.082
0.092
0.008
-0.019
0.017
0.068
0.003
0.093
0.166
0.077
-0.033
-0.022
0.156
0.062
-0.030
0.141
0.055
0.131
0.049
0.060
0.051
0.113
0.037
-0.085
-0.013
0.080
-0.006
0.060
0.152
0.102
0.038
-0.023
0.114
0.046
-0.012
-0.026
0.009
-0.021
-0.011
0.033
-0.053
0.023
-0.069
-0.037
-0.136
-0.039
-0.061
-0.046
-0.003
0.053
-0.162
-0.114
0.035
-0.060
0.100
-0.020
-0.124
-0.110
0.007
-0.005
0.006
0.014
-0.056
-0.076
-0.056
-0.118
0.033
-0.051
-0.020
-0.087
-0.020
-0.056
0.046
-0.044
0.100
-0.038
-0.164
0.070
0.139
0.024
0.024
-0.037
0.113
0.061
0.010
-0.019
0.126
0.165
0.052
0.041
0.146
0.009
0.086
-0.018
0.162
-0.045
0.196
0.036
0.149
0.169
-0.002
0.101
0.206
-0.000
0.113
0.068
0.071
0.090
0.031
-0.068
-0.040
0.073
0.201
0.067
0.052
0.066
0.093
-0.111
0.059
0.027
-0.132
0.013
0.071
0.079
-0.030
-0.095
-0.006
0.042
-0.005
0.010
-0.049
-0.125
-0.019
0.053
-0.069
-0.064
-0.038
-0.095
-0.073
-0.015
-0.023
0.142
-0.057
-0.169
-0.272
-0.303
-0.086
-0.029
-0.050
0.069
0.101
-0.013
0.034
-0.037
0.081
0.109
0.054
0.185
0.040
0.017
0.178
0.113
0.100
-0.012
-2.350
-0.427
1.195
1.065
0.496
0.006
-0.299
-0.297
-0.171
-0.025
0.123
0.314
0.131
0.038
0.473
0.548
0.294
0.121
-0.047
-0.037
-0.213
-0.249
-0.198
0.031
-0.087
-0.035
0.098
0.026
0.010
0.027
0.077
-0.027
0.038
-0.005
0.037
0.071
-0.051
0.023
-0.055
0.042
0.094
-0.018
0.012
0.044
0.145
-0.005
-0.095
0.032
0.021
0.059
0.144
-0.030
-0.067
0.105
0.121
0.066
0.094
-0.215
0.023
0.056
0.110
0.147
0.112
0.061
0.025
0.162
0.061
-0.033
0.032
-0.027
0.086
0.047
0.010
-0.067
-0.006
-0.053
-0.024
0.055
-0.000
-1.843
-1.261
-3.465
-2.439
2.689
4.187
3.320
-0.036
-2.497
-3.149
-2.045
-0.638
1.260
2.417
3.272
3.536
3.197
2.614
1.666
0.843
0.012
-0.543
-1.083
-1.403
-1.367
-1.386
-1.129
-1.088
-0.727
-0.520
-0.129
-0.170
-0.080
0.034
0.160
0.190
0.243
0.061
0.153
0.052
0.223
0.108
0.156
0.237
0.099
0.246
0.304
0.249
0.247
0.138
0.256
0.365
0.418
0.267
0.317
0.353
0.365
0.381
0.298
0.346
0.283
0.177
0.260
0.177
0.229
0.227
0.151
0.116
0.236
0.005
0.148
0.217
0.024
0.099
0.097
-0.047
-0.097
-0.006
0.034
0.028
-0.121
-0.037
-0.091
-0.146
-0.071
-0.131
-0.089
-0.072
-0.077
-0.208
-0.175
-0.079
0.025
-0.163
-0.149
-0.267
-0.101
-0.093
-0.060
-0.089
-0.053
-0.115
-0.076
0.045
-0.070
-0.040
-0.152
-0.042
0.097
-0.093
0.005
-0.075
0.036
0.032
0.056
-0.027
-0.068
0.092
-0.016
0.016
0.105
0.047
0.065
-0.045
-0.025
0.131
-0.004
0.067
0.032
0.072
0.104
0.042
0.078
0.108
-0.110
0.006
0.072
0.016
0.206
0.112
0.055
0.115
-0.098
0.051
0.029
0.118
0.124
0.026
0.041
-0.012
0.107
0.029
-0.002
-0.038
-0.024
0.009
0.017
-0.017
0.026
0.030
0.079
-0.062
0.123
0.001
0.028
-0.110
0.004
0.024
0.090
0.099
0.145
-0.194
0.058
0.009
0.185
0.125
0.022
0.126
-0.024
0.013
-0.039
0.075
0.097
-0.005
0.077
0.100
0.118
0.037
-0.068
0.066
0.041
0.115
-0.040
0.020
0.057
-0.031
0.096
0.050
0.116
0.047
-0.063
-0.086
0.017
0.044
0.024
-0.080
0.018
0.090
-0.021
-0.034
0.002
-0.038
0.076
-0.014
-0.029
-0.027
-0.056
-0.035
0.011
-0.065
0.004
-0.044
0.033
0.037
-0.029
-0.083
-0.005
0.104
0.039
0.048
-0.128
-0.154
-0.004
0.115
0.019
0.000
-0.001
-0.025
0.039
-0.052
0.101
0.015
0.129
0.056
-0.031
0.192
-0.066
0.093
0.054
0.016
-0.072
0.090
0.087
0.040
-0.079
0.154
0.094
-0.037
-0.003
0.053
0.038
0.012
0.031
-0.029
0.054
0.008
0.065
0.117
-0.019
0.034
0.083
0.045
0.084
-0.096
0.097
0.164
-0.061
-0.055
0.018
0.010
0.026
0.124
0.054
0.015
-0.027
0.017
0.046
-0.019
-0.021
0.031
-0.050
0.180
0.012
0.008
-0.141
-0.029
-0.069
0.114
0.056
-0.024
0.004
0.115
0.030
0.047
-0.219
-0.024
-0.032
0.085
0.017
-0.022
-0.063
-0.041
0.015
-0.001
-0.083
0.001
-0.123
0.078
-0.102
-0.024
-0.151
-0.070
0.061
0.052
0.045
-0.104
0.122
0.141
0.033
0.158
0.197
-0.003
-0.190
0.132
0.240
0.123
-0.029
0.227
-0.012
-0.493
-0.130
0.112
-0.479
-1.884
0.258
-1.059
0.641
3.421
3.398
1.458
-0.111
-1.054
-1.142
-0.860
-0.207
0.489
0.969
1.320
1.268
1.097
0.967
0.562
0.115
-0.136
-0.518
-0.449
-0.646
-0.631
-0.538
-0.369
-0.321
-0.183
-0.240
-0.067
0.113
0.160
-0.020
0.248
0.338
0.278
0.300
0.328
0.150
0.094
0.198
0.251
0.301
0.329
0.325
0.220
0.260
0.224
0.223
0.280
0.338
0.313
0.353
0.235
0.259
0.176
0.315
0.237
0.070
0.119
0.028
0.032
0.053
0.352
0.115
0.060
-0.048
0.093
-0.000
0.045
0.137
-0.033
-0.092
-0.117
-0.002
-0.037
-0.137
-0.105
-0.030
-0.085
-0.027
-0.043
-0.170
-0.166
-0.247
-0.099
-0.103
-0.167
-0.171
-0.045
-0.057
-0.211
-0.160
0.038
-0.074
-0.180
-0.120
-0.058
-0.099
0.053
-0.050
-0.042
-0.133
-0.014
0.044
0.050
0.027
0.004
-0.040
0.123
-0.047
-0.010
-0.078
0.108
0.206
-0.025
0.100
-0.000
0.058
-0.022
0.164
-0.021
0.089
0.075
0.061
0.143
0.115
-0.008
0.064
0.120
0.044
-0.054
-0.054
-0.001
0.044
0.137
0.052
0.176
0.068
0.125
0.102
-0.232
-0.076
0.067
-0.005
0.117
0.008
0.132
-0.097
-0.031
-0.038
-0.017
0.116
-0.092
0.018
0.101
0.094
-0.001
-0.018
-0.022
0.062
-0.043
-0.068
0.138
0.057
0.009
0.026
0.053
0.085
0.074
-0.044
0.009
0.116
0.007
0.071
-0.062
0.046
0.107
0.026
0.011
0.111
0.012
-0.061
0.050
0.165
-0.158
0.018
-0.019
0.082
0.107
-0.012
-0.030
0.073
-0.008
-0.079
0.042
0.056
0.000
-0.053
0.030
-0.073
0.002
-0.039
0.004
-0.034
-0.067
0.043
-0.117
-0.002
-0.062
-0.029
0.055
-0.107
0.047
-0.060
-0.017
0.108
0.097
-0.062
0.085
-0.084
-0.020
0.099
-0.070
0.105
0.037
-0.016
0.121
-0.043
0.038
-0.072
-0.037
0.033
-0.069
0.109
0.126
0.038
0.030
-0.110
0.012
0.028
0.129
0.114
-0.071
0.002
0.052
-0.020
0.030
0.039
0.079
0.166
0.120
-0.063
0.061
0.080
-0.010
0.014
0.075
0.043
0.000
0.075
0.059
0.028
0.083
0.075
0.125
0.033
0.031
0.108
-0.027
0.073
0.008
-0.039
-0.003
0.030
0.078
0.077
-0.069
-0.182
-0.097
0.086
0.176
0.061
0.042
-0.011
-0.073
-0.049
0.165
0.053
0.065
0.004
-0.077
0.085
-0.026
-0.043
-0.101
0.068
-0.050
0.016
-0.034
0.059
-0.073
0.086
0.014
-0.047
0.016
0.038
0.047
0.045
0.067
0.090
-0.024
-0.025
0.005
0.062
-0.105
0.077
0.068
0.082
0.213
0.013
-0.074
-0.023
0.084
0.219
0.054
-0.446
-0.110
0.246
0.337
0.225
-0.010
-0.099
-0.067
-0.004
0.100
0.048
0.068
0.024
0.112
0.077
0.003
0.058
0.150
0.056
0.099
-0.070
0.016
-0.051
0.010
-0.089
-0.026
0.017
-0.003
0.119
0.032
0.016
-0.181
-0.102
0.122
0.064
0.055
0.108
0.051
-0.018
-0.080
-0.040
-0.008
0.063
-0.016
0.011
0.009
0.053
0.110
-0.063
-0.060
-0.006
0.016
-0.110
-0.132
0.087
0.015
0.069
0.124
-0.049
-0.033
0.041
-0.022
0.027
0.062
0.060
0.072
0.048
-0.005
0.055
0.062
0.067
0.028
-0.088
0.136
-0.026
0.034
-0.056
0.042
0.156
-0.018
-0.005
0.014
-0.113
0.111
0.058
-0.013
-0.087
0.122
0.126
-0.015
0.027
-0.112
0.038
0.008
0.078
0.143
-0.055
0.067
-0.097
0.055
-0.029
0.018
-0.027
0.121
0.169
-0.071
0.039
0.207
-0.035
0.110
-0.033
0.023
0.062
-0.034
0.099
-0.127
0.132
0.068
0.190
0.073
0.051
-0.004
0.050
-0.059
0.061
0.071
-0.048
0.006
0.004
0.104
0.094
-0.102
-0.030
-0.004
0.069
0.125
-0.071
0.078
-0.088
-0.091
0.106
0.074
0.089
-0.019
-0.053
0.117
-0.014
-0.043
-0.054
0.078
-0.033
-0.054
0.056
-0.022
0.053
0.122
0.017
-0.046
-0.028
0.052
0.096
0.044
-0.032
-0.122
0.003
0.101
0.047
-0.044
-0.066
0.028
0.101
0.064
-0.033
0.066
0.071
-0.012
-0.009
0.155
-0.022
0.088
-0.051
-0.006
-0.047
0.113
0.023
0.080
0.077
-0.052
-0.054
-0.101
-0.005
0.024
0.051
0.112
-0.020
-0.120
-0.028
0.055
-0.120
0.029
0.162
0.089
-0.001
0.059
0.037
0.015
0.011
-0.010
-0.016
0.120
-0.036
0.025
0.170
0.054
0.048
0.064
0.070
0.094
0.021
0.070
-0.043
0.011
-0.056
0.062
0.039
0.097
0.044
-0.038
-0.123
0.100
0.039
-0.035
0.017
0.108
0.041
-0.161
0.033
0.116
0.132
0.019
0.009
-0.082
-0.050
0.013
0.022
0.077
0.046
0.031
0.134
-0.021
-0.046
0.010
-0.105
-0.004
-0.000
0.105
-0.038
0.073
0.006
-0.036
-0.025
0.048
0.060
0.038
0.022
-0.035
0.169
0.015
0.032
-0.053
-0.058
0.016
0.087
0.019
0.060
0.127
0.024
-0.166
0.035
0.114
0.080
-0.029
-0.074
-0.027
0.010
0.019
0.069
0.056
0.026
-0.084
0.049
0.050
0.039
-0.006
0.021
0.043
0.040
0.045
-0.017
0.052
0.051
0.033
-0.096
0.034
0.042
0.040
0.006
0.064
-0.007
0.062
-0.041
-0.087
0.071
0.152
0.079
0.030
-0.107
-0.086
0.085
0.110
-0.101
-0.026
0.073
-0.021
0.039
0.028
0.074
-0.051
0.115
0.089
-0.090
0.058
0.102
-0.052
-0.093
0.097
0.090
-0.014
0.105
0.029
0.078
-0.021
0.042
-0.971
-0.073
0.417
0.324
0.279
-0.109
-0.087
0.026
-0.130
-0.058
0.077
0.018
0.129
0.185
0.064
0.147
0.087
0.029
0.006
-0.099
-0.051
-0.015
-0.070
-0.011
-0.059
0.022
-0.007
-0.026
0.035
-0.015
-0.032
0.092
-0.041
-0.065
-0.063
0.077
0.066
0.078
0.102
-0.004
0.001
0.099
0.042
-0.041
0.048
0.022
-0.021
0.032
0.018
0.063
-0.021
0.010
0.146
0.053
-0.006
-0.041
-0.035
0.063
0.118
-0.019
0.014
-0.029
0.003
-0.042
0.004
0.068
-0.003
0.122
0.159
-0.018
-0.056
0.058
0.201
-0.086
0.037
-0.032
0.056
0.060
0.067
-0.009
0.010
0.054
0.021
-0.042
0.038
0.119
0.051
-0.112
0.028
0.052
-0.100
0.131
0.009
0.032
-0.001
-0.037
-0.055
-0.064
0.028
0.052
0.074
0.237
0.076
-0.101
-0.133
-0.016
0.117
-0.024
0.107
-0.047
0.075
0.008
-0.064
0.074
-0.052
0.151
0.200
-0.046
-0.089
0.023
0.072
0.042
0.041
-0.029
0.083
0.007
-0.020
-0.001
0.042
-0.077
-0.162
0.129
0.131
-0.025
0.060
0.083
-0.036
0.044
-0.022
-0.092
0.043
0.123
0.005
0.074
-0.095
-0.017
-0.077
0.122
0.071
-0.031
-0.070
-0.016
0.084
-0.022
0.006
0.061
0.009
-0.040
-0.035
0.099
-0.030
-0.002
0.031
0.189
-0.008
-0.030
0.007
0.016
0.076
0.119
-0.075
-0.051
0.129
0.071
0.042
0.024
-0.110
0.101
0.028
-0.036
-0.075
0.032
-0.033
-0.039
0.171
0.024
-0.065
-0.002
0.072
-0.095
0.020
0.146
0.100
0.064
-0.017
0.018
-0.107
-0.024
0.114
0.030
-0.078
-0.013
0.016
0.054
0.054
-0.038
-0.029
0.108
-0.051
0.027
0.017
0.040
-0.051
0.007
-0.111
0.038
0.028
0.018
0.028
-0.083
0.120
-0.006
0.048
0.079
-0.038
0.013
0.036
0.064
-0.011
0.025
-0.004
-0.075
0.153
0.033
0.028
-0.014
-0.030
0.012
0.044
-0.013
-0.038
-0.038
0.115
0.021
-0.064
-0.057
-0.039
0.165
-0.008
-0.110
-0.019
0.117
-0.004
0.134
-0.104
0.032
-0.001
0.055
0.008
0.033
-0.086
0.052
0.003
-0.105
-0.044
0.003
0.044
-0.050
0.026
0.037
0.058
-0.027
-0.021
-0.011
-0.060
0.082
-0.090
0.049
0.004
0.010
-0.013
0.052
-0.029
0.046
-0.000
0.001
0.119
0.011
-0.058
-0.006
0.064
-0.068
-0.049
0.130
-0.059
0.020
-0.088
-0.081
-0.069
-0.271
-0.170
0.048
0.236
0.229
0.001
-0.114
0.018
0.006
0.027
0.120
-0.092
0.155
0.204
0.053
0.016
0.005
-0.019
0.045
0.009
-0.041
-0.033
-0.188
-0.039
-0.173
-0.176
-0.307
-0.261
0.022
0.316
0.294
0.179
0.147
-0.060
-0.023
-0.041
0.123
0.077
0.194
0.350
0.290
0.102
0.040
0.145
-0.040
0.071
-0.095
-0.077
-0.052
0.011
0.139
-0.088
-0.080
-0.011
-0.052
0.033
0.083
0.078
-0.055
0.002
-0.064
0.150
-0.012
0.026
-0.074
0.173
0.113
0.062
-0.065
-0.064
0.144
0.104
0.077
-0.043
0.030
0.135
0.088
0.018
-0.035
0.172
-0.035
0.064
0.092
-0.000
-0.010
0.030
0.019
0.149
-0.096
0.080
0.113
0.140
0.043
-0.041
-0.021
0.128
-0.037
0.090
0.070
0.030
0.025
0.055
0.002
0.055
-0.029
0.005
-0.079
0.127
-0.034
0.011
-0.031
-0.056
-0.005
-0.015
0.101
-0.066
-0.004
-0.160
-0.001
0.085
0.144
-0.027
-0.040
0.026
0.036
0.009
-0.043
-0.058
0.119
0.033
-0.071
0.094
0.130
0.002
0.018
0.104
-0.073
-0.114
0.025
-0.040
0.105
0.034
0.004
0.158
-0.023
-0.033
0.047
-0.013
0.043
0.084
-0.033
0.039
-0.029
0.043
0.034
0.010
-0.094
0.026
0.017
0.047
0.158
-0.162
0.041
0.087
0.072
0.061
-0.054
0.033
0.131
0.005
0.125
-0.080
0.042
0.098
-0.017
-0.014
0.006
0.016
0.090
-0.090
-0.017
0.128
0.007
0.038
0.060
-0.021
-0.017
0.140
0.099
-0.071
0.040
0.073
0.059
0.049
-0.092
0.122
-0.014
0.023
0.072
-0.049
0.025
-0.001
-0.027
0.082
0.028
-0.023
0.037
0.035
-0.090
0.081
0.071
0.027
0.035
-0.050
0.077
-0.044
-0.053
-0.046
0.145
0.108
0.012
-0.117
-0.014
0.001
0.134
0.057
0.066
0.031
0.004
0.010
0.100
0.061
-0.124
0.067
0.141
0.029
-0.073
0.092
0.004
-0.045
0.009
-0.060
-0.050
0.138
0.006
0.083
0.015
-0.031
0.097
-0.099
-0.151
-0.038
0.090
0.145
-0.004
0.057
0.034
0.004
0.060
-0.074
0.060
-0.008
0.019
0.069
-0.054
0.002
0.021
0.033
-0.034
0.004
0.078
0.070
-0.077
-0.007
0.042
0.085
0.122
-0.136
0.037
0.032
0.096
-0.006
0.000
-0.020
0.165
0.023
-0.117
-0.074
0.171
-0.009
-0.004
0.041
0.001
0.129
0.007
-0.028
0.028
0.078
-0.018
0.023
-0.013
0.085
0.039
-0.020
0.069
0.069
-0.086
-0.023
-0.001
0.099
0.086
0.119
-0.143
-0.068
0.081
0.009
-0.098
0.037
0.020
0.089
0.037
-0.035
0.009
0.056
-0.008
-0.067
0.088
0.020
-0.014
0.080
-0.026
-0.083
0.016
0.104
0.049
0.035
0.008
-0.054
0.095
-0.016
0.051
0.118
-0.055
-0.205
0.071
0.082
-0.069
0.004
0.058
0.012
0.007
0.076
0.026
0.070
0.095
-0.114
0.015
0.074
0.096
0.028
-0.047
0.102
-0.139
0.023
-0.057
0.006
0.023
0.117
-0.024
-0.102
0.026
-0.012
0.105
-0.015
0.059
-0.042
0.017
0.106
-0.061
-0.067
0.026
0.001
0.101
0.048
0.074
0.085
-0.039
-0.008
0.002
0.178
0.031
-0.041
-0.015
0.069
0.077
-0.061
-0.121
0.051
0.146
0.016
-0.030
0.037
-0.038
-0.007
0.123
-0.104
0.071
0.039
-0.015
-0.095
0.096
0.068
0.086
0.015
-0.032
-0.022
0.044
0.046
0.008
0.030
0.012
0.110
-0.080
0.014
0.063
0.046
0.059
0.012
0.018
-0.083
-0.007
0.022
0.086
0.146
0.021
0.023
-0.126
0.033
0.066
0.054
0.086
0.075
0.057
-0.035
-0.030
0.055
0.052
0.045
-0.041
-0.095
0.122
-0.096
-0.004
0.117
0.025
-0.073
-0.036
0.042
0.064
0.107
-0.028
-0.068
-0.010
-0.049
0.071
-0.022
-0.002
-0.083
-0.040
0.127
-0.014
0.065
0.077
-0.017
0.049
-0.006
0.022
0.067
0.079
-0.009
-0.023
0.061
0.006
0.035
0.064
0.013
-0.176
0.129
0.022
-0.047
0.024
0.023
-0.002
0.145
0.089
-0.009
-0.014
0.017
0.118
-0.030
-0.008
0.088
0.003
-0.066
0.045
0.004
-0.018
0.061
0.005
-0.032
0.030
-0.050
-0.081
-0.032
0.036
0.136
0.085
-0.011
0.043
-0.070
-0.035
0.070
0.095
0.068
-0.033
0.056
0.127
0.042
0.070
0.061
-0.080
0.096
0.079
0.033
-0.066
0.068
0.044
-0.028
0.103
0.031
0.070
-0.103
-0.063
0.039
0.077
0.080
-0.018
0.073
0.013
-0.055
-0.039
0.031
-0.046
0.072
0.018
0.039
0.053
0.092
0.044
-0.004
0.019
0.153
-0.087
-0.086
0.125
0.025
-0.046
0.085
0.075
0.016
0.012
-0.052
-0.041
0.166
-0.070
-0.070
-0.027
0.013
0.027
-0.003
0.061
-0.056
-0.018
0.034
0.026
0.121
0.018
0.061
0.164
0.067
-0.014
0.025
-0.054
-0.068
-0.042
0.025
0.115
0.111
-0.016
-0.060
-0.079
0.083
-0.078
0.043
0.064
-0.001
-0.013
-0.041
-0.016
0.067
0.122
0.119
-0.075
-0.020
0.047
0.070
-0.025
-0.038
0.051
-0.050
-0.010
0.022
0.164
0.086
0.053
-0.057
0.123
-0.079
-0.001
-0.095
-0.068
0.127
0.114
0.054
-0.058
-0.067
-0.014
0.041
0.091
-0.012
0.012
0.030
0.065
-0.045
0.013
-0.043
-0.074
0.154
0.074
0.031
-0.109
0.078
-0.061
0.046
0.100
-0.039
0.098
0.089
0.089
-0.035
-0.021
0.095
0.136
-0.052
-0.011
-0.028
0.000
0.149
-0.113
0.053
0.044
0.140
-0.061
-0.180
-0.035
0.014
0.000
0.138
0.127
-0.098
-0.027
-0.013
0.170
0.090
-0.079
-0.011
0.023
0.093
0.026
-0.229
-0.177
-0.070
-0.023
0.050
-0.051
0.076
0.160
0.099
-0.296
-0.939
-1.597
-2.755
-3.836
-1.652
3.009
4.354
3.270
-0.534
-2.925
-3.421
-2.002
-0.166
1.646
3.095
3.832
4.070
3.585
2.842
1.869
0.828
-0.221
-0.933
-1.272
-1.514
-1.704
-1.813
-1.419
-1.061
-0.873
-0.535
-0.343
-0.190
-0.092
-0.016
-0.003
0.047
0.170
0.089
-0.048
0.203
0.210
0.142
-0.040
0.072
0.072
-0.046
0.110
0.287
0.383
0.421
0.341
0.294
0.150
0.472
0.440
0.356
0.368
0.295
0.253
0.331
0.470
0.340
0.306
0.227
0.245
0.251
0.207
0.259
0.162
0.195
0.126
0.084
0.042
0.052
0.063
0.030
-0.037
-0.018
0.033
0.045
0.083
-0.169
-0.024
-0.121
-0.046
-0.114
-0.001
-0.114
-0.100
-0.215
-0.051
-0.010
-0.091
-0.132
-0.184
-0.110
-0.155
-0.043
-0.196
-0.154
-0.076
-0.083
-0.064
-0.048
-0.065
-0.068
-0.073
-0.121
0.016
-0.169
-0.012
0.061
-0.013
0.038
-0.084
0.043
0.076
0.031
-0.030
-0.092
-0.087
0.066
0.009
0.001
0.069
0.008
0.068
0.197
0.158
0.097
0.000
0.020
-0.031
0.185
0.023
0.060
0.002
0.194
0.095
0.057
-0.032
0.056
0.076
-0.057
0.101
0.022
-0.071
-0.092
0.009
0.172
-0.010
-0.048
0.059
-0.059
0.017
0.066
0.114
0.067
-0.017
-0.049
0.027
0.020
0.037
0.000
-0.011
0.022
0.075
-0.050
0.109
-0.032
0.093
0.037
0.107
0.087
-0.081
-0.001
0.102
-0.009
0.066
0.001
0.037
0.066
0.092
0.085
0.133
0.050
0.051
0.092
0.003
-0.019
0.056
0.250
0.057
-0.070
-0.021
0.120
0.079
0.010
0.085
0.015
0.036
0.140
0.098
0.001
0.012
0.013
-0.114
0.014
-0.028
0.086
0.004
-0.117
-0.040
0.031
-0.049
-0.079
-0.049
-0.026
0.023
-0.066
-0.082
-0.056
-0.096
0.042
-0.024
-0.075
-0.074
0.135
0.052
-0.023
-0.066
-0.100
-0.020
0.105
0.177
0.061
-0.074
-0.165
0.052
0.120
-0.054
0.087
0.128
-0.082
0.019
-0.129
0.036
0.093
0.075
0.041
0.008
0.004
0.009
0.058
0.160
0.030
0.051
-0.023
-0.095
0.056
0.023
0.079
-0.012
-0.002
0.095
0.056
0.022
-0.007
0.073
0.018
0.102
0.018
0.101
0.093
0.029
-0.004
0.063
-0.049
0.077
0.066
-0.014
0.025
0.029
0.034
-0.026
-0.144
-0.058
0.104
0.008
0.057
-0.017
-0.047
0.079
0.035
0.025
0.044
-0.003
-0.024
-0.005
-0.062
0.057
-0.027
-0.009
0.066
-0.006
-0.076
0.063
0.045
0.037
-0.139
-0.085
0.055
0.006
0.036
0.033
0.068
0.024
-0.018
-0.003
-0.033
0.002
-0.055
0.044
0.043
0.047
0.092
-0.058
0.135
0.082
0.051
-0.029
-0.172
-0.062
0.103
0.114
-0.007
0.052
-0.117
0.079
0.026
0.048
-0.042
0.026
0.016
0.147
0.149
0.020
-0.062
0.071
-0.076
-0.041
0.066
0.065
0.073
-0.017
0.001
-0.042
0.031
0.041
0.115
0.044
0.054
-0.010
-0.028
0.124
-0.047
0.104
-0.050
0.082
0.067
-0.017
-0.015
-0.058
0.084
0.072
-0.051
0.049
0.031
-0.155
0.014
0.081
0.025
0.040
0.043
0.016
-0.013
-0.074
0.023
0.087
0.124
0.038
-0.055
-0.049
-0.021
0.081
-0.054
0.059
-0.104
-0.273
-0.103
0.020
0.117
0.052
0.129
0.033
-0.052
0.040
-0.059
0.002
0.065
0.016
0.129
0.148
0.135
0.038
0.105
0.082
-0.067
-0.016
0.133
-0.044
0.028
-0.076
0.064
0.001
-0.088
0.155
0.039
-0.013
-0.099
0.080
-0.069
0.020
0.175
-0.003
0.047
-0.021
0.037
0.080
0.080
-0.114
-0.109
0.015
0.064
0.060
-0.054
-0.003
0.117
-0.023
-0.047
0.041
0.129
0.033
0.008
0.037
0.134
-0.037
-0.064
0.033
0.049
0.109
0.047
-0.002
-0.081
0.086
0.249
-0.085
-0.026
-0.075
0.092
0.075
0.063
-0.014
0.150
-0.011
0.176
0.045
0.034
0.056
0.044
-0.019
-0.012
-0.022
0.166
-0.004
-0.007
0.013
-0.004
-0.145
-0.002
0.058
0.082
-0.048
-0.087
-0.037
0.055
-0.008
0.030
0.069
0.040
-0.035
0.023
0.023
0.051
0.041
-0.065
-0.042
-0.090
0.097
0.019
0.098
0.065
0.088
0.021
-0.076
0.207
-0.007
-0.081
-0.062
0.018
0.077
0.156
-0.027
-0.022
-0.037
0.129
-0.098
-0.027
-0.073
0.122
-0.009
0.030
0.000
0.005
0.020
-0.084
0.051
-0.017
0.068
0.061
0.027
-0.051
-0.005
0.034
0.106
-0.001
-0.081
0.063
0.065
-0.015
-0.055
-0.063
0.074
0.067
0.144
-0.103
-0.035
0.030
-0.081
0.071
-0.001
0.052
0.107
0.102
0.019
0.044
-0.051
0.151
0.073
-0.080
-0.027
-0.010
0.018
0.024
0.019
-0.075
0.111
-0.015
-0.107
0.054
0.089
-0.044
0.075
-0.046
0.044
0.033
0.017
0.037
0.059
0.048
-0.091
0.034
0.008
0.001
0.151
0.003
-0.141
0.128
-0.081
0.155
0.016
0.183
-0.020
0.005
0.020
0.051
0.059
0.001
-0.016
-0.025
0.136
0.003
0.017
0.010
-0.055
-0.058
0.078
0.016
0.064
0.021
0.028
0.050
0.054
-0.045
-0.035
0.030
0.042
-0.033
0.096
0.021
-0.009
-0.041
0.095
0.081
-0.100
-0.059
0.151
0.087
0.023
-0.021
-0.005
0.080
-0.015
0.072
0.057
-0.099
0.039
-0.049
0.067
0.032
0.058
0.008
0.025
0.011
0.026
-0.001
0.116
0.035
0.033
0.033
0.045
0.214
0.014
-0.094
-0.001
0.017
0.029
0.058
0.075
-0.117
-0.017
-0.022
-0.058
0.081
0.000
0.062
0.007
0.063
-0.046
-0.116
0.093
0.035
0.018
0.062
-0.067
0.064
0.069
-0.047
0.038
0.071
-0.096
0.042
0.147
0.159
0.039
-0.013
-0.028
0.114
-0.084
0.056
-0.058
-0.201
-3.098
-1.861
-1.256
-3.347
-3.893
-0.459
3.377
4.214
-0.752
-3.187
-3.859
-3.962
-2.039
2.988
4.513
4.796
4.081
2.925
1.512
1.760
0.984
0.006
1.295
2.423
1.442
1.285
0.382
-1.513
-3.113
-0.802
-3.469
-4.733
-1.574
2.335
3.550
2.518
2.273
-1.498
-2.131
0.121
0.681
2.707
3.562
3.784
3.781
3.499
2.835
2.193
1.246
0.418
-0.407
-1.087
-1.242
-1.544
-1.984
-1.313
-0.737
-0.529
-0.270
-0.113
-0.012
0.400
0.820
0.841
1.081
1.168
1.268
1.169
1.158
1.282
1.361
1.190
1.099
0.996
1.225
1.200
1.094
1.059
1.098
1.202
1.157
0.918
1.030
0.967
0.931
0.773
0.879
0.794
0.580
0.466
0.388
0.593
0.252
0.213
0.089
0.024
0.066
-0.072
-0.082
-0.239
-0.234
-0.300
-0.352
-0.452
-0.405
-0.450
-0.535
-0.562
-0.569
-0.484
-0.553
-0.716
-2.340
-4.244
-4.726
-3.252
2.035
3.712
3.865
0.350
-1.518
0.900
-0.482
-1.808
-1.230
1.516
3.324
3.800
3.826
3.733
3.596
3.442
3.280
2.273
0.360
-1.495
-2.968
-3.623
-3.882
-3.736
-3.329
-2.439
-1.879
-0.996
-0.308
0.160
0.634
0.843
0.969
1.022
0.860
0.813
0.648
0.759
0.765
0.636
0.599
0.601
0.712
0.700
0.891
0.911
0.895
0.813
0.845
0.875
0.793
0.802
0.790
0.637
0.748
0.636
0.521
0.561
0.611
0.456
0.387
0.247
0.327
0.332
0.188
0.119
0.066
0.073
0.105
-0.021
-0.128
-0.038
-0.122
-0.226
-0.164
-0.222
-0.266
-0.281
-0.333
-0.204
-0.230
-0.308
-0.382
-0.227
-0.289
-0.334
-0.321
-0.232
-0.506
-0.296
-0.263
-0.245
-0.214
-0.277
-0.298
-0.312
-0.261
-0.270
-0.204
-0.017
-0.222
-0.186
-0.223
-0.222
-0.122
-0.191
-0.190
-0.151
-0.105
-0.081
-0.076
-0.117
-0.056
-0.162
-0.007
0.009
-0.019
-0.023
-0.032
-0.053
-0.068
-0.092
-0.013
0.028
0.035
0.060
-0.073
-0.014
-0.032
-0.075
0.142
0.014
-0.087
-0.022
0.057
-0.071
0.086
-0.037
0.171
-0.116
-0.049
0.031
0.114
-0.040
0.076
0.031
0.089
0.160
0.096
0.121
0.091
0.146
0.166
0.062
0.099
0.158
0.220
0.217
0.126
0.241
0.296
0.079
0.207
0.113
-0.037
0.209
0.210
0.191
0.243
0.200
0.063
0.132
-0.022
0.244
0.234
0.160
0.156
0.093
0.096
0.179
0.158
0.072
0.049
0.070
-0.076
0.080
-0.041
0.086
-0.058
-0.153
-0.120
0.035
-0.100
-0.056
-0.040
-0.182
0.006
-0.134
-0.258
-0.091
-0.085
-0.107
-0.215
-0.205
-0.196
-0.048
-0.121
-0.136
-0.208
-0.179
-0.034
-0.257
-0.204
-0.067
-0.121
-0.104
-0.113
-0.164
-0.131
-0.057
-0.106
-0.171
-0.122
-0.057
0.056
-0.011
0.105
-0.037
-0.095
0.078
0.006
0.162
0.107
-0.006
0.076
0.057
0.085
0.279
0.027
-0.023
0.064
0.188
0.137
0.183
-0.020
0.067
0.165
0.208
0.205
0.203
0.117
0.141
0.205
0.034
0.047
0.269
0.234
0.093
0.035
0.097
0.129
0.127
0.147
0.056
-0.014
0.034
0.158
0.132
0.117
0.029
-0.048
-0.077
0.049
0.091
0.094
-0.014
0.068
-0.107
-0.053
-0.070
-0.056
-0.120
-0.151
-0.071
0.015
-0.118
-0.053
-0.029
-0.026
-0.019
-0.097
-0.166
0.007
-0.045
-0.096
-0.153
0.058
-0.046
-0.096
-0.154
-0.030
-0.090
-0.180
-0.228
-0.714
-0.651
-0.393
-0.455
-0.187
-0.481
-0.435
-0.085
-0.134
-1.385
-0.446
1.004
0.118
0.765
0.852
0.576
0.327
-0.198
-0.871
-3.339
-1.430
2.891
3.953
3.636
1.335
-0.921
-2.068
-1.928
-0.953
0.120
0.856
1.614
1.953
1.907
1.577
1.195
0.598
0.182
-0.271
-0.623
-0.911
-1.110
-0.977
-0.980
-0.722
-0.412
-0.285
-0.299
-0.158
0.210
0.180
0.149
0.168
0.124
0.215
0.292
0.276
0.190
0.265
0.165
0.351
0.334
0.252
0.333
0.288
0.303
0.335
0.321
0.435
0.354
0.292
0.339
0.283
0.175
0.314
0.316
0.433
0.133
0.225
0.134
0.257
0.172
0.307
0.090
0.110
0.178
0.011
0.021
0.096
0.045
0.085
-0.087
0.031
-0.085
-0.050
-0.168
-0.225
0.045
-0.032
-0.122
-0.232
-0.175
-0.213
-0.116
-0.145
-0.190
-0.110
-0.018
-0.253
-0.115
-0.117
-0.167
-0.111
-0.193
-0.126
-0.065
-0.093
-0.021
-0.079
-0.101
-0.134
-0.008
0.026
-0.003
0.071
-0.061
0.071
-0.140
0.093
0.078
-0.008
0.015
0.093
0.064
-0.047
0.114
0.069
0.059
0.162
-0.040
0.199
-0.063
0.040
0.214
0.096
0.074
0.020
0.130
0.058
0.072
0.092
0.093
0.114
-0.181
0.002
0.223
0.079
-0.054
0.206
-0.336
-0.267
0.060
0.191
0.070
0.140
-0.039
0.037
0.048
0.073
0.014
0.062
0.063
0.076
0.073
0.011
0.148
0.107
0.116
0.101
-0.051
-0.106
-0.005
-0.096
0.012
0.136
0.040
-0.030
-0.069
-0.106
-0.352
-0.205
0.151
0.238
0.288
0.057
-0.054
0.026
-0.070
-0.029
0.114
0.072
0.121
0.104
0.086
0.189
-0.044
0.005
0.103
-0.079
0.073
0.032
0.019
-0.079
-0.040
0.069
0.020
-0.021
-0.099
-0.044
0.051
-0.033
-0.018
-0.031
0.009
0.160
-0.100
-0.047
-0.044
0.053
0.010
-0.018
-0.027
0.007
0.041
0.047
0.047
-0.067
0.051
-0.003
-0.006
0.032
0.088
-0.055
-0.101
-0.074
0.041
-0.036
0.131
0.062
0.107
0.015
0.004
0.029
0.055
0.040
0.033
0.020
0.067
-0.001
-0.043
-0.033
0.116
0.058
0.068
0.013
0.106
0.009
-0.023
-0.841
-2.023
-2.394
-3.522
-3.957
-3.954
-1.485
3.306
4.678
4.983
1.179
-2.658
-3.802
-4.044
-2.157
2.717
4.335
4.710
4.638
4.452
4.216
3.992
3.572
1.577
-0.985
-2.737
-4.091
-4.637
-4.600
-4.050
-3.303
-2.467
-1.430
-0.671
-0.139
0.216
0.553
0.591
0.519
0.404
0.245
0.238
0.000
-0.094
-0.235
-0.188
-0.117
-0.118
-0.163
-0.164
-1.355
0.373
1.105
1.049
0.520
-0.103
-0.024
0.127
0.027
0.134
0.356
0.397
0.395
0.333
0.352
0.355
0.198
0.146
0.074
-0.027
-0.101
-0.132
0.027
-0.124
-0.133
-0.010
-0.051
-0.189
-0.167
-0.001
0.032
-0.084
-0.191
-0.099
-0.088
-0.071
-0.014
-0.126
-0.123
0.000
-0.185
-0.148
-0.073
-0.079
-0.130
-0.058
-0.138
0.011
-0.172
-0.065
-0.121
-0.137
-0.940
-3.320
-4.072
-1.016
2.981
4.297
3.862
1.362
-1.194
-2.148
-1.822
-0.669
0.550
1.780
2.371
2.714
2.490
2.111
1.495
0.870
0.230
-0.437
-0.909
-1.127
-1.146
-1.056
-1.091
-0.937
-0.564
-0.577
-0.278
-0.072
0.082
0.120
-0.995
-1.673
2.099
2.991
1.885
0.583
-0.406
-0.690
-0.666
-0.269
0.103
0.648
0.756
0.951
0.792
0.858
0.593
0.651
0.277
0.222
0.033
0.068
0.063
-0.051
0.032
0.139
0.008
0.067
0.252
0.174
0.168
0.233
0.381
0.288
0.210
0.227
0.139
0.265
0.227
0.186
0.155
0.122
0.166
0.129
0.054
0.134
0.109
0.053
0.165
-0.011
-0.041
0.032
-0.074
-0.033
0.018
0.044
0.065
0.049
-0.069
-0.086
-0.028
-0.109
-0.030
-0.051
-0.028
-0.147
-0.026
-0.046
-0.137
-0.145
-0.105
-0.067
0.081
-0.250
-0.109
0.014
-0.114
-0.132
0.007
-0.041
-0.071
-0.064
-0.139
-0.121
0.027
-0.191
-0.031
-0.133
0.001
-0.077
-0.055
-0.013
0.070
0.026
0.050
-0.049
-0.124
-0.006
0.053
0.103
0.047
-0.083
0.041
0.025
-0.040
-0.021
-0.011
0.051
0.070
-0.013
0.127
-0.013
-0.077
-0.030
-0.017
0.082
0.038
0.002
-0.001
0.035
0.079
0.052
0.102
-0.044
0.149
-0.014
0.134
0.070
-0.064
0.026
0.047
-0.039
0.094
0.182
0.031
-0.006
0.061
0.068
0.145
-0.016
0.008
0.076
0.075
-0.086
-0.018
0.014
0.068
0.052
0.236
0.035
-0.048
0.042
0.074
0.011
-0.075
0.068
-0.058
0.055
-0.007
0.033
0.099
0.012
-0.046
0.147
-0.001
0.027
-0.033
0.047
-0.017
-0.068
-0.026
0.100
0.062
-0.144
-0.050
0.055
0.041
-0.085
-0.038
-0.039
-0.005
0.078
0.082
0.087
-0.081
-0.183
-0.003
-0.105
0.026
-0.017
0.063
-0.031
0.004
0.009
-0.055
0.016
-0.034
-0.092
0.031
0.057
0.010
-0.033
-0.045
-0.131
0.184
0.074
-0.033
-0.002
-0.026
0.055
-0.033
0.088
0.166
0.039
-0.018
0.025
0.093
0.108
-0.019
-0.016
0.061
0.084
0.004
0.023
0.156
0.061
-0.043
0.045
0.069
0.073
0.057
-0.013
0.088
-0.055
0.068
0.084
-0.017
0.081
-0.026
0.079
0.029
0.109
-0.042
-0.054
-0.035
-0.056
0.055
0.122
0.043
0.032
0.084
-0.045
-0.010
-0.011
0.056
0.105
0.065
-0.147
-0.005
0.086
-0.051
0.040
0.000
0.097
-0.022
-0.052
0.005
0.033
-0.014
-0.059
-0.018
0.018
0.022
-0.020
0.011
-0.026
0.110
-0.130
0.012
-0.013
0.022
0.078
-0.048
-0.378
-1.355
-2.144
-2.138
-0.082
1.434
1.149
-0.342
-0.490
0.696
0.688
0.308
-0.041
0.082
0.409
0.797
0.909
1.184
1.003
0.957
0.475
0.398
0.049
-0.102
-0.354
-0.430
-0.522
-0.474
-0.572
-0.541
-0.274
-0.231
-0.174
-0.199
-0.181
-0.043
-0.138
-0.070
0.228
0.157
-0.176
-1.110
-0.881
1.977
2.186
1.183
0.075
-0.407
-0.553
-0.440
-0.175
0.126
0.297
0.684
0.727
0.712
0.482
0.377
0.354
0.148
0.063
-0.083
-0.043
0.039
-0.062
-0.175
-0.086
-0.025
0.164
0.126
0.065
0.085
0.306
0.135
0.086
0.200
0.220
0.221
0.209
0.247
0.078
0.129
0.045
0.088
0.091
0.069
0.163
0.160
0.141
0.179
-0.003
0.147
-0.003
0.006
0.131
0.044
0.123
0.013
-0.054
0.098
-0.003
0.076
0.066
-0.054
0.011
-0.048
0.051
-0.088
0.007
-0.054
0.061
-0.090
0.120
-0.088
-0.164
-0.010
0.073
-0.003
0.050
-0.087
-0.146
-0.178
-0.020
0.001
0.022
0.097
-0.105
-0.114
-0.110
0.018
-0.060
-0.038
0.006
0.005
-0.009
-0.037
0.007
0.069
-0.043
0.022
0.074
0.042
0.021
-0.076
0.132
0.050
0.033
0.009
-0.009
0.067
-0.056
-0.033
-0.076
0.103
-0.020
0.012
0.054
0.009
0.127
0.055
0.031
-0.050
-0.038
-0.027
0.060
0.021
0.073
0.121
-0.027
0.109
-0.118
-0.007
-0.075
-0.006
0.044
0.040
-0.103
0.006
0.073
0.010
0.058
0.012
0.066
0.068
-0.002
0.057
0.055
-0.012
0.037
0.103
0.045
-0.037
-0.036
0.123
0.084
0.125
-0.061
0.022
-0.051
-0.067
0.058
0.013
-0.072
0.069
0.028
-0.009
0.000
-0.047
0.108
-0.073
-0.096
0.067
-0.007
0.100
0.047
-0.054
-0.038
0.034
0.075
0.088
-0.134
-0.039
0.077
0.042
0.010
0.057
0.013
-0.074
-0.042
-0.033
-0.018
0.020
-0.032
-0.502
0.063
0.124
0.162
0.041
-0.019
-0.029
-0.048
-0.144
-0.046
0.020
0.149
0.043
-0.039
-0.013
0.015
0.017
-0.017
0.099
0.108
0.057
-0.086
-0.173
0.173
0.088
-0.033
-0.007
-0.013
0.006
-0.034
-0.014
0.089
0.006
-0.041
-0.062
0.018
-0.028
0.064
0.102
0.089
-0.062
0.046
0.068
-0.007
0.127
-0.033
0.074
0.113
-0.004
-0.026
0.069
0.058
-0.012
0.050
0.040
-0.016
-0.055
-0.059
-0.035
0.041
0.103
0.137
-0.019
0.076
-0.051
-0.095
0.017
0.066
0.113
0.076
-1.430
-1.825
-2.581
0.865
1.587
1.479
0.844
0.161
-0.368
-0.527
-0.310
0.082
0.275
0.625
0.642
0.721
0.353
-1.124
-0.255
0.541
0.890
0.394
-0.558
-0.828
-0.928
-0.654
-0.283
-0.230
-0.067
-0.129
0.060
0.659
0.614
0.368
-0.867
-0.783
0.593
0.790
0.502
0.225
0.077
-0.126
-0.154
-0.138
-0.140
-0.102
-0.400
-0.410
-0.521
-0.395
-0.162
0.202
0.832
0.565
-0.087
-0.261
-0.280
-0.078
0.206
0.325
0.499
0.459
0.504
0.426
0.476
0.092
0.146
0.157
-0.062
-0.082
-0.123
-0.107
-0.150
-1.658
-1.119
1.495
1.800
0.952
0.186
-0.335
-0.546
-0.347
-0.091
0.202
0.401
0.374
-2.150
-2.997
2.186
3.715
2.500
0.618
-0.611
-1.324
-1.029
-0.759
-0.271
0.294
0.659
0.939
1.036
0.754
0.627
0.292
0.103
-0.344
-0.111
0.057
0.122
-0.242
-0.342
-0.221
-0.143
-0.072
-0.013
0.104
0.145
0.272
0.137
0.174
0.154
0.184
0.154
0.015
-0.022
0.102
0.092
-0.053
-0.058
0.110
0.164
0.091
0.013
0.139
0.191
0.142
0.175
0.046
0.134
0.162
0.211
0.109
0.077
0.246
0.072
-0.017
0.041
0.210
-0.003
-0.031
-0.059
-0.043
0.163
0.244
0.056
-0.012
-0.276
-0.205
-0.047
-0.307
-0.305
-0.067
0.154
0.128
0.078
-0.150
-0.194
-0.285
-0.204
0.050
0.134
-0.002
0.148
0.202
-0.091
0.019
0.087
0.035
0.032
0.040
0.042
-0.101
0.040
0.036
-0.126
-0.116
-0.057
-0.103
0.030
-0.424
-0.224
-0.135
-0.523
-0.413
-0.382
-0.169
0.003
-0.030
-0.075
-0.264
-0.143
-0.081
-0.206
-0.022
0.021
0.037
0.100
0.158
0.369
0.223
0.245
0.320
0.126
0.092
0.188
0.200
0.107
-0.016
-0.009
0.159
-0.022
0.258
-0.015
-0.465
-1.419
-0.882
0.443
0.837
0.659
0.647
-0.299
-0.412
-0.359
-0.071
0.300
0.305
0.241
0.312
0.522
0.562
0.485
0.169
-0.044
-0.201
-0.172
-0.199
-0.095
0.221
0.103
0.140
-0.026
-0.067
-0.071
0.096
-0.120
0.047
0.040
-0.001
0.112
0.222
0.084
0.054
0.215
0.158
0.221
0.066
0.078
0.165
0.114
-0.009
0.142
0.207
0.236
0.107
0.118
0.058
0.064
0.118
0.233
0.255
0.272
0.153
0.055
0.104
0.087
0.040
0.141
-0.009
0.027
0.074
-0.001
0.036
-0.020
0.140
0.218
-0.016
0.000
0.035
-0.221
-0.101
0.097
0.120
-0.113
-0.070
0.030
0.041
0.017
0.040
-0.065
-0.045
-0.099
-0.090
0.028
-0.073
0.012
0.011
-0.097
-0.049
-0.072
-0.005
-0.047
-0.103
0.082
-0.006
-0.087
-0.041
0.008
-0.062
0.076
-0.052
-0.006
0.037
0.130
-0.147
0.081
-0.058
0.039
0.126
-0.040
0.066
-0.021
-0.025
0.135
0.051
0.015
-0.070
-0.058
0.038
0.075
-0.054
0.011
0.226
0.015
-0.015
0.002
0.103
0.125
0.018
0.065
-0.026
-0.032
0.075
0.060
0.033
-0.014
-0.016
-0.019
-0.007
0.008
0.171
-0.109
0.021
-0.014
0.001
0.072
-0.006
0.010
0.128
-0.033
-0.079
0.078
0.149
0.007
0.085
0.017
-0.078
-0.004
-0.021
0.111
0.056
-0.027
0.075
-0.042
0.107
0.032
-0.129
0.045
0.086
0.075
0.024
0.008
0.036
0.126
0.020
0.020
-0.042
0.071
0.056
-0.015
0.046
0.065
0.046
-0.054
0.083
0.104
-0.044
-0.128
0.146
-0.010
0.078
-0.071
0.010
-0.056
0.067
0.108
-0.049
-0.015
0.028
-0.005
0.096
-0.046
0.095
0.081
-0.034
-0.042
0.047
-0.002
0.053
-0.079
-0.036
0.092
0.039
0.032
-0.079
-0.039
0.005
0.100
0.062
-0.133
0.128
0.115
0.016
-0.015
0.066
0.104
-0.111
0.033
0.054
-0.006
0.035
0.054
0.064
0.089
-0.030
0.047
-0.036
-0.079
0.095
0.141
0.034
0.111
0.086
-0.118
-0.056
0.037
0.095
0.124
-0.057
-0.052
0.061
-0.085
0.024
0.031
-0.091
-0.070
0.156
-0.069
0.101
0.044
-0.077
-0.019
0.012
0.031
0.042
0.104
0.016
0.032
-0.031
0.124
0.025
0.049
0.110
0.047
-0.023
0.080
0.009
-0.075
-0.039
0.077
0.066
-0.033
-0.021
0.036
0.120
-0.062
-0.036
-0.038
0.094
-0.017
-0.002
0.028
-0.077
-0.083
0.052
-0.032
0.075
0.098
-0.046
-0.016
-0.058
-0.053
0.033
0.055
-0.099
0.128
-0.098
0.004
0.083
0.035
0.009
0.033
-0.012
0.058
-0.004
0.035
0.031
0.129
0.074
-0.009
-0.168
0.027
0.139
0.126
0.065
0.092
-0.026
-0.022
-0.036
0.078
-0.062
0.079
0.062
-0.010
-0.032
0.079
-0.010
0.044
0.102
0.061
0.059
0.002
-0.018
0.121
0.117
-0.117
0.136
0.006
0.048
0.012
0.075
-0.023
0.064
0.022
-0.047
0.099
0.042
0.159
0.044
-0.046
-0.097
0.053
0.051
0.062
0.019
0.080
0.040
0.044
0.027
-0.130
0.052
0.068
0.133
0.064
-0.020
0.006
0.032
0.037
0.070
-0.059
-0.007
0.009
-0.036
-0.082
-0.044
0.208
0.053
0.031
0.065
0.103
0.069
0.006
-0.023
-0.023
0.063
-0.121
-0.050
0.094
0.068
0.159
-0.031
-0.053
0.090
-0.075
-0.065
0.054
-0.081
0.097
0.097
-0.025
0.039
0.133
0.027
-0.071
0.066
-0.005
-0.165
-0.086
0.076
0.071
-0.071
-0.030
0.069
0.092
-0.014
0.076
0.053
-0.014
0.022
-0.064
0.044
-0.017
0.094
0.044
-0.034
-0.029
0.024
0.148
0.012
0.034
-0.037
0.071
-0.074
0.055
-0.044
0.009
-0.020
-0.139
-0.025
-0.044
0.007
0.045
-0.046
-0.135
-0.559
-0.767
-0.575
-0.143
-0.082
-0.072
-0.018
-0.365
-0.401
0.155
0.201
-0.219
-0.487
-0.385
0.613
1.008
0.801
0.337
0.180
0.291
0.097
0.058
0.269
0.342
0.304
0.231
0.040
0.065
-0.002
-0.128
-0.143
-0.145
-0.144
-0.156
-0.145
-0.042
-0.120
-0.114
-0.140
-0.027
-0.080
-0.071
-0.076
-0.256
0.029
-0.070
-0.146
-0.254
-0.473
-0.599
-0.486
-0.433
0.476
0.612
0.484
0.015
-0.157
-0.079
0.089
0.096
0.314
0.423
0.656
0.600
0.492
0.484
0.323
0.250
0.207
0.092
0.167
0.122
0.016
0.029
-0.090
0.009
0.026
0.016
-0.090
-0.030
0.112
0.034
-0.039
-0.026
0.040
0.112
-0.052
0.014
0.176
-0.362
-0.185
-0.041
0.108
0.304
0.046
0.060
0.063
0.021
-0.000
-0.177
-2.177
-3.755
0.064
3.380
4.319
2.245
-0.708
-2.206
-2.397
-1.596
-0.173
1.001
1.898
2.573
2.591
2.260
1.809
1.213
0.375
-0.127
-0.428
-0.842
-1.160
-1.056
-1.046
-0.805
-0.670
-0.449
-0.294
-0.230
-0.070
0.179
0.106
0.243
0.124
0.091
0.143
0.035
0.169
0.140
0.231
0.228
0.163
0.163
0.141
0.059
0.305
0.252
0.222
0.240
0.132
0.323
0.364
0.338
0.243
0.239
0.261
0.224
0.278
0.122
0.145
0.211
0.151
0.134
0.197
0.163
0.127
0.041
0.039
0.052
0.103
-0.003
-0.003
-0.066
-0.007
0.014
-0.047
0.026
0.001
-0.163
-0.129
-0.079
-0.103
-0.154
-0.227
-0.072
-0.094
-0.096
-0.112
-0.191
-0.155
-0.126
-0.179
-0.105
-0.041
-0.050
0.063
-0.133
-0.029
-0.137
-0.008
0.013
0.086
-0.033
0.031
-0.058
-0.030
-0.115
0.018
0.009
0.029
-0.084
0.070
0.103
0.097
-0.103
0.139
-0.051
0.078
0.153
0.127
0.105
-0.056
0.094
0.008
0.095
0.134
0.032
0.070
0.057
0.158
-0.108
-0.023
-0.073
0.046
0.091
0.069
-0.059
-0.002
-0.023
0.053
0.071
0.086
-0.116
0.023
-0.109
0.089
0.152
-0.055
-0.022
0.125
0.147
0.073
-0.089
0.082
0.041
0.032
0.057
0.149
0.043
0.133
0.023
-0.067
0.087
0.127
0.140
0.057
0.096
-0.021
0.144
-0.035
0.108
0.085
-0.070
0.081
0.064
-0.039
0.146
0.061
-0.051
-0.031
0.130
0.057
0.090
-0.051
-0.011
-0.009
0.026
0.175
0.103
-0.099
-0.106
-0.022
-0.015
-0.022
0.058
0.088
-0.068
-0.102
0.104
-0.014
0.057
-0.075
-0.022
-0.079
-0.139
-0.008
0.059
-0.083
0.026
-0.154
0.096
-0.102
-0.074
-0.002
-0.011
-0.054
0.075
0.148
-0.038
-0.127
-0.044
0.020
-0.042
-0.024
0.047
0.079
-0.009
-0.021
-0.048
0.087
0.011
0.032
0.001
-0.045
0.029
-0.071
-0.047
0.050
0.070
0.071
0.077
0.023
-0.027
0.044
0.106
0.059
0.095
0.078
-0.028
-0.045
0.092
0.041
0.035
0.104
0.104
0.132
0.020
0.079
-0.013
-0.077
0.007
0.163
0.129
0.092
-0.032
0.073
0.119
-0.090
0.116
-0.015
0.023
0.104
0.074
0.110
-0.001
0.027
0.000
-0.013
-0.055
0.051
0.126
0.098
0.052
-0.047
0.021
0.125
0.033
-0.168
-0.020
0.143
0.063
-0.115
0.013
-0.001
-0.120
0.052
0.062
-0.032
0.042
-0.062
0.117
-0.016
-0.054
0.030
0.066
-0.024
0.001
0.016
0.043
-0.081
0.095
0.031
0.016
0.068
0.004
-0.095
-0.151
0.077
0.105
-0.007
0.014
0.006
0.021
-0.074
0.039
0.117
0.113
0.074
-0.018
-0.069
-0.086
0.029
0.102
-0.039
0.005
0.048
-0.020
0.058
-0.048
-0.081
0.011
-0.036
0.007
0.039
0.218
0.019
0.055
-0.036
-0.054
-0.103
-0.002
-0.247
-0.158
-0.207
-0.097
-0.420
-1.386
-0.118
0.997
1.006
0.402
0.032
-0.102
-0.123
0.009
0.129
0.219
0.362
0.533
0.140
0.462
0.279
0.186
0.069
-0.029
-0.171
-0.296
-0.106
-0.301
-0.121
-0.235
-0.176
0.064
-0.075
-0.116
-0.148
0.035
0.015
-0.021
0.087
0.059
0.065
-0.118
-0.046
0.085
0.082
0.053
0.080
-0.002
-0.037
0.122
0.040
-0.028
0.002
0.006
0.146
0.031
0.090
-0.128
0.135
0.069
0.078
0.164
0.014
-0.039
0.124
0.040
0.063
0.067
0.011
-0.047
0.103
0.054
0.170
0.130
0.050
-0.042
0.070
0.025
0.069
0.008
-0.010
-0.013
-0.023
0.067
0.019
0.118
0.031
-0.062
-0.050
-0.103
-0.051
0.039
0.011
-0.004
0.017
0.002
-0.083
-0.082
0.126
0.096
-0.054
-0.002
-0.058
0.022
0.020
-0.109
-0.104
-0.049
0.136
0.077
-0.024
0.043
0.060
-0.002
-0.027
0.017
-0.053
-0.037
0.036
0.023
0.116
0.094
-0.038
-0.077
0.050
-0.027
0.076
0.001
0.012
0.050
-0.020
-0.036
0.000
0.074
-0.382
-0.848
-2.339
-1.901
-1.069
0.220
0.665
0.760
-0.665
-0.886
-0.416
-0.077
0.186
0.256
0.049
0.076
0.452
0.583
0.920
0.867
0.812
0.342
-0.057
-0.052
-0.057
-0.509
-2.850
-3.175
-1.044
0.328
-0.684
-3.347
-0.914
3.007
3.864
-1.882
-3.308
1.854
3.705
3.767
2.585
1.752
1.909
2.453
3.001
3.298
3.237
2.901
2.249
1.171
0.083
-0.844
-1.581
-1.999
-2.205
-2.402
-2.260
-1.946
-1.441
-1.132
-0.714
-0.241
-0.058
0.168
0.381
0.588
0.632
0.491
0.673
0.862
0.826
0.841
0.820
0.860
0.936
1.109
0.951
1.011
1.065
1.084
1.176
1.174
1.044
1.008
1.022
1.017
0.934
0.919
0.856
0.896
0.745
0.682
0.663
0.592
0.437
0.463
0.497
0.353
0.264
0.090
0.262
0.057
0.024
0.070
-0.051
-0.253
-0.311
-0.139
-0.389
-0.248
-0.280
-0.433
-0.487
-0.494
-0.350
-0.375
-0.401
-0.642
-0.485
-0.457
-0.563
-0.559
-0.588
-0.517
-0.415
-0.490
-0.695
-1.986
-0.315
-3.092
-1.219
2.640
2.948
1.221
-0.422
-1.072
-1.191
-0.838
-0.147
0.399
0.788
1.072
0.967
1.133
0.647
0.572
0.311
-0.051
-0.063
-0.278
-0.509
-0.464
-0.344
-0.212
-0.280
-0.247
-0.103
0.081
0.193
0.107
0.028
0.262
0.238
0.150
0.193
0.303
0.184
0.174
0.123
0.250
0.166
0.258
0.093
0.182
-0.345
-1.234
-0.799
0.100
0.518
1.014
0.900
0.624
0.174
-0.021
-0.028
-0.075
0.269
0.415
0.629
0.768
0.581
0.455
0.459
0.471
0.123
0.020
-0.108
-0.113
-0.185
-0.177
-0.206
-0.128
-0.060
-0.056
-0.040
-0.087
-0.013
0.004
0.002
0.104
-0.051
0.052
0.048
-0.016
-0.035
0.075
0.028
-0.032
-0.005
-0.122
-0.063
0.091
-0.001
-0.019
0.039
0.067
0.026
-0.104
0.049
-0.053
-0.126
0.056
-0.021
-0.125
-0.101
0.066
-0.152
-0.161
-0.058
-0.058
-0.117
-0.009
-0.103
-0.083
0.042
-0.233
-0.124
-0.025
-0.156
-0.072
-0.006
0.020
-0.015
-0.142
-0.062
-0.028
0.023
-0.189
-0.071
0.014
0.016
0.075
-0.070
-0.039
-0.010
-0.022
0.017
0.008
0.123
0.041
0.038
0.118
0.084
-0.103
-0.031
0.231
0.144
0.210
0.068
0.021
0.085
0.059
0.148
0.194
0.118
0.082
0.157
0.213
0.121
0.026
0.106
0.210
0.067
0.125
0.157
-0.026
0.029
0.162
0.109
0.127
0.176
-0.015
-0.041
0.191
0.075
0.017
0.005
0.095
-0.007
0.071
0.043
-0.058
0.022
-0.045
-0.036
0.072
-0.179
-0.053
0.038
-0.047
-0.049
-0.031
0.004
-0.140
-0.173
0.009
-0.096
-0.091
-0.075
0.002
-0.161
-0.085
-0.008
-0.188
-0.068
0.013
0.068
-0.043
-0.094
-0.109
-0.163
0.036
-0.078
0.033
-0.070
-0.092
0.068
-0.042
-0.061
0.107
0.004
0.032
0.065
0.067
-0.136
-0.037
0.154
0.059
0.094
0.238
0.097
-0.107
0.052
0.069
0.115
0.078
0.099
0.070
0.044
0.173
0.149
0.027
0.052
-0.015
0.022
0.149
0.076
0.038
0.026
0.090
0.033
0.220
0.110
0.101
-0.005
0.046
0.096
0.070
-0.048
-0.019
0.040
0.095
-0.069
0.043
-0.030
-0.032
-0.063
-0.000
-0.037
0.078
-0.026
-0.034
0.058
0.121
-0.088
-0.012
-0.075
